13899285401
13899292420
13899297486
13899302125
13899307191
13899312195
13899317261
13899322694
13899328919
13899334901
13899341004
13899346009
13899352784
13899357911
13899364014
13899370423
13899375733
13899382386
13899387696
13899393067
13899399781
13899407105
13899412964
13899420227
13899429078
13899437561
13899445252
13899450562
13899457825
13899464295
13899471375
13899477234
13899485169
13899491883
13899498657
13899504578
13899509827
13899515442
13899523926
13899531372
13899536743
13899543579
13899549744
13899555908
13899564514
13899570435
13899575989
13899581177
13899586792
13899594177
13899601623
13899608093
13899613220
13899620300
13899626404
13899633423
13899640625
13899645447
13899652527
13899657776
13899663452
13899670105
13899675415
13899681701
13899688842
13899695373
13899701843
13899707397
13899712524
13899719848
13899725280
13899732971
13899738586
13899745239
13899753295
13899759948
13899766296
13899772033
13899778869
13899784301
13899792602
13899798644
13899806335
13899812499
13899819274
13899825317
13899835510
13899838867
13899847900
13899853027
13899859618
13899865356
13899870910
13899878600
13899885009
13899890563
13899897216
13899905028
13899911986
13899918456
13899927611
13899934936
13899939696
13899948241
13899953368
13899960692
13899968871
13899974486
13899981627
13899987914
13899994567
13900000975
13900006957
13900014586
13900020690
13900028319
13900036376
13900043456
13900049926
13900056578
13900062560
13900069457
13900077513
13900085204
13900093993
13900100340
13900107176
13900113524
13900122801
13900131773
13900136778
13900145140
13900151427
13900158690
13900166136
13900171141
13900177061
13900187682
13900198363
13900204527
13900209532
13900217161
13900224180
13900232298
13900237669
13900245726
13900252501
13900259947
13900266417
13900272154
13900279966
13900287474
13900292845
13900301146
13900308958
13900316587
13900323851
13900330564
13900336668
13900344297
13900351499
13900356748
13900364622
13900373228
13900379942
13900385618
13900393614
13900401182
13900407346
13900415403
13900423948
13900430296
13900437315
13900445310
13900450559
13900458250
13900467161
13900473386
13900482236
13900489072
13900496213
13900503049
13900511899
13900520933
13900527952
13900536619
13900543088
13900551328
13900557737
13900564878
13900574216
13900580015
13900587949
13900595517
13900602414
13900608762
13900616147
13900623105
13900631711
13900637509
13900646054
13900653989
13900659787
13900667111
13900675595
13900684079
13900692075
13900698483
13900704526
13900712888
13900720761
13900729733
13900736142
13900740964
13900747861
13900753903
13900760373
13900767087
13900772397
13900778806
13900784421
13900789853
13900795285
13900799985
13900804074
13900810605
13900815793
13900821042
13900826962
13900832028
13900836545
13900841855
13900847104
13900852414
13900856503
13900861447
13900867367
13900872494
13900876645
13900882931
13900888730
13900895382
13900900448
13900905514
13900911679
13900917721
13900922848
13900928158
13900934018
13900939633
13900945248
13900952023
13900957821
13900962460
13900967404
13900974423
13900980831
13900986202
13900991635
13900994747
13901001278
13901005734
13901018673
13901025814
13901031368
13901038815
13901044491
13901049862
13901057003
13901061092
13901067867
13901073544
13901080502
13901085506
13901091610
13901098141
13901103329
13901104793
13901114437
13901120174
13901126339
13901133541
13901138241
13901143612
13901149166
13901152523
13901161373
13901166195
13901172359
13901177791
13901183529
13901190242
13901196712
13901201778
13901207210
13901212337
13901218196
13901223995
13901229488
13901235836
13901242122
13901247737
13901252132
13901257991
13901263484
13901270442
13901275386
13901281978
13901287349
13901294368
13901300289
13901304866
13901313106
13901320796
13901325862
13901333919
13901339717
13901345027
13901350642
13901355952
13901362361
13901368037
13901372737
13901378902
13901384883
13901389461
13901396052
13901402766
13901408748
13901413570
13901420894
13901425899
13901431453
13901436824
13901442866
13901448543
13901455012
13901460017
13901467219
13901472529
13901477778
13901483699
13901489680
13901496211
13901503962
13901508845
13901515925
13901520930
13901528376
13901534907
13901540889
13901548030
13901553034
13901562800
13901570307
13901578120
13901586176
13901594355
13901599238
13901610835
13901619196
13901627253
13901631709
13901639887
13901648920
13901660944
13901669794
13901678583
13901685847
13901695734
13901702997
13901712336
13901719111
13901728388
13901735956
13901743159
13901752314
13901758722
13901765802
13901774714
13901780756
13901789911
13901797358
13901806025
13901811762
13901820185
13901825739
13901834345
13901839777
13901848444
13901857050
13901863214
13901874201
13901881220
13901888910
13901895624
13901903558
13901913446
13901922296
13901928766
13901936639
13901944757
13901950739
13901959344
13901967828
13901977289
13901983758
13901991693
13902000055
13902008050
13902016168
13902024530
13902033258
13902042108
13902049005
13902055536
13902063897
13902070550
13902077447
13902085809
13902093011
13902100579
13902109430
13902114556
13902123712
13902131402
13902138909
13902147149
13902154779
13902163507
13902170892
13902177667
13902188409
13902196160
13902203484
13902210687
13902218499
13902228082
13902235345
13902242120
13902249871
13902257195
13902265130
13902271905
13902280083
13902289239
13902297967
13902304192
13902312615
13902320855
13902329522
13902337578
13902345635
13902353447
13902361382
13902367730
13902377984
13902385857
13902394097
13902400750
13902409233
13902418877
13902427544
13902435173
13902443535
13902449944
13902459954
13902469170
13902477349
13902484917
13902493889
13902502556
13902509209
13902517754
13902525688
13902531975
13902540276
13902546562
13902556633
13902560966
13902570793
13902577141
13902587150
13902594108
13902600944
13902610649
13902618645
13902628288
13902634636
13902644401
13902652885
13902659721
13902667167
13902676384
13902685112
13902691826
13902698784
13902708061
13902715934
13902722282
13902731559
13902737846
13902748161
13902754814
13902764701
13902771354
13902782585
13902787284
13902797904
13902804496
13902815849
13902825492
13902834403
13902841300
13902850883
13902857352
13902866447
13902872916
13902882438
13902891410
13902899039
13902905021
13902913871
13902922111
13902927909
13902937064
13902944694
13902953727
13902961844
13902968131
13902975028
13902981009
13902987235
13902994132
13903000235
13903005606
13903012870
13903019339
13903024161
13903033316
13903037772
13903045890
13903051688
13903057242
13903065543
13903071097
13903076895
13903083060
13903090506
13903094290
13903100699
13903104605
13903111197
13903115836
13903121817
13903129630
13903135306
13903141714
13903146475
13903154410
13903161612
13903167715
13903175284
13903180655
13903188467
13903194144
13903198660
13903205008
13903209585
13903216238
13903221976
13903228262
13903233389
13903237539
13903243826
13903249807
13903254995
13903260306
13903267508
13903273123
13903279226
13903283743
13903289785
13903293448
13903299429
13903306936
13903311941
13903319143
13903324392
13903329885
13903335440
13903341238
13903347708
13903356741
13903361257
13903369192
13903375418
13903380422
13903386465
13903399038
13903405752
13903414236
13903421377
13903425954
13903434499
13903445058
13903452749
13903462575
13903471548
13903479360
13903485891
13903495351
13903502370
13903509817
13903519765
13903528371
13903534902
13903543020
13903550771
13903557485
13903563955
13903568898
13903573720
13903580617
13903584218
13903590139
13903594777
13903601796
13903606679
13903613210
13903617421
13903624257
13903629445
13903636098
13903641469
13903647939
13903652577
13903657338
13903664601
13903670644
13903676259
13903682607
13903688161
13903693532
13903700246
13903706349
13903712697
13903717030
13903723317
13903729909
13903735036
13903739430
13903745900
13903750356
13903757680
13903763173
13903771046
13903777882
13903783925
13903787282
13903795155
13903800526
13903808827
13903812001
13903819813
13903824391
13903831166
13903836476
13903841237
13903849476
13903855275
13903863698
13903871327
13903880604
13903887867
13903896778
13903901600
13903913502
13903920582
13903929310
13903935536
13903944630
13903951344
13903958851
13903968800
13903975025
13903982227
13903990955
13903998951
13904005299
13904013844
13904022938
13904030201
13904037586
13904045399
13904052601
13904059376
13904065845
13904074940
13904081165
13904090626
13904098011
13904107410
13904114185
13904120472
13904130665
13904139087
13904147266
13904154957
13904162586
13904169056
13904177784
13904187610
13904193714
13904203968
13904212757
13904218738
13904226673
13904233325
13904243091
13904249988
13904257862
13904264087
13904272693
13904280689
13904289539
13904296680
13904302051
13904312244
13904317554
13904326343
13904333911
13904342151
13904349841
13904358081
13904366809
13904373462
13904382007
13904387195
13904396228
13904405444
13904414783
13904420825
13904429370
13904434924
13904445239
13904452380
13904459582
13904467028
13904476306
13904483996
13904491931
13904497241
13904505664
13904513720
13904521655
13904528125
13904536608
13904543627
13904551684
13904557971
13904566943
13904574084
13904580798
13904589953
13904597643
13904606982
13904613207
13904620959
13904629504
13904636828
13904644030
13904652514
13904660082
13904668566
13904676134
13904684862
13904691393
13904699145
13904705981
13904715258
13904721850
13904732897
13904739245
13904749010
13904755602
13904762743
13904772631
13904780321
13904787462
13904794847
13904802660
13904811327
13904818590
13904824816
13904833116
13904841966
13904848253
13904855272
13904865404
13904872179
13904880968
13904887621
13904893541
13904903673
13904909654
13904919542
13904927049
13904935228
13904944933
13904952928
13904958238
13904968614
13904976121
13904984361
13904989305
13905000047
13905006822
13905017808
13905025010
13905033372
13905040330
13905047410
13905056810
13905065049
13905072923
13905082200
13905089463
13905097337
13905104844
13905113145
13905121507
13905125962
13905137559
13905146470
13905152696
13905159654
13905170396
13905176866
13905186265
13905192918
13905201585
13905211228
13905218491
13905225877
13905234727
13905242722
13905249680
13905257981
13905265122
13905274155
13905281235
13905289658
13905296311
13905306748
13905313279
13905321641
13905332017
13905337937
13905344895
13905349717
13905356858
13905362351
13905367661
13905373093
13905379929
13905386521
13905391709
13905399704
13905404770
13905411972
13905418015
13905423508
13905426621
13905436264
13905440903
13905446457
13905453293
13905458359
13905463425
13905469162
13905474960
13905482407
13905488449
13905493759
13905500107
13905505295
13905510422
13905517258
13905522812
13905528000
13905534225
13905539963
13905546493
13905552353
13905558945
13905566208
13905571762
13905579086
13905583847
13905591293
13905598617
13905603744
13905608810
13905616318
13905621872
13905629318
13905636398
13905641769
13905648361
13905654281
13905661422
13905667587
13905674606
13905681686
13905688583
13905695480
13905702133
13905708114
13905712265
13905719223
13905725631
13905731307
13905734725
13905742904
13905748214
13905755905
13905762374
13905767318
13905773666
13905780685
13905786300
13905791488
13905798263
13905803573
13905809860
13905814742
13905821151
13905827804
13905836593
13905841842
13905848617
13905853622
13905859847
13905865829
13905870467
13905875716
13905884566
13905889205
13905895309
13905900191
13905905623
13905911056
13905917586
13905924056
13905931380
13905937606
13905942733
13905948592
13905953536
13905959884
13905965194
13905971663
13905978499
13905982772
13905989363
13905994857
13905999678
13906007308
13906012252
13906018233
13906022994
13906029158
13906034590
13906039961
13906047164
13906051680
13906057051
13906064009
13906069624
13906074629
13906080428
13906083540
13906092452
13906098250
13906104109
13906107283
13906114851
13906120100
13906128401
13906135298
13906141341
13906147444
13906152144
13906157027
13906162947
13906168806
13906174849
13906177901
13906185713
13906192122
13906198164
13906204024
13906209273
13906214949
13906222090
13906228621
13906236006
13906242964
13906251936
13906260054
13906267500
13906275190
13906284407
13906292219
13906299543
13906306623
13906316816
13906323286
13906329450
13906340071
13906350813
13906358503
13906364851
13906374372
13906380720
13906388593
13906396162
13906404707
13906413068
13906421552
13906428327
13906436140
13906444013
13906451154
13906457746
13906466535
13906473188
13906483137
13906490522
13906497663
13906504926
13906513227
13906520978
13906530011
13906538068
13906543927
13906553022
13906559919
13906567914
13906576276
13906583173
13906592572
13906598798
13906608441
13906617047
13906626752
13906634748
13906642316
13906649884
13906656842
13906664472
13906673566
13906682843
13906689984
13906699994
13906706769
13906714398
13906723248
13906731183
13906738629
13906749310
13906756390
13906764264
13906770856
13906780377
13906786664
13906794171
13906802594
13906811444
13906825482
13906833905
13906845501
13906853436
13906859967
13906867474
13906878155
13906886151
13906893780
13906901165
13906909344
13906917645
13906924725
13906932659
13906938702
13906946820
13906956280
13906965374
13906973431
13906979473
13906985699
13906994732
13907001934
13907010296
13907023357
13907032024
13907038555
13907051739
13907058941
13907066570
13907074932
13907085430
13907094158
13907102215
13907110637
13907120403
13907129497
13907137676
13907147503
13907157268
13907165813
13907172222
13907179729
13907189006
13907197124
13907205181
13907213542
13907222393
13907230266
13907236370
13907246440
13907252361
13907262676
13907272868
13907280193
13907285198
13907297160
13907305095
13907311931
13907318034
13907327617
13907335185
13907342387
13907349712
13907357646
13907365947
13907374858
13907381816
13907390910
13907400004
13907406474
13907413493
13907422221
13907428142
13907439799
13907446879
13907455790
13907463725
13907472514
13907479533
13907488139
13907494426
13907503154
13907508952
13907517619
13907525309
13907534037
13907540812
13907548747
13907558207
13907565653
13907573954
13907581461
13907591837
13907599894
13907607829
13907614054
13907620524
13907630412
13907636881
13907646708
13907653361
13907663492
13907670145
13907677836
13907687906
13907695475
13907702799
13907711100
13907718668
13907725626
13907732340
13907736246
13907743998
13907750406
13907755350
13907760965
13907768351
13907776285
13907780985
13907787516
13907792032
13907799601
13907804178
13907811075
13907813822
13907823099
13907830118
13907836649
13907842935
13907849466
13907854898
13907864359
13907871561
13907877542
13907887125
13907894449
13907900613
13907905679
13907913309
13907918130
13907924905
13907929971
13907936197
13907941629
13907946329
13907951761
13907956705
13907960611
13907967691
13907971536
13907977334
13907981851
13907986551
13907991006
13907996805
13908001382
13908006570
13908012979
13908017679
13908022561
13908028360
13908033853
13908039163
13908045266
13908051004
13908055581
13908062295
13908067544
13908073159
13908077981
13908084207
13908090493
13908096963
13908104409
13908111123
13908116311
13908121377
13908126565
13908132302
13908139382
13908145547
13908148721
13908156045
13908163125
13908167825
13908172036
13908179177
13908183572
13908190347
13908195290
13908202248
13908209390
13908214883
13908219399
13908223977
13908230202
13908237160
13908242104
13908248452
13908252907
13908258828
13908264565
13908269326
13908276345
13908282815
13908288735
13908294961
13908300698
13908306374
13908311745
13908317177
13908322732
13908328774
13908335488
13908341530
13908347084
13908353432
13908358315
13908362648
13908369912
13908374367
13908381264
13908388832
13908393898
13908398537
13908406349
13908413674
13908418007
13908424416
13908430153
13908436562
13908443581
13908449257
13908455666
13908461891
13908468849
13908473976
13908482582
13908487831
13908493935
13908498207
13908504982
13908511086
13908516945
13908523720
13908529335
13908534401
13908539528
13908544777
13908549965
13908554176
13908560524
13908566566
13908573219
13908580177
13908587135
13908591041
13908600502
13908606178
13908614601
13908623634
13908631508
13908639381
13908646583
13908653236
13908661171
13908669960
13908677894
13908686439
13908695045
13908703895
13908711891
13908719276
13908725685
13908734107
13908742652
13908752235
13908759864
13908768836
13908773597
13908782569
13908790870
13908814307
13908820655
13908831031
13908837012
13908845985
13908854041
13908861976
13908869361
13908877234
13908884681
13908893043
13908900489
13908906409
13908914222
13908922950
13908930335
13908938147
13908944739
13908954139
13908960669
13908969031
13908976050
13908984778
13908991492
13908998084
13909007666
13909016333
13909023230
13909031897
13909039832
13909045691
13909053748
13909062476
13909069800
13909076941
13909085547
13909093848
13909102271
13909109290
13909116980
13909121558
13909132483
13909139136
13909148901
13909155371
13909161780
13909171728
13909176611
13909186377
13909192541
13909204016
13909212744
13909220434
13909225988
13909233862
13909241613
13909250525
13909258581
13909267065
13909275305
13909283728
13909291113
13909299230
13909306494
13909314062
13909323095
13909331701
13909340429
13909347265
13909353796
13909364416
13909370825
13909377966
13909387792
13909397497
13909407812
13909414220
13909424047
13909432165
13909439916
13909448461
13909456151
13909464757
13909473607
13909486974
13909496862
13909504552
13909511815
13909518224
13909527562
13909532628
13909542089
13909549230
13909557042
13909565709
13909574437
13909582067
13909590367
13909598302
13909607152
13909615880
13909622838
13909629552
13909639806
13909646947
13909654881
13909664525
13909671666
13909679234
13909689061
13909696568
13909703404
13909712254
13909719029
13909727330
13909736485
13909745274
13909753392
13909761754
13909766148
13909776463
13909783360
13909791356
13909801182
13909808629
13909816075
13909824254
13909833531
13909838719
13909847447
13909855931
13909863926
13909871189
13909877537
13909887181
13909893894
13909900486
13909910069
13909917454
13909924656
13909932285
13909940037
13909947971
13909958164
13909966404
13909974949
13909982761
13909990391
13909998753
13910007053
13910014194
13910023106
13910030308
13910037937
13910046116
13910053196
13910058689
13910065159
13910072788
13910078281
13910084019
13910091099
13910095310
13910103306
13910108982
13910115268
13910122043
13910127597
13910134006
13910140110
13910144382
13910149570
13910154697
13910158542
13910164157
13910168308
13910173008
13910179843
13910184787
13910192111
13910196018
13910202060
13910207065
13910212619
13910219211
13910224460
13910229465
13910234409
13910239719
13910245212
13910250217
13910257968
13910261936
13910269260
13910274204
13910279941
13910284213
13910290927
13910295139
13910301913
13910309177
13910316684
13910323154
13910329562
13910335361
13910339816
13910347018
13910351535
13910356296
13910363132
13910368625
13910376559
13910382724
13910389255
13910394015
13910399386
13910405856
13910411654
13910418795
13910425204
13910430575
13910435885
13910443820
13910448703
13910456881
13910463900
13910470187
13910476046
13910480685
13910486850
13910491488
13910498263
13910501437
13910508517
13910513400
13910521456
13910528597
13910533724
13910537936
13910546420
13910552279
13910558627
13910564364
13910569613
13910575045
13910579501
13910586581
13910591891
13910599398
13910605502
13910610201
13910615572
13910621249
13910627047
13910631869
13910639498
13910646151
13910655428
13910659212
13910669100
13910678133
13910682711
13910689364
13910695345
13910699984
13910708834
13910716646
13910721773
13910726839
13910733431
13910738619
13910743807
13910750765
13910754732
13910761507
13910766451
13910773958
13910779268
13910785372
13910791353
13910796724
13910803194
13910809053
13910814241
13910819979
13910825899
13910832247
13910838350
13910845430
13910848970
13910856966
13910861604
13910865816
13910873872
13910878511
13910885286
13910889681
13910894746
13910901521
13910907930
13910912752
13910919588
13910926973
13910933015
13910940828
13910949800
13910958162
13910964265
13910970552
13910980195
13910987337
13910994111
13911003206
13911010103
13911018464
13911024934
13911033540
13911040315
13911049165
13911058747
13911064851
13911074983
13911081575
13911087861
13911097077
13911101899
13911112947
13911119782
13911126313
13911136079
13911142854
13911153596
13911161164
13911168610
13911174653
13911183259
13911190522
13911199128
13911206208
13911214387
13911223298
13911229157
13911238557
13911245759
13911255036
13911260224
13911269318
13911275300
13911284455
13911290314
13911300873
13911308442
13911315766
13911323517
13911331940
13911340485
13911347809
13911350006
13911361115
13911370514
13911379547
13911387665
13911394928
13911401703
13911411530
13911418183
13911427521
13911435272
13911442474
13911449982
13911457855
13911466339
13911476593
13911484100
13911489410
13911497467
13911506195
13911514984
13911522919
13911528961
13911539398
13911546722
13911554962
13911563202
13911568451
13911578216
13911585357
13911593170
13911600433
13911609588
13911616913
13911625091
13911632965
13911640838
13911648040
13911654998
13911663909
13911670867
13911679168
13911686065
13911695098
13911701934
13911710479
13911717986
13911726348
13911732513
13911742645
13911749175
13911757659
13911765228
13911773345
13911780669
13911788604
13911796905
13911802154
13911812896
13911819549
13911827666
13911835723
13911842193
13911849090
13911859160
13911865630
13911874785
13911881499
13911888946
13911896636
13911904876
13911912688
13911920989
13911929351
13911938445
13911946074
13911953276
13911961577
13911969329
13911978362
13911984465
13911992583
13912001921
13912008635
13912016509
13912024443
13912030730
13912037749
13912048918
13912054595
13912064055
13912070769
13912080717
13912087187
13912094756
13912101591
13912109648
13912117949
13912126128
13912134184
13912140288
13912148772
13912158232
13912166289
13912174956
13912179960
13912190703
13912197844
13912204985
13912215300
13912221830
13912232145
13912239286
13912248991
13912256193
13912264433
13912274198
13912282194
13912288359
13912298979
13912306242
13912315092
13912323393
13912329557
13912336027
13912347868
13912355863
13912363859
13912370634
13912378385
13912384550
13912392973
13912401823
13912407926
13912413297
13912418363
13912423856
13912431119
13912435331
13912441984
13912447599
13912454069
13912461088
13912469816
13912475431
13912479947
13912486966
13912491117
13912498990
13912504606
13912511930
13912516629
13912524015
13912528775
13912534757
13912542569
13912548673
13912554471
13912560758
13912564725
13912571378
13912577115
13912584012
13912591092
13912594876
13912601285
13912607511
13912613065
13912615811
13912623929
13912626676
13912635648
13912641080
13912646573
13912652432
13912657315
13912662747
13912667569
13912673184
13912680325
13912685208
13912691312
13912695523
13912702298
13912706021
13912712796
13912717557
13912725613
13912730923
13912735562
13912740628
13912746060
13912751248
13912756192
13912763455
13912770108
13912775235
13912781216
13912786099
13912790982
13912797635
13912804593
13912810269
13912816006
13912821560
13912828640
13912835843
13912842434
13912848172
13912855130
13912861965
13912866787
13912874295
13912880215
13912887234
13912893215
13912899746
13912902737
13912910244
13912915859
13912921963
13912925442
13912932278
13912937649
13912943081
13912948147
13912953823
13912959255
13912965420
13912971401
13912977139
13912982571
13912987026
13912991909
13913000027
13913004726
13913011684
13913017239
13913022915
13913028225
13913033840
13913039760
13913046718
13913052212
13913057094
13913063320
13913068996
13913075100
13913079921
13913086147
13913091457
13913099392
13913104152
13913109951
13913116909
13913120937
13913128688
13913133083
13913141323
13913146450
13913152431
13913157741
13913164089
13913170681
13913176601
13913181240
13913187648
13913190944
13913199733
13913204372
13913210231
13913216335
13913226100
13913231166
13913236415
13913244533
13913252406
13913257228
13913264491
13913273830
13913280238
13913289455
13913298000
13913305019
13913314479
13913321254
13913328761
13913338466
13913344691
13913354274
13913361293
13913370814
13913382106
13913389613
13913398280
13913404872
13913414515
13913421717
13913431117
13913440394
13913448512
13913457240
13913465113
13913471156
13913478663
13913484645
13913494715
13913501795
13913511317
13913518275
13913529383
13913538111
13913546229
13913552393
13913561671
13913568140
13913579859
13913587244
13913597376
13913604395
13913614039
13913620814
13913629847
13913638941
13913645655
13913655359
13913661463
13913670374
13913678919
13913685633
13913694300
13913701624
13913711084
13913718164
13913728113
13913738062
13913745264
13913751978
13913762171
13913769190
13913779199
13913784082
13913793604
13913800440
13913810449
13913817468
13913826807
13913833582
13913844263
13913851282
13913860498
13913870325
13913875146
13913882715
13913892603
13913899316
13913909387
13913916162
13913924890
13913931543
13913941919
13913949609
13913957544
13913966577
13913975854
13913984216
13913993005
13913997339
13914008386
13914014978
13914024987
13914031335
13914040429
13914051477
13914058251
13914067834
13914077355
13914083886
13914092675
13914102563
13914109216
13914119531
13914127892
13914135461
13914143212
13914150842
13914159203
13914167626
13914178307
13914186059
13914192040
13914202904
13914210168
13914218407
13914225793
13914234704
13914241845
13914250268
13914256737
13914266015
13914273095
13914283776
13914290551
13914297448
13914307274
13914314721
13914324181
13914331810
13914339318
13914347557
13914356713
13914365990
13914373192
13914383019
13914391747
13914399132
13914407860
13914414818
13914425011
13914431969
13914439293
13914449181
13914456993
13914467308
13914474937
13914482750
13914490623
13914498924
13914505577
13914514061
13914523521
13914531639
13914538902
13914547142
13914555198
13914563377
13914569969
13914576927
13914586693
13914596031
13914603172
13914611534
13914622337
13914628929
13914638938
13914644615
13914655601
13914661888
13914670555
13914679466
13914688621
13914696494
13914703330
13914710166
13914720298
13914727012
13914736594
13914743552
13914752342
13914762046
13914768943
13914775779
13914780784
13914787559
13914793662
13914798545
13914806174
13914811545
13914819236
13914824302
13914831626
13914837852
13914844199
13914852256
13914858664
13914864097
13914870505
13914875205
13914881736
13914889060
13914894004
13914901694
13914906455
13914915000
13914918052
13914925864
13914932151
13914938437
13914943564
13914950461
13914956687
13914962790
13914968772
13914975302
13914982504
13914990805
13914996054
13915000937
13915006308
13915012473
13915016379
13915022421
13915028952
13915033591
13915039877
13915046591
13915053061
13915058798
13915065024
13915068686
13915079855
13915085715
13915092306
13915098105
13915105490
13915109579
13915118490
13915125265
13915133688
13915138876
13915145163
13915150168
13915156820
13915161337
13915168112
13915173788
13915180624
13915185385
13915192282
13915197836
13915203329
13915209860
13915215414
13915221762
13915227133
13915233419
13915239523
13915245199
13915252523
13915257955
13915263449
13915269857
13915275350
13915279867
13915286703
13915292867
13915298788
13915304586
13915309713
13915315450
13915323690
13915329672
13915335775
13915341573
13915347799
13915353414
13915359457
13915366598
13915373251
13915378744
13915384969
13915389974
13915396566
13915404134
13915408163
13915415975
13915421529
13915428548
13915434408
13915440572
13915446920
13915453084
13915458639
13915464742
13915471883
13915478597
13915484151
13915490194
13915493612
13915501546
13915507894
13915514119
13915518941
13915524862
13915531697
13915537557
13915543660
13915549947
13915555501
13915560750
13915567037
13915574727
13915581441
13915587483
13915592366
13915597920
13915605916
13915611165
13915617879
13915625081
13915633138
13915638326
13915644368
13915650777
13915656026
13915662679
13915668477
13915677144
13915684712
13915694844
13915703999
13915712666
13915717183
13915727742
13915737141
13915744588
13915751362
13915762410
13915769124
13915778523
13915784932
13915795308
13915803120
13915809224
13915819600
13915827168
13915834736
13915841938
13915850910
13915856098
13915866596
13915873249
13915882282
13915891316
13915899189
13915907856
13915916828
13915923359
13915933735
13915940937
13915949726
13915956257
13915965839
13915975361
13915982441
13915992023
13916000202
13916008137
13916016376
13916023823
13916030109
13916041767
13916049701
13916057819
13916062275
13916072529
13916079426
13916089496
13916095966
13916105610
13916114521
13916123249
13916130268
13916138507
13916146015
13916155109
13916162738
13916169391
13916178546
13916186847
13916195575
13916203937
13916212177
13916220111
13916228900
13916236041
13916244342
13916250873
13916260516
13916267596
13916274860
13916284625
13916291095
13916301166
13916306903
13916317889
13916326434
13916334125
13916341937
13916350238
13916354632
13916365802
13916372271
13916381976
13916391131
13916397479
13916404254
13916413592
13916423358
13916429583
13916439410
13916447955
13916457293
13916464984
13916473101
13916480609
13916489031
13916495135
13916505267
13916511309
13916520342
13916529253
13916537493
13916544878
13916551226
13916558306
13916568011
13916574847
13916585284
13916591997
13916602557
13916608782
13916616106
13916625750
13916634783
13916641192
13916652117
13916658648
13916665667
13916676226
13916683062
13916690447
13916696672
13916705278
13916715044
13916722795
13916728655
13916736528
13916743730
13916753008
13916760088
13916768022
13916774492
13916781389
13916789263
13916798296
13916808550
13916815752
13916823076
13916829851
13916837968
13916845110
13916853899
13916860918
13916869035
13916876970
13916885637
13916893022
13916900957
13916909807
13916916521
13916925493
13916934587
13916941240
13916949296
13916956010
13916963090
13916970537
13916979570
13916988054
13916995439
13917002702
13917010270
13917019365
13917026200
13917034379
13917042253
13917051225
13917057939
13917066728
13917074662
13917082841
13917089128
13917094743
13917105485
13917113725
13917122392
13917130570
13917138078
13917144486
13917153092
13917160355
13917168717
13917177445
13917184403
13917189286
13917195389
13917200333
13917206132
13917211381
13917217057
13917224015
13917229996
13917236222
13917241227
13917246903
13917252274
13917257950
13917263810
13917270279
13917276383
13917281632
13917288529
13917295853
13917301834
13917308121
13917313858
13917321122
13917326798
13917332474
13917338700
13917344437
13917351273
13917357254
13917364334
13917371231
13917381485
13917388809
13917396561
13917404923
13917413773
13917421829
13917429520
13917438431
13917443314
13917448868
13917453018
13917457657
13917461990
13917467239
13917472610
13917477859
13917482803
13917487808
13917492020
13917496292
13917501175
13917508011
13917513992
13917519913
13917524551
13917527359
13917534134
13917538772
13917543472
13917549209
13917553848
13917558487
13917563919
13917568680
13917573867
13917580459
13917586929
13917591873
13917597061
13917602371
13917609085
13917613357
13917619705
13917624893
13917629715
13917635574
13917640701
13917645401
13917650100
13917656387
13917660354
13917666702
13917671707
13917677810
13917682266
13917688308
13917692581
13917697524
13917703079
13917710830
13917716018
13917720779
13917726394
13917732681
13917737685
13917742446
13917748183
13917753066
13917758376
13917764419
13917769485
13917774062
13917780166
13917785964
13917792678
13917798537
13917804519
13917810805
13917816726
13917821120
13917826247
13917831191
13917837783
13917844008
13917850722
13917854567
13917861037
13917865737
13917871718
13917877150
13917883254
13917891188
13917896987
13917903640
13917908095
13917913222
13917919936
13917926406
13917933974
13917939101
13917946913
13917952590
13917959242
13917964369
13917969008
13917975600
13917980910
13917986891
13917993117
13918000746
13918008986
13918015517
13918021864
13918031142
13918039565
13918046278
13918053053
13918060316
13918066664
13918075575
13918081801
13918087843
13918097487
13918105421
13918111891
13918118483
13918127028
13918133558
13918141005
13918148329
13918158522
13918166517
13918173414
13918180067
13918187574
13918196058
13918204054
13918211805
13918220228
13918227980
13918236097
13918244154
13918251783
13918258314
13918266432
13918272474
13918282789
13918289320
13918298231
13918304762
13918311292
13918320203
13918326917
13918334486
13918342847
13918352308
13918362440
13918369337
13918379774
13918386060
13918394910
13918404554
13918412855
13918421644
13918427564
13918434034
13918445569
13918452710
13918461561
13918468152
13918477063
13918487134
13918495252
13918503064
13918511670
13918519056
13918526258
13918534253
13918542859
13918551587
13918558789
13918566297
13918574841
13918582898
13918589307
13918597424
13918603467
13918615064
13918622022
13918629590
13918637585
13918642285
13918652661
13918662305
13918668957
13918676831
13918686841
13918694592
13918700879
13918709546
13918717114
13918725598
13918733105
13918741406
13918750195
13918757153
13918765881
13918773022
13918780041
13918789013
13918796154
13918802258
13918812268
13918818981
13918826672
13918833813
13918842053
13918850415
13918857983
13918866284
13918875500
13918880139
13918890392
13918896313
13918905163
13918911511
13918921276
13918927563
13918940136
13918944530
13918954723
13918963268
13918971813
13918978527
13918987316
13918993969
13919005077
13919011730
13919020824
13919027599
13919034923
13919044506
13919052501
13919059459
13919070934
13919077587
13919088451
13919093029
13919103283
13919110057
13919120555
13919125377
13919136302
13919143016
13919151500
13919158458
13919168773
13919175670
13919184764
13919191356
13919198436
13919208324
13919214732
13919224437
13919232066
13919241954
13919251048
13919260997
13919270518
13919277049
13919283824
13919291331
13919300792
13919308848
13919314769
13919322764
13919331248
13919339366
13919346141
13919355174
13919362254
13919371531
13919379283
13919387339
13919393992
13919403392
13919411937
13919417613
13919425486
13919433665
13919441722
13919449229
13919454905
13919462473
13919468150
13919477000
13919482493
13919489878
13919493968
13919499766
13919504893
13919511790
13919518015
13919525462
13919532847
13919538279
13919542063
13919548655
13919553049
13919559153
13919565012
13919568858
13919574351
13919579233
13919583933
13919588938
13919594126
13919600718
13919605417
13919610789
13919617380
13919623057
13919628184
13919632578
13919637400
13919643992
13919650400
13919655405
13919660776
13919668467
13919673288
13919677561
13919685068
13919691721
13919697458
13919703135
13919708567
13919714121
13919721079
13919726084
13919733042
13919736704
13919745798
13919751474
13919756113
13919761484
13919769541
13919774606
13919778879
13919786386
13919791513
13919799204
13919804147
13919812448
13919817026
13919823862
13919828500
13919834726
13919841928
13919847360
13919851999
13919858408
13919865427
13919871896
13919877634
13919883676
13919889169
13919895456
13919900033
13919905893
13919910531
13919916879
13919923593
13919929635
13919934945
13919941537
13919944772
13919953378
13919959115
13919966256
13919972299
13919977365
13919982858
13919988839
13919995492
13919999215
13920006478
13920012948
13920018869
13920023751
13920029550
13920035104
13920041268
13920046151
13920052499
13920058053
13920064462
13920069833
13920077950
13920086923
13920093636
13920100900
13920107003
13920110665
13920119943
13920126168
13920138009
13920148019
13920159005
13920167245
13920176766
13920185189
13920194100
13920201913
13920210457
13920220467
13920227913
13920235970
13920242684
13920249581
13920256966
13920264290
13920273507
13920283150
13920290779
13920297860
13920305306
13920313179
13920321358
13920329842
13920338204
13920345894
13920353523
13920362190
13920370613
13920377388
13920387032
13920396614
13920404915
13920416390
13920424751
13920435493
13920443733
13920454414
13920466072
13920474495
13920483650
13920494270
13920503670
13920510994
13920523079
13920532722
13920541206
13920551948
13920561470
13920571357
13920582344
13920591804
13920602302
13920612556
13920621589
13920633003
13920640937
13920652656
13920661323
13920671638
13920683418
13920690620
13920700813
13920710822
13920721992
13920731757
13920740241
13920749030
13920759528
13920768073
13920778815
13920788825
13920796332
13920808112
13920820929
13920831733
13920841742
13920852301
13920862372
13920872992
13920884040
13920893805
13920906073
13920917426
13920925849
13920938056
13920946662
13920956305
13920966986
13920979437
13920992072
13921001715
13921010992
13921019537
13921030768
13921039130
13921049383
13921061468
13921073431
13921082342
13921091070
13921100897
13921109747
13921119879
13921129828
13921138678
13921148260
13921157049
13921166632
13921174444
13921185003
13921195135
13921204840
13921216314
13921223516
13921234442
13921243170
13921254827
13921265142
13921275518
13921283941
13921294500
13921304388
13921314336
13921322820
13921334173
13921343145
13921354742
13921362737
13921374029
13921384405
13921394048
13921401067
13921413640
13921420659
13921433599
13921442815
13921451726
13921463262
13921471868
13921482610
13921496831
13921505376
13921516484
13921528264
13921536016
13921548589
13921559758
13921570500
13921579228
13921588994
13921599126
13921610539
13921620305
13921626653
13921634160
13921639775
13921645940
13921652959
13921659672
13921666142
13921671757
13921679204
13921686833
13921692387
13921699589
13921704655
13921711857
13921720402
13921724797
13921732731
13921737980
13921744755
13921752629
13921757756
13921767888
13921774418
13921781376
13921790470
13921796879
13921803959
13921811894
13921818302
13921825199
13921830326
13921838261
13921844303
13921851505
13921859135
13921865910
13921872074
13921879032
13921885197
13921893742
13921900822
13921909733
13921915653
13921924870
13921932743
13921945438
13921953556
13921960758
13921969303
13921976261
13921984318
13921992924
13921998051
13922004215
13922008304
13922014896
13922021671
13922027408
13922032596
13922036869
13922042301
13922047062
13922054020
13922059818
13922064518
13922069706
13922074344
13922080753
13922086734
13922092716
13922098819
13922103763
13922108585
13922113651
13922118778
13922124088
13922128665
13922135379
13922141727
13922148929
13922152652
13922158512
13922162113
13922168033
13922172183
13922177432
13922185123
13922190128
13922196841
13922202335
13922208133
13922212833
13922218753
13922224551
13922230594
13922235721
13922241763
13922247501
13922253543
13922257938
13922264834
13922271670
13922277835
13922283267
13922289981
13922294192
13922299258
13922305118
13922310855
13922318850
13922324038
13922333194
13922339175
13922346988
13922352115
13922357364
13922362490
13922369387
13922375613
13922384646
13922392215
13922399356
13922405337
13922411502
13922417422
13922423525
13922429568
13922436587
13922442324
13922447634
13922452639
13922457034
13922462344
13922467898
13922474856
13922480837
13922487063
13922492617
13922499026
13922504885
13922510806
13922517336
13922524538
13922529299
13922535647
13922540713
13922546328
13922551028
13922558657
13922562258
13922571108
13922576052
13922584170
13922588198
13922595766
13922600222
13922606142
13922610598
13922619631
13922624697
13922630129
13922634218
13922641054
13922645571
13922651491
13922657534
13922665163
13922670107
13922676577
13922682985
13922688356
13922692812
13922698549
13922704164
13922708925
13922716493
13922721865
13922728334
13922733095
13922738954
13922743776
13922750734
13922755800
13922762209
13922768984
13922775148
13922780214
13922785768
13922791628
13922797182
13922800172
13922809999
13922815004
13922822267
13922826784
13922833925
13922839540
13922845766
13922854555
13922862611
13922872011
13922877931
13922887147
13922893617
13922902467
13922907167
13922916932
13922925477
13922932802
13922940858
13922948488
13922955140
13922962709
13922971681
13922980348
13922984559
13922997010
13923005128
13923013246
13923019776
13923028504
13923034791
13923043214
13923052186
13923061280
13923071046
13923076051
13923085572
13923094056
13923100159
13923107789
13923115052
13923124024
13923133240
13923140565
13923147523
13923154664
13923163392
13923171387
13923178834
13923185364
13923195313
13923200501
13923209961
13923217591
13923225220
13923231873
13923239380
13923245423
13923255738
13923265320
13923270935
13923277100
13923287659
13923293518
13923302857
13923309204
13923319275
13923325623
13923334839
13923340821
13923348389
13923357666
13923363464
13923372376
13923380310
13923387878
13923394653
13923404419
13923411072
13923418640
13923426697
13923434082
13923441772
13923452331
13923459595
13923467712
13923474060
13923481567
13923490295
13923498413
13923505188
13923513427
13923522766
13923528381
13923536499
13923544067
13923550476
13923557922
13923566894
13923576355
13923583007
13923592163
13923598266
13923605346
13923614135
13923620422
13923629272
13923636901
13923644164
13923652648
13923659911
13923667114
13923674682
13923681884
13923690002
13923699035
13923707336
13923716308
13923723937
13923728088
13923737609
13923743652
13923753539
13923759521
13923770812
13923777404
13923786986
13923794005
13923803222
13923809630
13923817565
13923826354
13923835936
13923842955
13923851317
13923860778
13923867125
13923877257
13923883361
13923892211
13923900267
13923909545
13923916014
13923925963
13923935668
13923942565
13923951903
13923958495
13923967040
13923976622
13923983214
13923993285
13924002257
13924008665
13924017210
13924025267
13924031676
13924042540
13924050535
13924058165
13924065794
13924074339
13924081480
13924089720
13924099791
13924108214
13924116881
13924124815
13924132750
13924140318
13924147764
13924153502
13924159666
13924172361
13924176756
13924187132
13924193052
13924202452
13924208433
13924217893
13924224546
13924232176
13924241575
13924248350
13924255552
13924263242
13924271909
13924279539
13924286497
13924293333
13924298338
13924304502
13924311338
13924316343
13924323179
13924329221
13924333799
13924342039
13924345335
13924353696
13924358823
13924364683
13924370542
13924376462
13924383848
13924389280
13924394712
13924400815
13924404966
13924411069
13924415586
13924421933
13924429685
13924438169
13924446714
13924450925
13924457517
13924463803
13924468991
13924475827
13924480771
13924488095
13924492795
13924500119
13924505002
13924513608
13924519162
13924528256
13924534055
13924539975
13924545835
13924552060
13924558530
13924563229
13924568356
13924579526
13924585507
13924590634
13924595822
13924601315
13924606015
13924612057
13924618771
13924625790
13924631222
13924636716
13924641843
13924647519
13924653134
13924658139
13924662472
13924670590
13924673703
13924681271
13924685727
13924691769
13924696225
13924702694
13924708066
13924714108
13924721432
13924726986
13924732052
13924737790
13924744076
13924749203
13924754879
13924761776
13924767392
13924773922
13924779354
13924784787
13924789913
13924795162
13924801205
13924807431
13924813229
13924818539
13924824032
13924830563
13924836544
13924841488
13924847103
13924853512
13924859860
13924865109
13924870663
13924876827
13924883114
13924887936
13924894650
13924899105
13924906368
13924911312
13924917660
13924924129
13924929989
13924934444
13924940609
13924948055
13924955013
13924962398
13924968441
13924974117
13924978145
13924986324
13924990536
13924996639
13925002376
13925011348
13925016964
13925023067
13925027950
13925034847
13925039425
13925045772
13925053157
13925059749
13925067257
13925071407
13925078914
13925084346
13925090450
13925095638
13925102291
13925108089
13925116451
13925122005
13925132198
13925139095
13925145992
13925153255
13925158199
13925163814
13925172481
13925181392
13925189143
13925195857
13925203914
13925208003
13925220210
13925227718
13925236079
13925240413
13925251887
13925260371
13925267818
13925274348
13925282527
13925288630
13925299373
13925305964
13925316523
13925323359
13925331294
13925337825
13925344294
13925353328
13925364070
13925370234
13925376460
13925385188
13925392512
13925399958
13925407405
13925416316
13925423823
13925431391
13925440730
13925447993
13925455561
13925462458
13925469477
13925477656
13925486201
13925494624
13925501582
13925509272
13925518183
13925526118
13925534296
13925542963
13925550532
13925559077
13925567866
13925576105
13925583063
13925590754
13925596857
13925606318
13925612543
13925624994
13925629328
13925639215
13925645868
13925654047
13925663385
13925668756
13925677668
13925687799
13925694635
13925703913
13925711969
13925719599
13925725885
13925733698
13925742853
13925751093
13925760614
13925766596
13925775507
13925782587
13925789423
13925795587
13925805048
13925814325
13925823663
13925830926
13925837884
13925844537
13925852838
13925859918
13925869440
13925876886
13925884881
13925892450
13925900140
13925907831
13925915948
13925923394
13925931329
13925939508
13925949334
13925958795
13925964837
13925973687
13925981744
13925988214
13925996392
13926005487
13926015191
13926022393
13926032403
13926038812
13926044915
13926058770
13926066338
13926075250
13926085503
13926092095
13926100457
13926106622
13926114495
13926123284
13926128716
13926137627
13926145318
13926155511
13926170586
13926188653
13926202935
13926215996
13926226799
13926239006
13926249504
13926261467
13926272148
13926280815
13926288689
13926296196
13926303765
13926313042
13926320366
13926326653
13926334404
13926341789
13926348686
13926355766
13926362969
13926371086
13926378349
13926385613
13926391350
13926399223
13926404778
13926413017
13926418693
13926429375
13926436638
13926445122
13926453483
13926461052
13926467705
13926477836
13926485283
13926492729
13926501579
13926509453
13926517875
13926525627
13926533989
13926541801
13926549797
13926557060
13926564811
13926571647
13926577751
13926585685
13926592887
13926600395
13926607597
13926615287
13926621696
13926629203
13926633232
13926644462
13926653068
13926659110
13926665580
13926672721
13926678275
13926684745
13926690482
13926696952
13926702445
13926710502
13926716483
13926722770
13926728446
13926734122
13926739921
13926747001
13926752677
13926759635
13926764701
13926769889
13926775687
13926783866
13926789176
13926796805
13926801688
13926806632
13926812186
13926818412
13926822928
13926830130
13926835196
13926841666
13926845633
13926851615
13926856742
13926861747
13926867240
13926872184
13926877921
13926884024
13926890189
13926895804
13926900748
13926907523
13926912589
13926919180
13926925223
13926931449
13926937064
13926941763
13926946402
13926951651
13926959525
13926964285
13926971610
13926976614
13926982474
13926988821
13926994742
13926999258
13927006522
13927010672
13927017569
13927023428
13927029227
13927035269
13927040640
13927046011
13927053396
13927060599
13927066885
13927070852
13927078970
13927083792
13927088431
13927096304
13927101248
13927108206
13927113516
13927119192
13927124807
13927130178
13927135733
13927140860
13927145498
13927152395
13927157461
13927163320
13927168386
13927175711
13927180776
13927186514
13927192007
13927199941
13927207388
13927212698
13927218008
13927223501
13927230764
13927235525
13927242361
13927247366
13927253286
13927259878
13927263845
13927269094
13927275381
13927279775
13927287038
13927290395
13927297231
13927303274
13927307546
13927314016
13927318716
13927324514
13927336477
13927343191
13927348379
13927354177
13927361135
13927367849
13927375112
13927379079
13927388723
13927394887
13927401662
13927408071
13927413198
13927418203
13927424062
13927429860
13927436574
13927442067
13927447744
13927453359
13927456777
13927463308
13927469533
13927474965
13927482350
13927487355
13927492177
13927498647
13927503285
13927508534
13927512868
13927519521
13927525136
13927533009
13927540761
13927548879
13927553273
13927563832
13927571828
13927579884
13927584401
13927594106
13927601247
13927611562
13927618153
13927624196
13927633412
13927640248
13927648244
13927658070
13927665455
13927673024
13927680470
13927686696
13927695668
13927704335
13927710438
13927716664
13927728566
13927735768
13927743946
13927750538
13927759693
13927766285
13927773121
13927782276
13927788380
13927798573
13927804920
13927814991
13927822132
13927829762
13927834583
13927842884
13927846974
13927859242
13927867359
13927875294
13927883717
13927890797
13927897388
13927905994
13927912952
13927921924
13927929554
13927937244
13927944446
13927953358
13927961780
13927967762
13927975879
13927982898
13927990833
13927998096
13928007251
13928014942
13928022937
13928029895
13928035266
13928045642
13928055469
13928063159
13928072681
13928080554
13928089710
13928097278
13928105152
13928113758
13928123096
13928130725
13928138965
13928146655
13928152393
13928164050
13928174609
13928182056
13928191272
13928198657
13928207019
13928215442
13928224597
13928232654
13928239368
13928249866
13928256640
13928264758
13928273974
13928280688
13928287707
13928299365
13928308276
13928314990
13928321765
13928331103
13928340747
13928347766
13928358325
13928365161
13928374865
13928381213
13928390917
13928398974
13928407092
13928414111
13928424731
13928430773
13928439562
13928447436
13928455859
13928470324
13928479418
13928487780
13928496935
13928501696
13928511828
13928518359
13928528918
13928533617
13928546496
13928553454
13928560717
13928570421
13928577562
13928585070
13928594286
13928601854
13928611376
13928618944
13928628222
13928636583
13928645311
13928655748
13928661974
13928672716
13928682054
13928689684
13928699510
13928706957
13928715746
13928723314
13928730272
13928737840
13928745531
13928754381
13928761522
13928769518
13928778123
13928785936
13928790025
13928799974
13928806505
13928817735
13928825487
13928834276
13928843736
13928852281
13928858323
13928866258
13928874803
13928881639
13928891343
13928899888
13928905870
13928914781
13928920823
13928929307
13928936570
13928946214
13928954087
13928962266
13928970201
13928976914
13928986619
13928992356
13929000657
13929009995
13929018662
13929025681
13929034837
13929039292
13929046677
13929051072
13929057847
13929064561
13929069505
13929076096
13929080369
13929085557
13929092088
13929097398
13929103013
13929109544
13929115403
13929122422
13929129319
13929135300
13929140793
13929146103
13929150986
13929157212
13929162827
13929169968
13929173752
13929180405
13929184861
13929189988
13929196396
13929202073
13929206955
13929214096
13929218613
13929224900
13929229721
13929236435
13929242905
13929249314
13929253708
13929260300
13929265549
13929270737
13929276108
13929282334
13929287888
13929293137
13929300034
13929305771
13929310227
13929315354
13929320236
13929326279
13929332443
13929337265
13929343857
13929349899
13929355515
13929361191
13929366318
13929371323
13929379868
13929384872
13929392258
13929397385
13929403122
13929408127
13929413681
13929419052
13929426437
13929432724
13929437790
13929442612
13929451156
13929456222
13929464035
13929470871
13929477157
13929484359
13929490036
13929494857
13929501632
13929507614
13929513168
13929517929
13929524459
13929530807
13929536300
13929542160
13929548202
13929554428
13929561264
13929568344
13929574569
13929582015
13929587753
13929592880
13929601119
13929608199
13929614791
13929619369
13929626815
13929631454
13929637801
13929644210
13929649703
13929653732
13929658920
13929665389
13929672652
13929677474
13929682601
13929688277
13929693832
13929696822
13929704269
13929708419
13929717147
13929721969
13929728866
13929733504
13929745589
13929750289
13929756820
13929762923
13929769088
13929774032
13929780440
13929784957
13929790328
13929797286
13929802352
13929808822
13929813887
13929820723
13929826766
13929831832
13929837142
13929843123
13929848189
13929853926
13929860823
13929866194
13929873030
13929879195
13929882857
13929889449
13929897811
13929905684
13929913924
13929921675
13929926131
13929936751
13929942854
13929951827
13929958174
13929967146
13929973067
13929984236
13929990706
13930000105
13930006148
13930014021
13930021406
13930029768
13930036787
13930043501
13930053328
13930060774
13930067732
13930074263
13930083601
13930089888
13930098066
13930105391
13930117537
13930124189
13930134138
13930139692
13930149275
13930156172
13930163801
13930167829
13930180830
13930185224
13930195783
13930202986
13930211103
13930216963
13930225691
13930231855
13930244062
13930250715
13930260053
13930266218
13930272749
13930282087
13930288801
13930298383
13930305646
13930316144
13930323225
13930332319
13930338910
13930346418
13930354047
13930361554
13930370527
13930377851
13930385236
13930394758
13930400312
13930407819
13930416608
13930424787
13930432294
13930440412
13930449079
13930457196
13930464154
13930471845
13930479901
13930487775
13930495709
13930504682
13930513287
13930520795
13930526959
13930534833
13930541242
13930550519
13930556622
13930567975
13930574445
13930582867
13930589215
13930597394
13930604169
13930612897
13930619671
13930626019
13930636761
13930642926
13930653302
13930659833
13930667950
13930675946
13930683514
13930691266
13930700177
13930708294
13930716046
13930723309
13930732769
13930743878
13930753033
13930761395
13930768231
13930774884
13930784527
13930790631
13930799420
13930808331
13930813213
13930822552
13930833416
13930840069
13930849041
13930855022
13930862286
13930869549
13930876629
13930886455
13930891766
13930902813
13930911541
13930919536
13930925518
13930933697
13930940655
13930948345
13930957317
13930966594
13930974041
13930982097
13930990154
13930997722
13931004253
13931012371
13931023845
13931035076
13931042644
13931050884
13931059246
13931067729
13931075542
13931084575
13931093425
13931102275
13931111003
13931120403
13931124980
13931137126
13931145549
13931154216
13931163127
13931172160
13931177104
13931187480
13931194133
13931204265
13931212504
13931220439
13931225261
13931235209
13931242228
13931251323
13931260356
13931266093
13931273906
13931282695
13931293193
13931299296
13931309367
13931316081
13931325846
13931331767
13931341593
13931350138
13931355509
13931362162
13931366618
13931373515
13931380107
13931384989
13931392130
13931398234
13931401713
13931411479
13931417521
13931422892
13931429118
13931434672
13931440836
13931446330
13931455973
13931461954
13931467631
13931473551
13931479777
13931485148
13931490885
13931497233
13931503580
13931509867
13931515055
13931520853
13931526713
13931532267
13931537638
13931545389
13931551676
13931556315
13931562784
13931568705
13931574320
13931580240
13931585978
13931591959
13931598246
13931604410
13931609842
13931617289
13931621744
13931627726
13931635965
13931644205
13931651041
13931658182
13931663187
13931669840
13931674112
13931681375
13931686746
13931694315
13931698709
13931705057
13931709573
13931716898
13931722513
13931727457
13931736917
13931742715
13931750101
13931754678
13931760416
13931765909
13931772134
13931780679
13931787149
13931795694
13931802408
13931808633
13931814798
13931820657
13931825479
13931831338
13931836648
13931843423
13931847818
13931853250
13931859048
13931864785
13931871499
13931877542
13931880777
13931893594
13931901834
13931912271
13931917947
13931923501
13931930398
13931936380
13931941506
13931947915
13931953408
13931959085
13931964700
13931969827
13931976968
13931981545
13931987100
13931992776
13932000833
13932006143
13932011819
13932017983
13932024148
13932027017
13932034341
13932038796
13932046365
13932051064
13932059182
13932064614
13932074990
13932079324
13932085244
13932091714
13932100075
13932104836
13932109902
13932116921
13932122292
13932127358
13932133278
13932139382
13932146401
13932151711
13932156960
13932163857
13932169228
13932175087
13932180031
13932186318
13932193398
13932199562
13932204018
13932210976
13932215371
13932221657
13932228005
13932232216
13932236611
13932245949
13932252358
13932261391
13932269448
13932274208
13932283547
13932290260
13932299111
13932306801
13932313942
13932322121
13932329445
13932337685
13932344826
13932353371
13932360329
13932367958
13932376625
13932385719
13932393715
13932401893
13932410316
13932416786
13932426552
13932431984
13932441993
13932448158
13932457985
13932465126
13932473549
13932477760
13932488807
13932496742
13932505592
13932512855
13932520729
13932526893
13932535987
13932542152
13932551490
13932559486
13932568763
13932578224
13932583167
13932592079
13932600623
13932606971
13932615089
13932622047
13932630409
13932640235
13932647620
13932655006
13932662330
13932670570
13932677405
13932685035
13932693946
13932702308
13932709937
13932717872
13932726722
13932734351
13932741248
13932749488
13932753455
13932765967
13932774878
13932782996
13932790259
13932797950
13932804053
13932810828
13932819007
13932832007
13932836585
13932846961
13932853003
13932861304
13932870825
13932877173
13932886023
13932892005
13932901526
13932909583
13932917273
13932925635
13932932532
13932939001
13932946570
13932954932
13932963904
13932972510
13932980933
13932988867
13932996435
13933004553
13933010107
13933016211
13933026098
13933032812
13933042273
13933048376
13933057287
13933066076
13933073584
13933079687
13933090796
13933097265
13933105383
13933112097
13933120153
13933126989
13933135229
13933142248
13933151342
13933158850
13933166174
13933175878
13933182531
13933190710
13933197057
13933204687
13933213781
13933222448
13933230322
13933238683
13933246557
13933254186
13933260290
13933268835
13933279882
13933288488
13933293249
13933303380
13933312475
13933320775
13933328954
13933336645
13933340795
13933352636
13933360326
13933366124
13933374608
13933380224
13933389135
13933396276
13933403478
13933412328
13933422277
13933429662
13933438939
13933446263
13933453160
13933461034
13933468663
13933474828
13933485692
13933491795
13933501378
13933508031
13933516148
13933523412
13933531041
13933539891
13933548619
13933555333
13933563206
13933569554
13933579259
13933585179
13933594151
13933602513
13933611119
13933617650
13933626072
13933634678
13933639805
13933649205
13933656956
13933663792
13933676182
13933682835
13933688816
13933697850
13933702610
13933708592
13933713047
13933719151
13933723912
13933731724
13933737278
13933742588
13933747776
13933752537
13933757664
13933761570
13933768650
13933774571
13933779820
13933784763
13933790013
13933795384
13933801548
13933806431
13933813572
13933819798
13933825657
13933829380
13933835423
13933840916
13933845310
13933851963
13933859714
13933863926
13933869724
13933875462
13933881504
13933886509
13933890964
13933900486
13933906772
13933911838
13933918369
13933924595
13933932041
13933937961
13933943088
13933949009
13933953891
13933961704
13933966770
13933973728
13933980198
13933986301
13933993503
13933999546
13934004795
13934010105
13934015720
13934021396
13934027378
13934032688
13934037021
13934043918
13934048618
13934055820
13934060275
13934067783
13934072788
13934077487
13934084079
13934092685
13934098850
13934104465
13934109226
13934115451
13934120517
13934126743
13934132724
13934140353
13934145236
13934152377
13934157321
13934162936
13934169772
13934175754
13934180270
13934188388
13934191562
13934199008
13934203464
13934210788
13934215182
13934222384
13934227206
13934235629
13934240390
13934247043
13934253390
13934259250
13934263766
13934271273
13934275851
13934282992
13934289401
13934295016
13934300998
13934306491
13934310885
13934317233
13934323458
13934330233
13934335665
13934341342
13934347445
13934353060
13934357455
13934363558
13934368075
13934375765
13934380831
13934387667
13934392611
13934399508
13934407137
13934413851
13934418185
13934427096
13934431796
13934438631
13934443331
13934450106
13934454684
13934461459
13934466036
13934473910
13934480562
13934486300
13934491366
13934498324
13934503817
13934509493
13934514803
13934525484
13934532564
13934540011
13934545992
13934551058
13934558687
13934566011
13934573824
13934584627
13934594088
13934601595
13934609285
13934618318
13934624544
13934633760
13934642366
13934651644
13934659761
13934665865
13934673738
13934682894
13934691316
13934697359
13934708955
13934715486
13934724702
13934733003
13934740694
13934746797
13934755708
13934763948
13934772920
13934779329
13934787813
13934796541
13934804231
13934810396
13934818208
13934827058
13934836458
13934842988
13934849824
13934858735
13934867585
13934873689
13934881807
13934890718
13934899324
13934905976
13934915193
13934921357
13934929170
13934938081
13934944856
13934953950
13934961701
13934971223
