14098071941
14098075542
14098079143
14098082439
14098086040
14098089885
14098093608
14098097148
14098100932
14098105083
14098109233
14098112956
14098117595
14098121989
14098125834
14098131145
14098136027
14098140727
14098146037
14098152568
14098159099
14098163798
14098169475
14098176127
14098182414
14098187907
14098194011
14098200358
14098206157
14098212382
14098218425
14098225260
14098232463
14098239543
14098249613
14098259135
14098267436
14098273966
14098283122
14098291361
14098298502
14098308451
14098317484
14098328837
14098337870
14098344584
14098353068
14098359293
14098365702
14098373087
14098381083
14098389445
14098398356
14098405375
14098411722
14098418497
14098424479
14098430521
14098437540
14098445109
14098450724
14098458475
14098464945
14098473246
14098481180
14098489420
14098496317
14098502970
14098508036
14098514017
14098520548
14098527811
14098533853
14098540811
14098547525
14098554666
14098560770
14098566263
14098574930
14098581217
14098587381
14098593057
14098601785
14098609903
14098616068
14098622110
14098628702
14098635049
14098641702
14098648416
14098654886
14098663004
14098670023
14098675638
14098682474
14098689126
14098694864
14098702005
14098706705
14098712625
14098719705
14098726541
14098731668
14098737588
14098742715
14098750100
14098755288
14098761026
14098766336
14098773660
14098779641
14098786416
14098792459
14098797830
14098804666
14098810403
14098816812
14098824136
14098831094
14098838174
14098843972
14098850015
14098855813
14098861978
14098868081
14098874063
14098883645
14098890725
14098898843
14098907815
14098914346
14098923013
14098934426
14098940163
14098946938
14098956277
14098965798
14098973000
14098981911
14098987588
14098995949
14099004616
14099014809
14099023232
14099028786
14099035195
14099041115
14099048256
14099054848
14099062233
14099068276
14099077126
14099081337
14099088662
14099096169
14099101601
14099108254
14099116188
14099123452
14099129738
14099135414
14099141518
14099149086
14099155434
14099162026
14099168862
14099176003
14099182106
14099189491
14099195656
14099200295
14099208107
14099214455
14099221047
14099226601
14099233681
14099238930
14099245827
14099251137
14099258827
14099264748
14099273354
14099280617
14099288185
14099295448
14099303322
14099310524
14099316749
14099326393
14099332863
14099340187
14099346657
14099353370
14099361244
14099367958
14099373451
14099380714
14099390480
14099397682
14099404945
14099412269
14099419044
14099426124
14099434913
14099442237
14099449439
14099457740
14099465553
14099472694
14099481483
14099487892
14099494117
14099501136
14099509254
14099516517
14099523048
14099529762
14099536964
14099545264
14099555579
14099562232
14099567786
14099575904
14099581397
14099587195
14099593543
14099599708
14099603980
14099614051
14099619300
14099625342
14099630652
14099636146
14099640967
14099645728
14099652930
14099657752
14099664466
14099670020
14099675696
14099681372
14099686683
14099692237
14099697058
14099702185
14099706702
14099710669
14099715491
14099720252
14099726172
14099731116
14099739783
14099743750
14099750769
14099756385
14099760230
14099765051
14099771277
14099776770
14099783423
14099788550
14099792761
14099797400
14099804053
14099809241
14099814490
14099818884
14099825354
14099830542
14099835669
14099839392
14099846289
14099851599
14099856238
14099861121
14099868384
14099873511
14099877051
14099883215
14099889624
14099895056
14099898657
14099903540
14099909582
14099915747
14099921728
14099927832
14099933996
14099938513
14099944494
14099949865
14099956274
14099961950
14099968237
14099973181
14099977209
14099983191
14099989050
14099994055
14099999304
14100004675
14100010412
14100015295
14100020056
14100026098
14100031164
14100038610
14100042456
14100049230
14100054357
14100060583
14100065893
14100071569
14100077062
14100080969
14100087927
14100094518
14100101476
14100106054
14100115087
14100120702
14100126562
14100134557
14100141210
14100148168
14100155920
14100163183
14100169897
14100175695
14100183019
14100189733
14100194799
14100200231
14100207433
14100211950
14100217992
14100224035
14100229406
14100235204
14100239782
14100245153
14100249852
14100254918
14100260106
14100266088
14100271276
14100276952
14100284826
14100289098
14100293798
14100299169
14100305333
14100308995
14100315709
14100320287
14100326635
14100331822
14100337804
14100343053
14100346471
14100353246
14100358373
14100362767
14100369603
14100375646
14100382543
14100389867
14100394689
14100404698
14100409764
14100418858
14100426671
14100434300
14100442601
14100450597
14100458104
14100465855
14100473729
14100480870
14100488988
14100496495
14100505040
14100513707
14100521947
14100528416
14100536107
14100543309
14100551610
14100561924
14100567906
14100575779
14100583165
14100591160
14100599217
14100606724
14100613377
14100624180
14100631932
14100638767
14100645420
14100652928
14100659947
14100668980
14100675633
14100685276
14100692112
14100700047
14100706822
14100711948
14100721775
14100729282
14100737583
14100742771
14100753696
14100759495
14100769749
14100774753
14100785374
14100790745
14100804416
14100812656
14100822727
14100830234
14100841587
14100849094
14100857578
14100865757
14100877964
14100886142
14100893467
14100901950
14100909946
14100917636
14100925266
14100933628
14100940402
14100948215
14100955844
14100963657
14100971652
14100978732
14100987399
14100994907
14101004001
14101011691
14101019016
14101027194
14101033542
14101042270
14101047641
14101057040
14101062595
14101072726
14101079196
14101086886
14101091525
14101099948
14101107516
14101114230
14101122165
14101132541
14101138034
14101146212
14101153842
14101163119
14101168002
14101177890
14101183078
14101194064
14101199496
14101209567
14101214450
14101224032
14101231967
14101237948
14101247958
14101255709
14101263583
14101273043
14101278353
14101286593
14101294772
14101302767
14101311129
14101318636
14101327120
14101335543
14101343478
14101350680
14101358553
14101366305
14101375887
14101384737
14101392672
14101401156
14101406527
14101415987
14101424227
14101430941
14101441683
14101450472
14101462679
14101472933
14101483431
14101493990
14101502047
14101511629
14101519503
14101526827
14101534273
14101541841
14101549654
14101559236
14101567110
14101573457
14101583284
14101593843
14101601289
14101612642
14101619966
14101626436
14101635042
14101643282
14101651643
14101660860
14101668550
14101674776
14101680696
14101688692
14101694612
14101701997
14101707734
14101715242
14101721162
14101727937
14101733674
14101738435
14101742463
14101748628
14101756624
14101762483
14101767488
14101770845
14101780366
14101785493
14101790437
14101796296
14101802400
14101807588
14101811738
14101816499
14101821260
14101826753
14101832246
14101837922
14101843782
14101849031
14101853181
14101857820
14101863740
14101868806
14101873567
14101879487
14101884919
14101890595
14101896211
14101901215
14101905976
14101911286
14101915803
14101920747
14101927583
14101931733
14101936860
14101941499
14101946748
14101952058
14101956635
14101961579
14101967316
14101972565
14101978913
14101983796
14101987946
14101992646
14101997529
14102002900
14102009797
14102014924
14102018830
14102024628
14102028718
14102033417
14102038544
14102044587
14102049592
14102055146
14102061554
14102066986
14102072602
14102078461
14102083405
14102089020
14102094818
14102098786
14102104401
14102109711
14102114472
14102119416
14102128205
14102134125
14102142426
14102148285
14102155182
14102161530
14102167694
14102174957
14102181732
14102188080
14102195282
14102200348
14102205231
14102210236
14102214874
14102220245
14102227325
14102233185
14102238617
14102243988
14102248077
14102252960
14102258697
14102265350
14102272125
14102277313
14102283722
14102289276
14102293426
14102298797
14102303436
14102308929
14102316742
14102323150
14102328644
14102333893
14102339081
14102343719
14102349273
14102355072
14102362213
14102367462
14102371673
14102378936
14102385833
14102391388
14102397186
14102403472
14102410491
14102416412
14102422393
14102426910
14102433258
14102439788
14102443633
14102450225
14102456756
14102462615
14102468597
14102475250
14102480621
14102487090
14102493865
14102498687
14102504485
14102511321
14102517547
14102523711
14102529082
14102535003
14102541045
14102548247
14102554900
14102566253
14102572356
14102581512
14102589385
14102597442
14102603728
14102611785
14102619658
14102626983
14102635711
14102643340
14102651702
14102658477
14102664031
14102673247
14102681853
14102691314
14102696379
14102704558
14102711821
14102717559
14102727568
14102734404
14102742278
14102748931
14102756560
14102762663
14102769866
14102777129
14102785368
14102792021
14102799468
14102806670
14102814970
14102823637
14102829985
14102838408
14102846648
14102853728
14102862089
14102868559
14102876677
14102885771
14102893217
14102899382
14102906828
14102913176
14102920134
14102929838
14102934477
14102944731
14102952665
14102960600
14102967436
14102974211
14102982450
14102989225
14102996611
14103004850
14103011137
14103019316
14103029814
14103034757
14103043485
14103050932
14103057157
14103064604
14103073698
14103080351
14103088957
14103097868
14103105863
14103113920
14103120817
14103129423
14103137907
14103146940
14103154996
14103160123
14103170133
14103178251
14103186918
14103194242
14103203275
14103210416
14103215848
14103223905
14103232938
14103240445
14103248746
14103257230
14103265531
14103271878
14103279813
14103287564
14103296292
14103302701
14103309842
14103318265
14103326200
14103334989
14103342008
14103350614
14103358670
14103366910
14103373441
14103381497
14103388272
14103399503
14103406033
14103414700
14103422452
14103430325
14103437466
14103446561
14103454068
14103460355
14103468594
14103476956
14103486966
14103492154
14103501919
14103509610
14103518399
14103526150
14103533719
14103539944
14103548489
14103555813
14103564175
14103570889
14103579068
14103586209
14103595242
14103602017
14103611233
14103619473
14103628018
14103634670
14103641934
14103651272
14103659634
14103668423
14103676602
14103684414
14103690884
14103699673
14103707912
14103716579
14103724148
14103733242
14103740078
14103748745
14103756130
14103763637
14103772488
14103777187
14103786953
14103792263
14103802395
14103808681
14103815090
14103820034
14103830410
14103835598
14103843959
14103854091
14103862819
14103870082
14103876918
14103885707
14103895534
14103902126
14103906276
14103917812
14103925624
14103931789
14103941371
14103948451
14103955959
14103964198
14103972804
14103979396
14103986171
14103992275
14103999965
14104005641
14104011623
14104016017
14104024623
14104029323
14104036647
14104042812
14104046718
14104052821
14104058559
14104064662
14104069179
14104074306
14104080165
14104085597
14104092189
14104099147
14104108058
14104112147
14104119471
14104123073
14104129481
14104134852
14104139796
14104144008
14104152552
14104158107
14104163295
14104168971
14104174098
14104178920
14104185023
14104190699
14104197718
14104203089
14104211207
14104218104
14104223414
14104231410
14104238246
14104243189
14104250941
14104257838
14104263697
14104270899
14104275965
14104281031
14104289942
14104294276
14104301600
14104306666
14104313319
14104316981
14104324671
14104331141
14104337916
14104344141
14104348231
14104354151
14104359278
14104364893
14104369898
14104375269
14104381556
14104386805
14104391993
14104397059
14104404444
14104409571
14104415247
14104419886
14104425440
14104431299
14104436304
14104445459
14104451807
14104456690
14104461573
14104467310
14104473291
14104480005
14104486231
14104490869
14104497827
14104503382
14104509302
14104514063
14104520288
14104526331
14104532129
14104538843
14104543726
14104549890
14104556177
14104562036
14104567041
14104572900
14104579065
14104585840
14104591089
14104597803
14104604272
14104610925
14104617029
14104623926
14104629114
14104635156
14104641260
14104647119
14104651636
14104658166
14104664453
14104670434
14104674463
14104680017
14104686975
14104692590
14104699060
14104704675
14104710656
14104716577
14104722986
14104728906
14104735864
14104742212
14104748071
14104753137
14104758325
14104764367
14104770532
14104776574
14104783349
14104789819
14104795556
14104800256
14104806542
14104812280
14104817834
14104823510
14104828698
14104835046
14104840783
14104848107
14104853478
14104860314
14104866235
14104871301
14104878747
14104888024
14104897790
14104904870
14104913476
14104921899
14104928124
14104937585
14104945336
14104955224
14104963402
14104972802
14104979699
14104987877
14104995141
14105003808
14105010582
14105018212
14105026574
14105034325
14105042626
14105049767
14105056115
14105064110
14105072533
14105080956
14105087914
14105096276
14105104759
14105111717
14105119408
14105125817
14105133507
14105145287
14105153221
14105162193
14105173363
14105182640
14105192467
14105205528
14105215599
14105226158
14105234581
14105243736
14105250572
14105257530
14105267845
14105275780
14105283287
14105291588
14105298729
14105306785
14105315819
14105320457
14105329673
14105336387
14105344383
14105354332
14105362205
14105370323
14105378746
14105386253
14105392417
14105399131
14105408714
14105416892
14105422813
14105435264
14105442344
14105449546
14105457420
14105464683
14105473655
14105481040
14105492393
14105500877
14105509910
14105516074
14105525657
14105533530
14105542503
14105548789
14105557761
14105563987
14105573264
14105579612
14105588279
14105596763
14105605735
14105615806
14105622947
14105631247
14105638755
14105648032
14105656333
14105664023
14105672568
14105682029
14105688376
14105698325
14105707175
14105716513
14105725669
14105732627
14105741965
14105750388
14105759970
14105767355
14105776389
14105785910
14105793478
14105800070
14105808920
14105815939
14105823935
14105831503
14105840475
14105849386
14105855368
14105864035
14105874594
14105881064
14105889181
14105897177
14105906210
14105912436
14105920370
14105928122
14105937094
14105944296
14105952230
14105960958
14105968405
14105978292
14105985678
14105993185
14106000265
14106007955
14106015158
14106024496
14106031271
14106039144
14106047445
14106056478
14106063009
14106071615
14106078817
14106086568
14106094930
14106100546
14106111410
14106119344
14106126119
14106133749
14106142965
14106149923
14106158224
14106166402
14106171773
14106180562
14106187520
14106197042
14106205709
14106214437
14106220845
14106229390
14106235860
14106244588
14106253316
14106260335
14106268453
14106275838
14106281331
14106292928
14106300069
14106306417
14106315999
14106326924
14106335164
14106341817
14106348592
14106354207
14106360494
14106366475
14106372701
14106381551
14106386067
14106397481
14106403584
14106412373
14106416219
14106424458
14106428120
14106435811
14106440266
14106447896
14106453938
14106459004
14106464741
14106471150
14106475606
14106483479
14106489888
14106497456
14106500874
14106506550
14106511616
14106518391
14106523335
14106531147
14106536946
14106542317
14106546833
14106552388
14106557942
14106564473
14106570515
14106575520
14106581135
14106586567
14106591999
14106597798
14106603718
14106609455
14106615071
14106619526
14106624653
14106628803
14106633747
14106638325
14106642536
14106647602
14106652241
14106659138
14106664692
14106669697
14106674519
14106679401
14106684345
14106688984
14106693745
14106697346
14106701740
14106708881
14106713764
14106718769
14106722248
14106733478
14106738117
14106742512
14106747639
14106751911
14106757465
14106762409
14106768024
14106773334
14106779804
14106784992
14106790119
14106796833
14106802448
14106810016
14106816303
14106821735
14106826740
14106831318
14106838031
14106844684
14106852802
14106857380
14106863788
14106869892
14106876728
14106882404
14106888629
14106893390
14106899494
14106905902
14106911823
14106917987
14106923114
14106929035
14106933612
14106939288
14106945148
14106952167
14106957294
14106963397
14106969806
14106975238
14106980182
14106985370
14106994159
14107000079
14107006183
14107012469
14107016986
14107023334
14107029376
14107034259
14107041461
14107046710
14107050433
14107058490
14107062518
14107071307
14107075091
14107082721
14107091571
14107097247
14107104876
14107110919
14107117511
14107122821
14107129107
14107134173
14107142535
14107148577
14107154193
14107159320
14107163409
14107168292
14107175616
14107180682
14107186541
14107191790
14107198748
14107203875
14107211260
14107217486
14107225726
14107231829
14107242327
14107248980
14107256670
14107263445
14107271319
14107279620
14107287554
14107293719
14107302142
14107308733
14107316485
14107323199
14107330218
14107339312
14107344378
14107354510
14107360064
14107369341
14107377459
14107384844
14107391924
14107400225
14107407244
14107414263
14107422319
14107429461
14107437395
14107446184
14107450884
14107459002
14107466021
14107472429
14107480181
14107489092
14107496660
14107503984
14107511614
14107518938
14107526079
14107533464
14107542314
14107552019
14107557085
14107563982
14107573625
14107579668
14107587175
14107594316
14107601640
14107609758
14107618120
14107628374
14107635087
14107644853
14107652910
14107661943
14107671037
14107678850
14107687028
14107694902
14107704973
14107711931
14107720903
14107728227
14107736955
14107744218
14107752885
14107761674
14107770036
14107779130
14107787675
14107794816
14107804338
14107812272
14107820329
14107828935
14107835221
14107844682
14107852616
14107858476
14107865922
14107877580
14107886002
14107894059
14107901932
14107909379
14107916398
14107925187
14107932389
14107941666
14107949052
14107958085
14107965043
14107972001
14107980607
14107985428
14107993485
14108004960
14108012284
14108022477
14108030167
14108039750
14108047379
14108056900
14108064164
14108073990
14108082352
14108089127
14108097000
14108106522
14108113602
14108123245
14108130936
14108140579
14108147171
14108155472
14108163101
14108171219
14108180862
14108188675
14108195389
14108206314
14108214493
14108222549
14108230423
14108236771
14108246109
14108251907
14108260452
14108265640
14108276871
14108285232
14108294265
14108298904
14108308059
14108314773
14108322586
14108331619
14108340896
14108347610
14108355117
14108362136
14108370193
14108379714
14108387222
14108393386
14108402603
14108412307
14108417922
14108425979
14108434097
14108441543
14108449416
14108457412
14108465835
14108473464
14108481826
14108488845
14108496535
14108503677
14108511489
14108518447
14108528457
14108535903
14108543654
14108551589
14108559157
14108566787
14108574904
14108581435
14108588393
14108597731
14108604995
14108611892
14108621840
14108627639
14108635573
14108643508
14108652602
14108659438
14108665236
14108671523
14108676589
14108683242
14108691237
14108697585
14108703688
14108710585
14108716750
14108722609
14108727919
14108734633
14108739943
14108745009
14108752699
14108756911
14108764479
14108770094
14108774550
14108779677
14108785170
14108790602
14108796034
14108802138
14108809157
14108813307
14108819777
14108825331
14108830641
14108835707
14108840590
14108846266
14108852553
14108858107
14108863234
14108868300
14108872755
14108879225
14108884657
14108889784
14108895521
14108900892
14108905348
14108910475
14108915907
14108921034
14108927443
14108932631
14108940321
14108946608
14108952040
14108957960
14108962660
14108968214
14108975050
14108981275
14108987562
14108993727
14109000196
14109005750
14109011183
14109017286
14109022108
14109027113
14109035597
14109043348
14109048597
14109054701
14109062513
14109066358
14109074476
14109082105
14109088758
14109094434
14109101881
14109107740
14109114698
14109120496
14109126478
14109131971
14109139478
14109144178
14109150770
14109156873
14109162794
14109168409
14109174634
14109180005
14109185865
14109192518
14109198072
14109202710
14109208875
14109215833
14109224256
14109230603
14109236768
14109243787
14109247998
14109255933
14109262281
14109267835
14109273267
14109281873
14109285962
14109292676
14109298963
14109304517
14109311780
14109317395
14109323499
14109330396
14109335828
14109340283
14109345776
14109350903
14109357495
14109362927
14109370007
14109375623
14109381238
14109385999
14109391797
14109398694
14109404004
14109409497
14109415356
14109420483
14109426526
14109431714
14109437878
14109444104
14109450268
14109455029
14109460705
14109467969
14109474072
14109479382
14109484936
14109490429
14109496045
14109502331
14109507336
14109513806
14109520337
14109525341
14109535717
14109544201
14109550244
14109557812
14109564831
14109574475
14109587658
14109596630
14109603283
14109610241
14109617748
14109625317
14109633556
14109642101
14109648449
14109656750
14109663891
14109673534
14109681774
14109690014
14109696361
14109704479
14109713879
14109723888
14109729626
14109737194
14109747570
14109755016
14109763256
14109772167
14109779125
14109788280
14109795726
14109799755
14109809459
14109817577
14109824047
14109833934
14109841686
14109850841
14109858348
14109864635
14109874034
14109880931
14109888561
14109898143
14109906078
14109912853
14109920482
14109928844
14109937633
14109946544
14109955638
14109964793
14109970836
14109981578
14109992076
14110000987
14110008250
14110015941
14110027232
14110036693
14110043651
14110051768
14110060008
14110068248
14110077281
14110085826
14110092723
14110098887
14110106395
14110114329
14110121104
14110132212
14110137767
14110145945
14110153147
14110161692
14110171214
14110179576
14110187571
14110195811
14110204234
14110212534
14110220652
14110228831
14110235850
14110243723
14110251109
14110258677
14110266795
14110271738
14110283213
14110291636
14110297312
14110304026
14110312449
14110319773
14110328074
14110334971
14110345957
14110350901
14110360300
14110367136
14110372263
14110383921
14110389353
14110396555
14110404795
14110416086
14110421824
14110432383
14110437326
14110446482
14110454111
14110461557
14110470835
14110479380
14110487741
14110494516
14110502146
14110509165
14110517038
14110524606
14110532358
14110540720
14110549204
14110555368
14110562570
14110572153
14110579721
14110586008
14110593332
14110604318
14110609750
14110619333
14110626047
14110633127
14110640207
14110648019
14110656198
14110664438
14110674386
14110679757
14110687936
14110695627
14110703378
14110712045
14110718820
14110727365
14110736032
14110744943
14110754220
14110762704
14110770028
14110777780
14110785165
14110794137
14110801705
14110809457
14110820016
14110828256
14110835519
14110842477
14110850167
14110857491
14110867989
14110875375
14110883187
14110889901
14110897591
14110906930
14110914620
14110920785
14110929940
14110939156
14110947396
14110957039
14110964852
14110970467
14110977059
14110983284
14110989449
14110995491
14111001412
14111007332
14111012154
14111017952
14111024544
14111033089
14111038155
14111044747
14111049752
14111056771
14111062569
14111068306
14111073860
14111079903
14111085762
14111092598
14111098580
14111103157
14111109078
14111115059
14111121468
14111128121
14111134468
14111140022
14111147041
14111152107
14111158699
14111163643
14111169991
14111174812
14111181160
14111185615
14111191963
14111195137
14111201912
14111206917
14111214119
14111220100
14111225532
14111230903
14111235725
14111241340
14111247078
14111254829
14111260628
14111266060
14111271064
14111276436
14111282295
14111287788
14111293770
14111300178
14111304878
14111312690
14111318733
14111323494
14111328743
14111334602
14111338508
14111345771
14111351264
14111357673
14111362190
14111369148
14111375862
14111381416
14111387763
14111393318
14111399421
14111406989
14111412177
14111420051
14111424506
14111431098
14111437080
14111444770
14111451362
14111456123
14111461433
14111466987
14111472480
14111478217
14111484626
14111489631
14111495978
14111500495
14111505744
14111510444
14111515937
14111522956
14111528998
14111536750
14111542792
14111548163
14111553718
14111558722
14111563788
14111569892
14111575019
14111584235
14111590217
14111594611
14111600226
14111607856
14111615668
14111621955
14111627082
14111634833
14111638922
14111646125
14111650885
14111656012
14111662238
14111668341
14111672797
14111679083
14111685675
14111691535
14111696478
14111702704
14111708441
14111713995
14111719550
14111725531
14111732062
14111738226
14111743903
14111749701
14111754950
14111760504
14111766669
14111772833
14111779913
14111786322
14111792181
14111797369
14111804266
14111809271
14111817023
14111823797
14111832648
14111840094
14111847784
14111854437
14111864081
14111871405
14111876410
14111886786
14111894720
14111901007
14111909246
14111916693
14111924932
14111932928
14111940618
14111947515
14111955816
14111965155
14111973028
14111979986
14111987799
14111994756
14112002325
14112010381
14112018926
14112028265
14112037420
14112045660
14112054144
14112062261
14112070013
14112077154
14112085149
14112095342
14112100896
14112110540
14112117681
14112127080
14112134283
14112141973
14112148687
14112158758
14112166265
14112175542
14112182561
14112190740
14112197210
14112203801
14112213201
14112223638
14112230840
14112236150
14112247686
14112255132
14112261357
14112271001
14112279241
14112287847
14112297856
14112304997
14112313420
14112321233
14112328618
14112334782
14112342473
14112351079
14112358464
14112364629
14112372441
14112380437
14112385686
14112395573
14112403508
14112410222
14112418095
14112425603
14112433476
14112442265
14112449284
14112457219
14112464299
14112469975
14112479802
14112488347
14112495366
14112503300
14112509831
14112519047
14112526432
14112535343
14112542179
14112547428
14112557987
14112563298
14112573063
14112581547
14112591191
14112596501
14112606083
14112612797
14112622196
14112629887
14112638248
14112645634
14112654789
14112662846
14112672306
14112679996
14112688724
14112696903
14112704471
14112712406
14112719913
14112726810
14112735355
14112744388
14112752689
14112761234
14112769108
14112775821
14112783939
14112791019
14112798648
14112808353
14112813602
14112823368
14112830997
14112837406
14112845096
14112854312
14112861392
14112871158
14112881839
14112891971
14112897952
14112907413
14112914920
14112923587
14112931705
14112937564
14112948245
14112957645
14112964969
14112973575
14112982120
14112990359
14112998782
14113006351
14113017215
14113023623
14113030948
14113039187
14113048221
14113057010
14113063723
14113071048
14113080264
14113087344
14113096011
14113103885
14113109011
14113119998
14113126162
14113133670
14113142031
14113149783
14113158206
14113167483
14113173709
14113182620
14113189334
14113198428
14113203860
14113212954
14113220339
14113229189
14113236758
14113242068
14113250491
14113258364
14113269167
14113277163
14113284914
14113291628
14113297060
14113301150
14113308779
14113314333
14113320009
14113326723
14113332155
14113338137
14113343569
14113348818
14113354128
14113361147
14113366457
14113374880
14113381167
14113386782
14113393190
14113398073
14113403994
14113410585
14113415224
14113421999
14113428286
14113434267
14113440432
14113445742
14113451601
14113457582
14113462404
14113469850
14113474367
14113479799
14113485964
14113491518
14113497560
14113502870
14113510011
14113514894
14113520448
14113525026
14113530458
14113536928
14113542299
14113547426
14113552980
14113559267
14113567079
14113573366
14113579164
14113582948
14113589662
14113595766
14113603334
14113610353
14113615297
14113621400
14113627504
14113634279
14113639772
14113645143
14113651674
14113656923
14113660585
14113666749
14113672059
14113676393
14113681886
14113686647
14113693361
14113698793
14113705079
14113709779
14113715821
14113722047
14113725587
14113734132
14113739198
14113745362
14113751649
14113758485
14113763612
14113768800
14113774598
14113780763
14113789247
14113793885
14113799745
14113805665
14113812074
14113817689
14113823792
14113828492
14113834229
14113841126
14113846680
14113850770
14113856995
14113863099
14113868592
14113875123
14113881226
14113887513
14113892884
14113898621
14113904298
14113910889
14113916505
14113920289
14113927064
14113933716
14113940247
14113944397
14113952637
14113956421
14113962159
14113969300
14113974366
14113980286
14113988526
14113993042
14114000306
14114005677
14114015442
14114025879
14114031189
14114038880
14114043701
14114050965
14114055542
14114062073
14114068054
14114072510
14114078858
14114083801
14114089111
14114094910
14114099182
14114105896
14114111511
14114116272
14114123108
14114129273
14114135315
14114140259
14114147827
14114155640
14114165771
14114174438
14114183838
14114190735
14114199158
14114206970
14114213989
14114222595
14114231933
14114239624
14114250122
14114257812
14114266723
14114274536
14114279663
14114288696
14114297180
14114305603
14114310852
14114319885
14114326965
14114336059
14114343811
14114349060
14114357604
14114365478
14114374267
14114383178
14114391540
14114399352
14114406249
14114414977
14114422241
14114430114
14114438049
14114443542
14114455810
14114460937
14114469482
14114476867
14114486144
14114494079
14114499450
14114507445
14114517943
14114524474
14114532836
14114540954
14114549193
14114556518
14114565001
14114572875
14114579406
14114588500
14114594237
14114604796
14114610228
14114619139
14114626830
14114632201
14114641173
14114652892
14114660033
14114668578
14114675353
14114682494
14114688902
14114696776
14114704405
14114712401
14114720824
14114729247
14114736144
14114743712
14114752013
14114760313
14114766600
14114774718
14114783629
14114791685
14114797850
14114805418
14114814146
14114822081
14114830137
14114834959
14114846068
14114854063
14114861143
14114868467
14114876280
14114883299
14114890867
14114899717
14114905821
14114916929
14114925535
14114931639
14114939207
14114946531
14114954405
14114962705
14114968748
14114979002
14114987608
14114994199
14115002744
14115011167
14115019041
14115024717
14115032041
14115042844
14115051756
14115059324
14115064756
14115075193
14115083372
14115091733
14115098997
14115104673
14115115171
14115120908
14115129148
14115137082
14115145933
14115152768
14115160093
14115168882
14115178525
14115186582
14115194150
14115199338
14115208310
14115215940
14115224973
14115232236
14115239804
14115247373
14115256467
14115263181
14115271237
14115279294
14115285947
14115294614
14115302976
14115310300
14115318295
14115325559
14115334225
14115341855
14115346921
14115356747
14115361996
14115372433
14115379758
14115385678
14115394467
14115402646
14115409482
14115417782
14115424923
14115433774
14115442868
14115448849
14115457272
14115466061
14115472653
14115480771
14115487973
14115496640
14115504879
14115512387
14115517819
14115528012
14115533383
14115544247
14115549862
14115558590
14115567257
14115574948
14115582882
14115590328
14115599056
14115605282
14115613949
14115618832
14115624691
14115632137
14115638119
14115643612
14115649654
14115656734
14115663876
14115675350
14115681576
14115690121
14115700924
14115706661
14115712704
14115718075
14115722591
14115728206
14115736263
14115741512
14115745846
14115750911
14115755733
14115762081
14115770137
14115775875
14115782528
14115788753
14115795345
14115801082
14115805843
14115810848
14115816829
14115821773
14115827938
14115838130
14115842952
14115849544
14115854854
14115860591
14115865230
14115869930
14115874690
14115880672
14115884700
14115889217
14115893794
14115898311
14115903438
14115909419
14115912654
14115921748
14115926082
14115930354
14115937007
14115941890
14115946773
14115950984
14115954829
14115959102
14115963802
14115968257
14115976070
14115981563
14115987788
14115993770
14115997859
14116006160
14116011287
14116016902
14116022029
14116026912
14116031733
14116036555
14116041194
14116046931
14116051997
14116056636
14116062068
14116066645
14116074214
14116079524
14116083552
14116090754
14116096370
14116101802
14116108271
14116114131
14116119746
14116125422
14116129450
14116134089
14116140376
14116146540
14116151423
14116157099
14116161921
14116167780
14116173457
14116178217
14116183466
14116190608
14116195735
14116200495
14116206171
14116211482
14116217463
14116223017
14116227351
14116234797
14116240412
14116245905
14116252009
14116256403
14116261713
14116266962
14116270624
14116279475
14116286188
14116292597
14116299250
14116303827
14116309321
14116314387
14116319086
14116326105
14116333063
14116337397
14116343073
14116347162
14116352411
14116357050
14116362543
14116368586
14116374140
14116378473
14116382929
14116387506
14116393061
14116398493
14116406061
14116412897
14116420710
14116427301
14116435907
14116442438
14116449884
14116457147
14116465082
14116470880
14116478082
14116485101
14116492670
14116500055
14116508173
14116516229
14116522638
14116531244
14116536737
14116545404
14116554193
14116562494
14116568658
14116577508
14116586297
14116594415
14116601678
14116611871
14116619073
14116628534
14116636224
14116641412
14116650628
14116658624
14116667535
14116675714
14116682611
14116690972
14116699151
14116707513
14116714654
14116723138
14116731134
14116738885
14116745111
14116753472
14116761346
14116769525
14116776971
14116782342
14116791131
14116797967
14116806268
14116813714
14116823113
14116829949
14116836053
14116844537
14116854851
14116861504
14116869500
14116875298
14116882928
14116891656
14116897881
14116906731
14116916375
14116924431
14116929497
14116937920
14116948784
14116955864
14116963128
14116973015
14116978264
14116985649
14116995476
14117005242
14117012383
14117019829
14117027336
14117036431
14117045037
14117054436
14117064263
14117073113
14117081596
14117090813
14117097893
14117106926
14117116936
14117124870
14117132866
14117141106
14117149345
14117157402
14117164665
14117172111
14117180107
14117187553
14117194633
14117201958
14117212639
14117220512
14117227043
14117233818
14117242912
14117249931
14117257194
14117263725
14117272941
14117279533
14117286857
14117295646
14117303520
14117310539
14117319023
14117325187
14117332939
14117340568
14117348197
14117357047
14117363700
14117370902
14117379325
14117385246
14117392692
14117399101
14117408988
14117415702
14117423637
14117432670
14117441276
14117448661
14117458610
14117464286
14117473746
14117480582
14117488517
14117496879
14117505607
14117513663
14117522025
14117528312
14117536124
14117544974
14117552726
14117560111
14117567801
14117576224
14117584342
14117591239
14117597892
14117607230
14117615348
14117621695
14117628348
14117637198
14117644339
14117652518
14117661063
14117666373
14117674613
14117682242
14117690299
14117698172
14117707694
14117713614
14117721915
14117730399
14117739493
14117745657
14117753409
14117762930
14117770499
14117778494
14117786185
14117794485
14117802115
14117810538
14117817740
14117823050
14117833243
14117838492
14117845633
14117851370
14117855642
14117875601
14117883841
14117890005
14117896048
14117901052
14117906668
14117910696
14117916433
14117920462
14117926260
14117930776
14117933828
14117940176
14117944570
14117948599
14117953909
14117959585
14117964529
14117971365
14117976064
14117980825
14117985891
14117989492
14117996755
14118000600
14118007986
14118012746
14118018362
14118023061
14118028127
14118032644
14118039541
14118045705
14118052846
14118057424
14118063406
14118068655
14118072866
14118079641
14118085500
14118089956
14118095754
14118100820
14118106435
14118112600
14118117483
14118122365
14118127309
14118134633
14118140676
14118144948
14118152700
14118156606
14118163930
14118168874
14118175283
14118179860
14118186208
14118192372
14118197072
14118203115
14118207387
14118213430
14118217763
14118223195
14118229543
14118234242
14118240773
14118247609
14118252980
14118258290
14118263295
14118268788
14118275746
14118282338
14118289479
14118295155
14118300221
14118305775
14118311635
14118317311
14118322560
14118328236
14118336293
14118342030
14118346120
14118352650
14118357106
14118363026
14118367238
14118373402
14118380055
14118388478
14118394337
14118399464
14118405018
14118410145
14118416554
14118422596
14118429249
14118437611
14118443470
14118449025
14118454396
14118460011
14118466114
14118473133
14118479359
14118486378
14118492054
14118496632
14118502552
14118507740
14118512867
14118518177
14118523243
14118528614
14118533802
14118538685
14118543751
14118548939
14118553761
14118559986
14118563404
14118570545
14118575489
14118579517
14118584644
14118589588
14118594776
14118601124
14118606617
14118613880
14118619617
14118623646
14118628162
14118634022
14118638477
14118644337
14118649708
14118657154
14118662037
14118665394
14118671924
14118679493
14118686573
14118694141
14118701465
14118709949
14118720203
14118725635
14118735035
14118742359
14118749805
14118755481
14118764942
14118770496
14118781177
14118789173
14118796070
14118804126
14118811145
14118817737
14118825305
14118832935
14118842212
14118849414
14118858692
14118865772
14118873096
14118881458
14118888232
14118894702
14118903186
14118912708
14118918018
14118926257
14118934436
14118942126
14118949512
14118957385
14118965259
14118974109
14118980212
14118988574
14118996631
14119002978
14119010547
14119018115
14119026233
14119036792
14119044726
14119050769
14119057483
14119067431
14119072131
14119081164
14119087817
14119098376
14119105395
14119115344
14119120959
14119130297
14119137683
14119146288
14119154040
14119166796
14119175158
14119182848
14119187853
14119198046
14119205126
14119212939
14119222338
14119227648
14119238146
14119243700
14119251025
14119258654
14119266955
14119275133
14119282580
14119290514
14119298083
14119306017
14119313891
14119320360
14119329821
14119338183
14119345202
14119354906
14119363085
14119372057
14119382616
14119391161
14119399584
14119406969
14119412950
14119423204
14119432360
14119437609
14119445482
14119452745
14119459764
14119467088
14119476061
14119485155
14119492906
14119501329
14119508531
14119516893
14119524339
14119531847
14119539476
14119546678
14119553941
14119562059
14119569139
14119576280
14119583787
14119591173
14119597642
14119606614
14119616258
14119624498
14119631334
14119639390
14119646226
14119653001
14119661180
14119668382
14119677171
14119684556
14119694017
14119700669
14119709397
14119715928
14119724473
14119730760
14119741563
14119748948
14119758042
14119765061
14119774033
14119780686
14119788377
14119795335
14119800828
14119812730
14119818162
14119828599
14119833665
14119841050
14119850693
14119857773
14119866196
14119874436
14119883286
14119891221
14119899582
14119908249
14119913804
14119924119
14119933823
14119944992
14119953904
14119962021
14119970017
14119981003
14119988633
14119994736
14120002365
14120012192
14120017990
14120027268
14120036118
14120042771
14120051071
14120057114
14120067185
14120075974
14120080795
14120089218
14120094589
14120099899
14120103073
14120107956
14120113266
14120119919
14120123520
14120130112
14120133408
14120140304
14120146042
14120150986
14120154465
14120162216
14120166794
14120171432
14120177658
14120182358
14120187485
14120192550
14120198654
14120204086
14120210129
14120215622
14120220688
14120226303
14120230636
14120236313
14120240829
14120251266
14120257003
14120262069
14120267135
14120273361
14120278732
14120282699
14120288559
14120295822
14120299484
14120304306
14120311752
14120315048
14120321090
14120326217
14120330978
14120336959
14120343063
14120349105
14120353622
14120359176
14120364974
14120370223
14120374923
14120382491
14120388656
14120393966
14120398055
14120403060
14120408370
14120413680
14120419601
14120422836
14120429916
14120435348
14120439376
14120444198
14120451339
14120456893
14120462142
14120466964
14120474776
14120480147
14120482833
14120488692
14120493392
14120499679
14120503646
14120509627
14120518966
14120523848
14120529586
14120534774
14120538863
14120546737
14120550460
14120556563
14120561202
14120570601
14120577376
14120582991
14120588362
14120594405
14120599471
14120603621
14120610274
14120617964
14120623641
14120627913
14120632308
14120637557
14120640669
14120646773
14120651412
14120657637
14120662703
14120667952
14120673201
14120678450
14120683699
14120693709
14120697859
14120703108
14120712019
14120717696
14120723250
14120729170
14120736739
14120742659
14120749007
14120754500
14120759321
14120765120
14120771589
14120777266
14120782820
14120789351
14120796492
14120802534
14120808760
14120814375
14120818525
14120823286
14120829695
14120834944
14120840376
14120845137
14120851423
14120856062
14120862349
14120868147
14120872908
14120878523
14120886396
14120891096
14120897077
14120902815
14120909651
14120914594
14120921125
14120928388
14120937177
14120946272
14120954572
14120961042
14120968855
14120976179
14120985273
14120992597
14120997785
14121006452
14121013776
14121023603
14121031660
14121037275
14121045026
14121053327
14121062360
14121071454
14121079511
14121088544
14121096235
14121104474
14121111738
14121120466
14121128705
14121137128
14121146222
14121156964
14121165570
14121174115
14121185407
14121193708
14121205060
14121214948
14121223065
14121232587
14121240216
14121248761
14121256085
14121265180
14121274640
14121284222
14121292767
14121299664
14121306866
14121315533
14121324200
14121330487
14121339276
14121347211
14121357342
14121365338
14121372967
14121378216
14121387555
14121397931
14121405194
14121411969
14121421307
14121426922
14121437054
14121443707
14121451947
14121458905
14121464398
14121474224
14121479718
14121489605
14121498272
14121504864
14121512737
14121519146
14121528240
14121535809
14121543865
14121549542
14121557049
14121564983
14121569927
14121579876
14121585308
14121595440
14121602398
14121611431
14121619488
14121624981
14121635296
14121640972
14121648540
14121657085
14121665569
14121674785
14121681865
14121690899
14121698467
14121704509
14121713543
14121719280
14121728618
14121739055
14121746746
14121754009
14121762737
14121771099
14121777935
14121786357
14121792644
14121799724
14121809184
14121817485
14121825176
14121831645
14121840007
14121848430
14121857463
14121865093
14121873271
14121880351
14121887492
14121897319
14121903361
14121911052
14121919841
14121928081
14121933452
14121943400
14121951640
14121957255
14121965373
14121973613
14121982097
14121990458
14121998210
14122006877
14122013408
14122021647
14122029460
14122038798
14122046489
14122054972
14122062541
14122067973
14122079081
14122087260
14122096965
14122104533
14122114482
14122119914
14122129130
14122136820
14122146525
14122153910
14122163065
14122169413
14122177775
14122184672
14122192851
14122200358
14122209208
14122217387
14122225504
14122232828
14122241801
14122249430
14122257792
14122265665
14122271036
14122280253
14122287272
14122295328
14122303568
14122312418
14122319620
14122325113
14122334269
14122343119
14122351480
14122357584
14122367472
14122377481
14122391519
14122399942
14122414163
14122426798
14122434549
14122443582
14122452005
14122461343
14122472879
14122482401
14122491129
14122499673
14122507242
14122514383
14122522134
14122530496
14122538125
14122547830
14122556680
14122564981
14122573343
14122580850
14122588724
14122597757
14122606057
14122614908
14122622842
14122630594
14122637918
14122644754
14122656106
14122664163
14122672097
14122679910
14122686868
14122697183
14122703836
14122711709
14122719827
14122729226
14122736306
14122746194
14122754495
14122762856
14122770425
14122778359
14122785989
14122796181
14122803994
14122810647
14122818337
14122824990
14122834756
14122842873
14122852090
14122860024
14122868020
14122876443
14122884804
14122892617
14122902932
14122910805
14122920815
14122929543
14122937233
14122945717
14122953041
14122964638
14122972512
14122982033
14122988503
14122996010
14123006325
14123015175
14123024697
14123032692
14123040199
14123050148
14123058449
14123067848
14123075539
14123083351
14123093544
14123101723
14123108131
14123117958
14123125770
14123133888
14123143104
14123150551
14123158912
14123165809
14123174843
14123182106
14123189979
14123201332
14123209205
14123217018
14123223060
14123231300
14123239357
14123246559
14123255287
14123264747
14123272621
14123281166
14123288734
14123296302
14123303077
14123310951
14123318824
14123327369
14123335121
14123344032
14123351783
14123359657
14123366370
14123374854
14123382667
14123391151
14123398902
14123406776
14123414771
14123423194
14123431007
14123437965
14123448218
14123454810
14123462623
14123472815
14123481360
14123488746
14123498267
14123505103
14123514563
14123521277
14123531104
14123540198
14123548499
14123557410
14123566809
14123578589
14123586768
14123598120
14123606238
14123616309
14123628027
14123637610
14123646155
14123659094
14123667822
14123678870
14123686926
14123698706
14123707922
14123717810
14123727454
14123735388
14123742224
14123749609
14123754126
14123762854
14123767126
14123776282
14123784887
14123791418
14123797400
14123803503
14123810339
14123816992
14123825415
14123829870
14123836889
14123844458
14123850378
14123858313
14123864721
14123871862
14123880224
14123885656
14123892126
14123899389
14123906042
14123914160
14123920446
14123926183
14123934606
14123940466
14123946691
14123953283
14123959692
14123966711
14123973913
14123980383
14123986181
14123993810
14124000646
14124007665
14124014623
14124025365
14124030065
14124041357
14124049596
14124057043
14124065160
14124071569
14124077123
14124083654
14124095495
14124103551
14124110509
14124117040
14124124303
14124130651
14124138951
14124148107
14124154760
14124162938
14124170446
14124178136
14124185582
14124193639
14124201695
14124209203
14124217320
14124225804
14124233373
14124239781
14124247533
14124255650
14124263707
14124272252
14124279942
14124288243
14124295995
14124303258
14124310399
14124316869
14124324559
14124331395
14124340794
14124349827
14124357579
14124367344
14124374180
14124382176
14124389256
14124398594
14124405613
14124415074
14124422642
14124430760
14124437168
14124445958
14124452183
14124459507
14124467991
14124478245
14124485935
14124491001
14124501072
14124506138
14124516209
14124523899
14124530247
14124539646
14124549534
14124557835
14124565159
14124573093
14124581394
14124587131
14124594822
14124603550
14124613254
14124619785
14124629063
14124633762
14124643101
14124650791
14124658359
14124665195
14124675693
14124684055
14124691013
14124698520
14124707920
14124714695
14124722263
14124728489
14124737400
14124746860
14124755344
14124761875
14124769687
14124776340
14124786106
14124792880
14124801547
14124812473
14124820834
14124828586
14124836520
14124842746
14124850436
14124858432
14124866733
14124874850
14124882968
14124890414
14124898715
14124905124
14124911899
14124920322
14124927035
14124937228
14124944430
14124953341
14124960177
14124965610
14124970126
14124975558
14124980136
14124988009
14124993930
14124999240
14125004367
14125008944
14125014132
14125019931
14125025485
14125030185
14125038119
14125042758
14125048434
14125053256
14125058688
14125064791
14125068942
14125075106
14125082125
14125088717
14125096530
14125102633
14125108004
14125113375
14125122531
14125129427
14125133883
14125139559
14125146212
14125151461
14125157687
14125162569
14125171603
14125177401
14125183199
14125188387
14125193636
14125198885
14125203524
14125210604
14125217135
14125223482
14125228915
14125233187
14125238680
14125244845
14125251620
14125255037
14125263399
14125269198
14125275118
14125278780
14125285433
14125290926
14125296541
14125303011
14125308992
14125314364
14125320467
14125325472
14125331331
14125337069
14125343233
14125350130
14125354708
14125361055
14125367159
14125372896
14125378694
14125384004
14125389864
14125396150
14125402132
14125408602
14125413240
14125419710
14125425874
14125431001
14125435945
14125442842
14125447786
14125454744
14125460542
14125467256
14125472200
14125478914
14125484712
14125490999
14125497041
14125504976
14125510164
14125517000
14125522432
14125529268
14125535249
14125541353
14125547151
14125554841
14125561250
14125568635
14125574739
14125580964
14125586091
14125591584
14125597627
14125605256
14125612703
14125618379
14125625276
14125630891
14125637300
14125643037
14125649568
14125656037
14125662934
14125670991
14125676179
14125682771
14125688874
14125694917
14125699861
14125707551
14125713532
14125720979
14125728303
14125737153
14125741914
14125749482
14125755708
14125762910
14125768525
14125777375
14125783784
14125792084
14125798554
14125804841
14125810761
14125815644
14125821503
14125827851
14125833466
14125838593
14125844269
14125850068
14125855866
14125863068
14125871735
14125879609
14125887299
14125894745
14125902741
14125909577
14125918061
14125925202
14125933686
14125941315
14125949921
14125959503
14125966217
14125976593
14125982392
14125991486
14126000153
14126006989
14126015167
14126024140
14126032379
14126038666
14126047272
14126055695
14126064178
14126072968
14126079864
14126089874
14126098053
14126104767
14126113129
14126121734
14126130218
14126137665
14126144989
14126153106
14126159759
14126167999
14126176910
14126185455
14126192718
14126201446
14126209442
14126218597
14126226348
14126234649
14126242889
14126251739
14126260345
14126265533
14126275604
14126282501
14126290985
14126298492
14126308196
14126315215
14126324371
14126331634
14126339690
14126347503
14126355682
14126363982
14126372771
14126381438
14126389678
14126398162
14126405120
14126414947
14126423308
14126431182
14126438872
14126446258
14126453765
14126462188
14126471221
14126479705
14126487273
14126494475
14126501616
14126513091
14126519133
14126529937
14126539336
14126547820
14126556609
14126564116
14126572844
14126580901
14126589751
14126598906
14126608061
14126617583
14126626433
14126634673
14126643828
14126652312
14126660124
14126667876
14126676970
14126684660
14126692534
14126701750
14126709624
14126717802
14126725126
14126736479
14126741667
14126754545
14126759855
14126769804
14126779448
14126786894
14126794828
14126803984
14126809233
14126819853
14126825773
14126836088
14126844450
14126852323
14126860441
14126868498
14126873991
14126883451
14126891081
14126899687
14126907072
14126916471
14126925321
14126932340
14126939665
14126948270
14126956022
14126964017
14126971342
14126980863
14126987760
14126996000
14127006437
14127015409
14127022977
14127032010
14127039030
14127047330
14127054349
14127062711
14127070890
14127079435
14127090543
14127096830
14127104764
14127114042
14127123014
14127128202
14127139249
14127147794
14127156644
14127164151
14127172452
14127179532
14127187711
14127196012
14127204434
14127214383
14127220731
14127230496
14127238797
14127246060
14127254666
14127261441
14127268643
14127277432
14127285428
14127295071
14127302884
14127312161
14127319180
14127324795
14127334622
14127340726
14127350369
14127357388
14127364346
14127371365
14127377835
14127385342
14127391446
14127398098
14127402798
14127409329
14127415371
14127419705
14127426907
14127434292
14127439114
14127446133
14127451992
14127457974
14127465176
14127469998
14127474880
14127480007
14127484585
14127489956
14127497158
14127501370
14127510220
14127515225
14127520535
14127524990
14127530300
14127535671
14127542019
14127547268
14127554287
14127559841
14127564663
14127569485
14127576382
14127580044
14127586269
14127591396
14127597256
14127602749
14127609463
14127614773
14127620083
14127624904
14127630031
14127634914
14127640651
14127646267
14127652858
14127657924
14127667141
14127672939
14127679104
14127684536
14127691005
14127697048
14127703884
14127709255
14127715175
14127720913
14127727748
14127732509
14127738857
14127744472
14127748683
14127756191
14127762233
14127769618
14127773525
14127779384
14127784511
14127791103
14127796474
14127802455
14127809230
14127813686
14127819301
14127826137
14127831996
14127839198
14127846095
14127853420
14127858852
14127863002
14127871486
14127878078
14127883266
14127887599
14127894374
14127902064
14127907985
14127913051
14127918422
14127924953
14127930446
14127935267
14127944728
14127950282
14127954493
14127962672
14127969569
14127975673
14127982142
14127990138
14127997767
14128004542
14128011988
14128017482
14128021510
14128028712
14128036158
14128042872
14128048304
14128054286
14128059901
14128065760
14128071009
14128075038
14128080348
14128087367
14128093165
14128098414
14128103602
14128108241
14128113246
14128119898
14128125941
14128132594
14128138209
14128143397
14128149073
14128155360
14128160548
14128166163
14128172266
14128180811
14128186854
14128192347
14128197962
14128203638
14128207117
14128214258
14128219813
14128227320
14128233179
14128240992
14128247706
14128255701
14128262720
14128267847
14128278040
14128284144
14128292872
14128301172
14128310083
14128317652
14128323816
14128331324
14128339319
14128347864
14128356775
14128363123
14128371668
14128379297
14128385828
14128394007
14128397913
14128408045
14128418115
14128425317
14128433252
14128440027
14128449060
14128456384
14128464258
14128471033
14128482812
14128490015
14128496179
14128503808
14128512475
14128519311
14128527917
14128537561
14128545984
14128553674
14128562768
14128570092
14128578393
14128585962
14128594934
14128602380
14128611108
14128617639
14128625085
14128633386
14128640710
14128646997
14128657006
14128662377
14128670983
14128680322
14128687951
14128696801
14128703698
14128712609
14128721154
14128729394
14128735741
14128745019
14128753014
14128761498
14128769738
14128775414
14128784875
14128792504
14128802575
14128809960
14128815453
14128825158
14128833581
14128840783
14128847130
14128854760
14128863732
14128870873
14128879601
14128889367
14128895592
14128903771
14128912560
14128921044
14128926354
14128934288
14128941918
14128951988
14128957604
14128965782
14128972985
14128981407
14128988548
14128999230
14129005760
14129012230
14129021019
14129029869
14129037499
14129045433
14129053001
14129061729
14129067406
14129074364
14129083519
14129093529
14129103599
14129108848
14129118431
14129125938
14129135765
14129144371
14129152305
14129160667
14129168419
14129173607
14129183555
14129189354
14129200279
14129208091
14129216148
14129223167
14129228660
14129237693
14129246543
14129254051
14129262718
14129270225
14129279380
14129287010
14129295249
14129302635
14129311729
14129318504
14129326560
14129333884
14129342490
14129351035
14129360007
14129368003
14129375571
14129383567
14129390952
14129399985
14129407432
14129415854
14129423545
14129429160
14129437339
14129445212
14129453696
14129459983
14129469687
14129477012
14129486106
14129492270
14129500022
14129509238
14129516989
14129524680
14129532675
14129540732
14129550193
14129558859
14129567099
14129573874
14129582358
14129589560
14129598410
14129605551
14129614951
14129624045
14129632712
14129639853
14129648032
14129655661
14129664450
14129671042
14129678366
14129686850
14129694968
14129703268
14129710470
14129718588
14129724753
14129730063
14129735617
14129742331
14129748373
14129754965
14129760641
14129766440
14129771444
14129777670
14129782675
14129789389
14129794271
14129799520
14129804403
14129809896
14129814779
14129820761
14129824545
14129832846
14129836447
14129842367
14129847921
14129853109
14129856771
14129864096
14129868429
14129876913
14129883261
14129888265
14129894247
14129900106
14129906393
14129912008
14129918600
14129923299
14129929403
14129934957
14129941122
14129946981
14129953695
14129959005
14129965597
14129970968
14129975851
14129982931
14129987508
14129993917
14129998311
14130003866
14130010946
14130018270
14130026632
14130033468
14130041646
14130050008
14130058797
14130066488
14130073140
14130077291
14130081990
14130087667
14130092672
14130097615
14130102620
14130108907
14130115316
14130120748
14130126241
14130131246
14130135823
14130140645
14130145528
14130150838
14130156819
14130162984
14130168233
14130174397
14130180745
14130187642
14130194051
14130201131
14130207112
14130213094
14130218282
14130224324
14130230244
14130236836
14130242757
14130247823
14130253987
14130259969
14130265523
14130271443
14130276265
14130281331
14130286458
14130292134
14130298299
14130304158
14130311055
14130317341
14130322774
14130327717
14130332783
14130340352
14130346211
14130352437
14130357686
14130364521
14130369648
14130375935
14130382283
14130388447
14130394307
14130397908
14130406086
14130409809
14130414753
14130421406
14130426777
14130433308
14130438313
14130444172
14130451252
14130456623
14130462849
14130468647
14130473469
14130479023
14130483418
14130489216
14130494770
14130501362
14130506733
14130512898
14130518147
14130524311
14130532307
14130536213
14130543659
14130549396
14130554279
14130559589
14130566486
14130575275
14130582233
14130591022
14130598408
14130606403
14130614765
14130622700
14130630512
14130635944
14130647175
14130655842
14130662067
14130669086
14130674396
14130685138
14130693073
14130699726
14130707599
14130715839
14130723896
14130731159
14130740192
14130748249
14130756427
14130762226
14130770709
14130778583
14130787433
14130796283
14130801715
14130811664
14130820026
14130827045
14130834918
14130842975
14130850421
14130858417
14130867267
14130872882
14130882220
14130887530
14130896808
14130902118
14130910907
14130916034
14130923724
14130932269
14130940692
14130948687
14130955279
14130963885
14130971148
14130981524
14130989154
14130994464
14131005938
14131013507
14131022235
14131031329
14131039202
14131047442
14131055010
14131063799
14131070696
14131078875
14131088213
14131093890
14131104144
14131111407
14131120379
14131127764
14131133562
14131144854
14131150469
14131158160
14131166704
14131174151
14131182757
14131191546
14131199724
14131207598
14131216204
14131222185
14131230669
14131239397
14131248003
14131255388
14131260881
14131269854
14131278337
14131283953
14131293596
14131301958
14131311174
14131316912
14131325701
14131334307
14131341448
14131349932
14131358232
14131367021
14131374895
14131380388
14131388994
14131396135
14131405107
14131412676
14131418047
14131427385
14131436052
14131443071
14131451555
14131458635
14131466997
14131473955
14131482500
14131490678
14131499345
14131506486
14131514482
14131521562
14131530290
14131537492
14131546342
14131554033
14131561113
14131569658
14131577348
14131586076
14131593217
14131598832
14131607194
14131616105
14131624467
14131632951
14131640885
14131647721
14131655595
14131664201
14131672563
14131681046
14131688920
14131696854
14131708695
14131717179
14131723954
14131732133
14131740067
14131749955
14131755875
14131764603
14131773148
14131781693
14131790604
14131800675
14131809952
14131815995
14131824296
14131831925
14131839554
14131849442
14131856766
14131867386
14131874710
14131883133
14131890396
14131895951
14131904984
14131913895
14131922379
14131930680
14131940018
14131948868
14131956558
14131964920
14131972611
14131981644
14131990067
14131998489
14132005814
14132013138
14132020889
14132028458
14132036148
14132044022
14132056473
14132064346
14132071609
14132076614
14132082657
14132087906
14132094070
14132099258
14132106582
14132112442
14132116348
14132123611
14132131119
14132136917
14132142715
14132148086
14132154129
14132159744
14132165908
14132170974
14132176834
14132182693
14132188186
14132194229
14132198562
14132203750
14132208633
14132213943
14132219253
14132222915
14132229141
14132234939
14132242324
14132246841
14132252456
14132259170
14132265457
14132271865
14132277847
14132285049
14132289871
14132295547
14132300613
14132306716
14132311599
14132317397
14132322890
14132329665
14132335220
14132339614
14132345657
14132351821
14132358108
14132365432
14132372024
14132379165
14132384780
14132389907
14132397841
14132402846
14132409560
14132416884
14132422622
14132429458
14132436782
14132445327
14132450576
14132456984
14132462478
14132468703
14132473708
14132479323
14132484572
14132490004
14132495497
14132501662
14132509291
14132513137
14132520461
14132525954
14132531325
14132536513
14132542311
14132547988
14132554885
14132560011
14132566725
14132571547
14132579115
14132586318
14132593092
14132600539
14132605971
14132611098
14132617079
14132623549
14132627333
14132634901
14132640150
14132646132
14132651442
14132658034
14132664198
14132668776
14132674208
14132682509
14132688002
14132695326
14132700819
14132704725
14132711012
14132717909
14132723524
14132729689
14132734938
14132741774
14132748243
14132754408
14132759230
14132765211
14132770521
14132776564
14132781874
14132788038
14132794752
14132799940
14132804457
14132810316
14132816969
14132823011
14132830335
14132836866
14132842726
14132851393
14132858167
14132863233
14132869459
14132876173
14132882093
14132892408
14132899671
14132905164
14132911146
14132918958
14132926038
14132930738
14132939039
14132945081
14132952528
14132959669
14132965101
14132971387
14132978834
14132987562
14132995374
14133002637
14133013807
14133022474
14133028150
14133039014
14133044568
14133056775
14133064527
14133071424
14133080640
14133090161
14133098889
14133107068
14133115003
14133122632
14133131055
14133138318
14133146253
14133155896
14133161939
14133170422
14133178052
14133185620
14133193799
14133201367
14133206189
14133217419
14133224866
14133232739
14133239575
14133247876
14133254529
14133262646
14133271435
14133277112
14133285779
14133293957
14133300976
14133309277
14133317883
14133325451
