13539019234
13539022468
13539025886
13539029365
13539032905
13539038399
13539042854
13539046943
13539050911
13539055183
13539059700
13539064094
13539069099
13539073250
13539078315
13539083076
13539087776
13539093391
13539100227
13539105415
13539110359
13539115913
13539123848
13539129707
13539138069
13539145637
13539151313
13539158699
13539164985
13539171516
13539180061
13539187080
13539193366
13539202216
13539210090
13539217475
13539222907
13539232185
13539239326
13539245185
13539252815
13539260444
13539268562
13539275886
13539282172
13539290351
13539297309
13539306830
13539311896
13539319953
13539327399
13539332465
13539339545
13539345649
13539352241
13539359137
13539364814
13539370856
13539378608
13539383674
13539390754
13539394843
13539402167
13539409613
13539414740
13539422065
13539428412
13539433722
13539440436
13539446418
13539453742
13539458625
13539466925
13539472296
13539478095
13539485846
13539491278
13539498908
13539504645
13539510932
13539517401
13539524298
13539528998
13539537665
13539543463
13539549994
13539556342
13539562628
13539568304
13539574774
13539581061
13539587836
13539593695
13539601202
13539607977
13539614325
13539620001
13539625616
13539632574
13539640143
13539646124
13539653326
13539658941
13539667059
13539672796
13539678534
13539686102
13539692205
13539696783
13539704535
13539711859
13539717901
13539725286
13539730963
13539738714
13539745001
13539752813
13539759344
13539764227
13539773382
13539779791
13539788580
13539794988
13539802801
13539809515
13539815923
13539822271
13539830084
13539837164
13539843816
13539851507
13539858526
13539865362
13539873174
13539880071
13539887334
13539892644
13539901067
13539906621
13539913457
13539920965
13539927740
13539935369
13539942754
13539950628
13539956792
13539963628
13539973089
13539980840
13539987310
13539995000
13540002691
13540008428
13540016851
13540022466
13540029851
13540038152
13540046697
13540052983
13540060308
13540068852
13540075200
13540083135
13540089726
13540098088
13540104436
13540112492
13540120915
13540127202
13540132695
13540140447
13540146428
13540154546
13540159673
13540168645
13540177006
13540185124
13540193242
13540201420
13540207707
13540215825
13540224187
13540232121
13540240117
13540246831
13540254887
13540262639
13540270878
13540276921
13540286137
13540292729
13540300602
13540307316
13540314824
13540322392
13540329533
13540338444
13540344425
13540353459
13540362309
13540368839
13540377445
13540383122
13540393192
13540402409
13540410526
13540416935
13540426212
13540434269
13540441532
13540447758
13540453983
13540462101
13540470829
13540478886
13540485477
13540493229
13540499760
13540506473
13540513920
13540520084
13540528812
13540535282
13540543278
13540556400
13540564762
13540572208
13540578006
13540584293
13540591556
13540596500
13540601017
13540607181
13540610477
13540616947
13540623355
13540627628
13540633976
13540639713
13540645145
13540649112
13540656253
13540661502
13540665836
13540671512
13540676578
13540681644
13540686405
13540692752
13540698490
13540705692
13540710880
13540714542
13540719180
13540724002
13540728763
13540733157
13540738467
13540742496
13540747806
13540753177
13540756961
13540762515
13540766177
13540772464
13540777713
13540782474
13540788150
13540792972
13540798221
13540803653
13540809695
13540814883
13540822024
13540825809
13540832034
13540836978
13540843448
13540846744
13540852481
13540857181
13540862185
13540866885
13540872317
13540876834
13540883059
13540886477
13540893191
13540899234
13540904177
13540909426
13540913943
13540919192
13540924441
13540931338
13540937381
13540941470
13540948062
13540954165
13540959780
13540966555
13540972109
13540978030
13540985598
13540991152
13540999331
13541004824
13541009829
13541016665
13541021548
13541026186
13541033328
13541037722
13541043154
13541051211
13541055605
13541062380
13541068362
13541074282
13541080752
13541086306
13541092287
13541099551
13541105654
13541113161
13541118715
13541124514
13541129214
13541135012
13541141298
13541147524
13541152468
13541157595
13541161989
13541166750
13541172487
13541177675
13541182680
13541189211
13541193972
13541200441
13541205263
13541210695
13541214968
13541221682
13541226442
13541230532
13541237917
13541241701
13541247866
13541253908
13541260073
13541265993
13541270693
13541276613
13541281862
13541288393
13541294252
13541300173
13541305727
13541312074
13541317323
13541322450
13541330507
13541335634
13541341615
13541346559
13541353090
13541357790
13541363466
13541369508
13541377138
13541385011
13541392763
13541399049
13541406312
13541415101
13541421937
13541430726
13541438051
13541445802
13541451906
13541459840
13541467775
13541476075
13541482972
13541490907
13541499269
13541507936
13541514894
13541521730
13541530458
13541538148
13541546083
13541552735
13541559632
13541566712
13541575929
13541581971
13541588136
13541598145
13541604310
13541612977
13541618836
13541627442
13541632752
13541641663
13541648560
13541656678
13541663697
13541672364
13541679993
13541687195
13541693177
13541699647
13541709595
13541715638
13541723694
13541731812
13541739564
13541744751
13541753479
13541760132
13541769593
13541774476
13541783631
13541791443
13541800293
13541808655
13541817261
13541824402
13541830689
13541839539
13541846070
13541854492
13541860291
13541868714
13541873779
13541884155
13541888916
13541897827
13541905518
13541912842
13541919861
13541928467
13541936401
13541943787
13541951050
13541959839
13541966064
13541973694
13541981140
13541989563
13541994995
13542001892
13542010681
13542018188
13542028991
13542037414
13542045776
13542053833
13542059082
13542068054
13542074829
13542081237
13542092407
13542099670
13542105774
13542114807
13542120971
13542129638
13542137451
13542143737
13542148986
13542158691
13542166076
13542174438
13542181945
13542190551
13542197509
13542203674
13542210388
13542219909
13542226257
13542232177
13542243041
13542251647
13542260314
13542268554
13542277892
13542288085
13542294311
13542302184
13542310851
13542318603
13542325561
13542332580
13542338744
13542349425
13542356383
13542362059
13542368590
13542376586
13542385253
13542392516
13542401671
13542410094
13542416808
13542422667
13542430541
13542440673
13542450072
13542459166
13542468260
13542473570
13542484618
13542492003
13542498900
13542506346
13542513731
13542521971
13542530272
13542538878
13542547728
13542553343
13542563170
13542570006
13542578490
13542585509
13542593321
13542602659
13542608458
13542619627
13542627196
13542633421
13542642027
13542647764
13542654905
13542663206
13542668638
13542679197
13542685301
13542694029
13542700193
13542708921
13542716246
13542722349
13542730589
13542738462
13542746641
13542754331
13542761595
13542768431
13542774900
13542782285
13542791013
13542798704
13542805601
13542812620
13542817503
13542823850
13542829038
13542835020
13542840086
13542846433
13542851377
13542857359
13542862485
13542867673
13542872800
13542878416
13542881589
13542889585
13542896238
13542900205
13542905210
13542910032
13542915647
13542919553
13542925535
13542931821
13542936887
13542941160
13542948057
13542952268
13542957517
13542961850
13542969663
13542975400
13542980039
13542985105
13542990842
13542995725
13542999875
13543005551
13543012326
13543018369
13543023862
13543028012
13543033811
13543037961
13543043576
13543050046
13543054624
13543061582
13543066037
13543070920
13543075376
13543081235
13543086118
13543092893
13543098935
13543106442
13543110227
13543116513
13543121335
13543127621
13543133725
13543139767
13543144955
13543149655
13543155820
13543160763
13543167844
13543171567
13543178403
13543185177
13543189572
13543197323
13543202145
13543209408
13543214657
13543219662
13543228756
13543234250
13543240048
13543246335
13543250363
13543256833
13543260922
13543265866
13543271176
13543277707
13543283627
13543289120
13543293515
13543299130
13543305294
13543309384
13543315243
13543321713
13543327572
13543333798
13543339474
13543344784
13543349911
13543355526
13543360958
13543365658
13543373837
13543380001
13543384518
13543389217
13543394772
13543399532
13543406307
13543410763
13543418453
13543423580
13543429501
13543434689
13543438045
13543444210
13543449581
13543456112
13543462398
13543468807
13543475216
13543479916
13543485409
13543491146
13543496395
13543501705
13543507870
13543513424
13543519405
13543524776
13543530514
13543535824
13543540767
13543546993
13543551693
13543558834
13543564510
13543569515
13543576046
13543581661
13543586361
13543591915
13543596553
13543602962
13543608943
13543613887
13543618587
13543625728
13543632015
13543640560
13543647884
13543656185
13543663387
13543670833
13543678218
13543687251
13543694698
13543699947
13543708431
13543717952
13543726375
13543735164
13543742427
13543749324
13543759578
13543767757
13543775508
13543784602
13543792903
13543800777
13543808528
13543814570
13543824092
13543830256
13543840144
13543848628
13543855098
13543862544
13543870173
13543875727
13543886470
13543890559
13543900386
13543908259
13543915339
13543923396
13543929866
13543938471
13543946528
13543954402
13543961665
13543968562
13543976496
13543982478
13543989985
13543997248
13544004755
13544014948
13544021784
13544030573
13544037348
13544047175
13544054316
13544061701
13544072016
13544078669
13544088557
13544094904
13544104609
13544113276
13544120600
13544129816
13544136042
13544145685
13544151972
13544158808
13544167841
13544174250
13544180292
13544188410
13544198481
13544205927
13544214472
13544221613
13544229669
13544235834
13544244318
13544251032
13544260675
13544268671
13544275385
13544285700
13544292597
13544300043
13544307855
13544318231
13544325678
13544332269
13544339593
13544346918
13544354059
13544360406
13544368951
13544376520
13544386041
13544392328
13544397821
13544408624
13544415643
13544422296
13544430658
13544437311
13544448358
13544453668
13544463800
13544471734
13544479364
13544485772
13544495111
13544503839
13544510675
13544520196
13544526483
13544536309
13544543206
13544553460
13544561089
13544568597
13544576531
13544584100
13544590020
13544600152
13544609795
13544616143
13544624017
13544631951
13544642388
13544649773
13544657220
13544664300
13544672478
13544679192
13544688897
13544696282
13544703972
13544712029
13544719109
13544727593
13544736443
13544742302
13544750908
13544758904
13544765496
13544774346
13544784233
13544791436
13544802971
13544810295
13544816460
13544825188
13544832756
13544840203
13544847283
13544857659
13544865227
13544872673
13544881218
13544888603
13544896416
13544905998
13544912346
13544920647
13544928581
13544934746
13544942924
13544948967
13544956657
13544964287
13544969414
13544974724
13544980034
13544986381
13544991752
13544997124
13545003898
13545008720
13545014213
13545020012
13545025749
13545030266
13545034111
13545042473
13545049308
13545054374
13545061576
13545066948
13545071586
13545077140
13545083610
13545088615
13545095817
13545102836
13545107963
13545113456
13545120353
13545126396
13545131767
13545139335
13545144645
13545151725
13545156181
13545161491
13545165946
13545172965
13545178764
13545187980
13545191764
13545198905
13545204643
13545210746
13545214225
13545221549
13545227409
13545235404
13545242728
13545249015
13545253532
13545260734
13545266349
13545272025
13545277762
13545283805
13545288627
13545294181
13545299857
13545304984
13545310294
13545316459
13545320853
13545327567
13545332206
13545340079
13545344413
13545351310
13545355521
13545361991
13545366568
13545374503
13545380912
13545386771
13545392386
13545398185
13545402396
13545408683
13545414725
13545420645
13545425040
13545431388
13545435965
13545443228
13545447074
13545455008
13545458670
13545466361
13545469901
13545477408
13545481253
13545488028
13545493521
13545499136
13545502860
13545509390
13545515189
13545523001
13545528128
13545533804
13545538687
13545544791
13545549918
13545556265
13545562918
13545568960
13545573965
13545580679
13545586294
13545591971
13545597281
13545603872
13545608572
13545614798
13545620474
13545626272
13545631949
13545638296
13545643606
13545650991
13545657705
13545663321
13545669424
13545675222
13545681021
13545686209
13545692923
13545699942
13545706839
13545714346
13545720938
13545729055
13545733511
13545741751
13545746755
13545754141
13545760244
13545766042
13545771475
13545777395
13545781362
13545787649
13545793081
13545799001
13545807241
13545815664
13545821584
13545831167
13545836843
13545845327
13545853567
13545862722
13545868642
13545877370
13545884695
13545892568
13545900197
13545907583
13545915761
13545923391
13545931081
13545938222
13545945607
13545954396
13545961904
13545969289
13545977407
13545985097
13545993215
13546000478
13546007985
13546015676
13546023000
13546029714
13546037282
13546046926
13546054921
13546062612
13546069997
13546076039
13546082509
13546091481
13546099171
13546109364
13546114491
13546123891
13546131276
13546137807
13546144521
13546153859
13546160390
13546169423
13546177357
13546184804
13546191334
13546199818
13546209218
13546216237
13546224232
13546233876
13546239613
13546248585
13546258595
13546269703
13546276234
13546286488
13546296498
13546303028
13546312184
13546321888
13546330616
13546336964
13546342945
13546354786
13546360096
13546369251
13546378590
13546387196
13546393116
13546402210
13546410999
13546420155
13546429066
13546435780
13546443531
13546453052
13546460499
13546470508
13546478504
13546486683
13546494312
13546501331
13546510853
13546520618
13546527454
13546535999
13546544178
13546549610
13546558216
13546566516
13546575183
13546581287
13546590930
13546597095
13546605762
13546613086
13546620410
13546626392
13546636829
13546645191
13546652820
13546660999
13546667896
13546676013
13546682727
13546689441
13546698718
13546705920
13546715076
13546722461
13546728076
13546736804
13546743091
13546751453
13546759753
13546766894
13546775256
13546781787
13546789050
13546795398
13546803637
13546811755
13546818286
13546826526
13546834826
13546843066
13546848681
13546856982
13546864672
13546871936
13546879687
13546887866
13546895434
13546902270
13546909472
13546916552
13546923449
13546930224
13546938647
13546947131
13546954211
13546962573
13546969409
13546977160
13546982836
13546992358
13546998583
13547006701
13547015063
13547023241
13547031969
13547036669
13547045946
13547051501
13547061022
13547067248
13547077135
13547085314
13547093249
13547101000
13547107775
13547114977
13547122179
13547130297
13547139208
13547147448
13547155504
13547162706
13547168810
13547175280
13547183153
13547191942
13547202013
13547210070
13547219347
13547226488
13547232836
13547238024
13547244188
13547249071
13547257189
13547263902
13547270433
13547275255
13547280931
13547287218
13547292284
13547298082
13547303209
13547308214
13547311327
13547319139
13547323839
13547328172
13547334459
13547338365
13547344224
13547350084
13547355333
13547359361
13547365709
13547370042
13547376817
13547383226
13547387987
13547395494
13547400682
13547404283
13547410631
13547414964
13547419786
13547425584
13547432603
13547437852
13547443284
13547448106
13547452378
13547457994
13547463121
13547467515
13547474595
13547479295
13547484727
13547489488
13547495347
13547501939
13547507188
13547511582
13547515855
13547524278
13547531114
13547535386
13547541245
13547546739
13547551621
13547557603
13547563645
13547570481
13547576768
13547582322
13547587815
13547592942
13547598313
13547603989
13547610093
13547616135
13547622239
13547627427
13547632859
13547637925
13547642625
13547648972
13547653794
13547660752
13547666306
13547672654
13547677476
13547682847
13547689499
13547694138
13547698533
13547706040
13547711411
13547717820
13547722641
13547728562
13547733811
13547737351
13547744736
13547751145
13547758042
13547762009
13547768845
13547773178
13547780075
13547784104
13547790451
13547794907
13547801499
13547807480
13547813462
13547819321
13547824448
13547830246
13547835678
13547841355
13547848374
13547854111
13547859970
13547865830
13547870590
13547875351
13547881332
13547885544
13547894516
13547899887
13547905624
13547910568
13547914413
13547922897
13547927231
13547934738
13547940292
13547948166
13547953293
13547960861
13547965500
13547971542
13547977646
13547984054
13547991256
13547995529
13548001266
13548006942
13548011520
13548015487
13548022018
13548026596
13548030380
13548037277
13548043075
13548048751
13548053634
13548059433
13548064254
13548072738
13548078109
13548086410
13548093734
13548100326
13548107162
13548114669
13548121505
13548129012
13548134933
13548144088
13548152023
13548158614
13548166488
13548173202
13548180526
13548187789
13548194198
13548205001
13548213119
13548221053
13548228194
13548234237
13548240584
13548249618
13548256515
13548264327
13548271285
13548280562
13548286971
13548295150
13548302108
13548306746
13548316146
13548322005
13548332137
13548340560
13548346419
13548353804
13548360823
13548368514
13548376326
13548384871
13548397139
13548405562
13548414168
13548424300
13548430892
13548440718
13548448165
13548456954
13548463362
13548473006
13548479414
13548485457
13548495161
13548501692
13548511702
13548523360
13548532210
13548538374
13548546797
13548554671
13548561873
13548569563
13548576704
13548584395
13548593184
13548601423
13548613081
13548621809
13548629194
13548637983
13548647017
13548653059
13548662703
13548668928
13548678144
13548684919
13548694868
13548701643
13548710676
13548719892
13548728620
13548735395
13548743147
13548750715
13548757734
13548765363
13548774763
13548781171
13548790205
13548796125
13548806257
13548814558
13548821149
13548829206
13548837507
13548846967
13548854352
13548862409
13548869733
13548877546
13548885053
13548893354
13548900495
13548908979
13548918439
13548926862
13548934430
13548940656
13548949872
13548955976
13548966840
13548973188
13548986005
13548991986
13548999982
13549008283
13549016034
13549024457
13549032086
13549040448
13549048322
13549056378
13549065228
13549072980
13549079816
13549087872
13549095074
13549103009
13549110760
13549118878
13549126080
13549132550
13549139874
13549150555
13549157879
13549165814
13549175030
13549180096
13549188092
13549195599
13549205426
13549212872
13549221112
13549227581
13549236004
13549242230
13549248516
13549259320
13549265301
13549273907
13549279827
13549288250
13549296734
13549306134
13549311260
13549319683
13549327740
13549335491
13549343487
13549350445
13549358868
13549367596
13549374737
13549384380
13549391216
13549398296
13549405621
13549414165
13549420574
13549427410
13549438152
13549444866
13549452312
13549460369
13549469585
13549478252
13549485698
13549493999
13549501751
13549508159
13549515361
13549521953
13549532879
13549539226
13549545574
13549552166
13549558269
13549562297
13549568645
13549574932
13549579937
13549586040
13549592144
13549598857
13549603618
13549611370
13549616313
13549621745
13549625224
13549630473
13549637798
13549647807
13549653850
13549665386
13549673015
13549686076
13549695598
13549706828
13549717265
13549725993
13549734843
13549743022
13549751079
13549758891
13549766215
13549774272
13549783793
13549789897
13549793925
13549798991
13549803935
13549808391
13549812785
13549817851
13549822612
13549827678
13549836284
13549842448
13549846720
13549850505
13549858012
13549862529
13549867900
13549873210
13549877848
13549882975
13549887675
13549892863
13549897380
13549905009
13549909831
13549915751
13549920939
13549927470
13549933085
13549938090
13549943034
13549950114
13549955180
13549959635
13549966288
13549971598
13549977335
13549983073
13549988810
13549995829
13550002665
13550006693
13550014323
13550018351
13550026041
13550032206
13550036600
13550042582
13550047831
13550053690
13550058024
13550062235
13550068766
13550073282
13550077372
13550083903
13550091044
13550096903
13550103006
13550109354
13550115580
13550120707
13550128458
13550135050
13550141459
13550147501
13550153177
13550158426
13550164774
13550170450
13550175882
13550180033
13550186685
13550191019
13550196939
13550200785
13550207193
13550210672
13550216104
13550220560
13550227579
13550232828
13550236612
13550240152
13550246439
13550250345
13550256387
13550260416
13550266885
13550272073
13550275858
13550280374
13550285196
13550290384
13550294901
13550300577
13550308328
13550313028
13550319742
13550324319
13550329568
13550334573
13550340066
13550343606
13550350564
13550355813
13550362832
13550367959
13550376809
13550383218
13550391214
13550398050
13550408487
13550415628
13550424478
13550431314
13550438882
13550444680
13550450174
13550459146
13550468484
13550477151
13550482217
13550489907
13550499490
13550505166
13550512490
13550519631
13550527810
13550536904
13550545022
13550551919
13550559243
13550565652
13550572121
13550581521
13550589639
13550597207
13550604287
13550612832
13550619668
13550628213
13550634560
13550643899
13550651223
13550662148
13550670754
13550678017
13550685463
13550693337
13550700661
13550708535
13550715432
13550725319
13550730568
13550739663
13550746132
13550754738
13550761635
13550768166
13550777260
13550788430
13550795204
13550804421
13550812844
13550820778
13550829079
13550837319
13550845131
13550853249
13550861977
13550868630
13550878944
13550885414
13550893959
13550902626
13550909462
13550916725
13550925575
13550932472
13550940834
13550947975
13550954933
13550960060
13550969703
13550976845
13550983436
13550990577
13550997963
13551004982
13551011451
13551018837
13551025734
13551032997
13551041236
13551048744
13551056312
13551064247
13551071876
13551080909
13551088722
13551094337
13551101478
13551108985
13551117713
13551123634
13551132240
13551138954
13551147559
13551156776
13551162757
13551168067
13551177650
13551185889
13551191749
13551201209
13551208350
13551215797
13551222388
13551229590
13551238380
13551243934
13551252540
13551262122
13551269385
13551277259
13551284034
13551291419
13551297950
13551305884
13551314673
13551325171
13551333472
13551340735
13551351172
13551358069
13551363929
13551373877
13551383216
13551392371
13551400550
13551408057
13551417822
13551424780
13551432837
13551440588
13551449744
13551458411
13551464819
13551472144
13551480139
13551485876
13551496436
13551504980
13551513892
13551519995
13551528235
13551536963
13551544897
13551554846
13551564245
13551574011
13551581274
13551587683
13551597021
13551604345
13551611120
13551616674
13551627050
13551632727
13551640295
13551649328
13551655249
13551663305
13551668798
13551677893
13551686315
13551693273
13551699316
13551706762
13551712927
13551717748
13551722265
13551730016
13551734350
13551739965
13551744543
13551750280
13551754003
13551759191
13551765966
13551770605
13551775915
13551779882
13551785436
13551790197
13551794714
13551798925
13551805517
13551811132
13551815526
13551820470
13551825353
13551830785
13551835302
13551840063
13551846776
13551850988
13551856115
13551861242
13551866247
13551871740
13551877416
13551884435
13551889379
13551896398
13551901098
13551907018
13551912206
13551916845
13551922216
13551927098
13551933812
13551937535
13551943883
13551948949
13551954869
13551959630
13551964086
13551968419
13551975438
13551981542
13551985936
13551992589
13551997960
13552002965
13552010045
13552015416
13552021337
13552025975
13552031285
13552037206
13552042943
13552047459
13552053014
13552057896
13552066258
13552071202
13552077123
13552081578
13552086034
13552092503
13552097569
13552102391
13552109959
13552116002
13552124303
13552132176
13552138341
13552145299
13552150303
13552155308
13552165989
13552171727
13552175511
13552180699
13552184422
13552187901
13552194249
13552200169
13552204380
13552209507
13552215123
13552221226
13552226109
13552231297
13552235447
13552241551
13552246922
13552252903
13552257664
13552261021
13552267247
13552272801
13552278843
13552283360
13552288853
13552293308
13552297764
13552303562
13552307041
13552312657
13552318699
13552324009
13552328404
13552333164
13552338780
13552344395
13552349583
13552353428
13552358250
13552363987
13552368809
13552375523
13552381382
13552385227
13552391453
13552395725
13552401951
13552407871
13552411961
13552417820
13552422581
13552427891
13552433140
13552437839
13552444858
13552449131
13552454563
13552458164
13552468601
13552473545
13552478122
13552485019
13552490635
13552495212
13552499668
13552506076
13552512180
13552522434
13552529270
13552538303
13552544284
13552553684
13552561191
13552568820
13552575901
13552586399
13552594394
13552604404
13552612399
13552618686
13552633640
13552637058
13552650119
13552657871
13552665866
13552671603
13552681979
13552690829
13552697726
13552704562
13552714694
13552723422
13552732577
13552738986
13552747897
13552753512
13552764743
13552773837
13552781466
13552791476
13552799716
13552809420
13552818026
13552826083
13552834201
13552842562
13552848666
13552855502
13552863497
13552870516
13552877902
13552885287
13552893954
13552902560
13552908602
13552915072
13552927584
13552936068
13552943942
13552950411
13552959567
13552965609
13552971774
13552980441
13552989291
13552998385
13553004122
13553012728
13553019320
13553027132
13553034823
13553041414
13553050020
13553057589
13553065890
13553072420
13553079073
13553086397
13553092745
13553102327
13553109041
13553117952
13553124239
13553132296
13553138826
13553147127
13553154817
13553162447
13553168428
13553177034
13553185579
13553191561
13553200289
13553205843
13553216036
13553220918
13553230196
13553235323
13553244539
13553251802
13553260774
13553268648
13553275423
13553282442
13553291414
13553299226
13553308137
13553315828
13553324190
13553331209
13553339998
13553347932
13553358491
13553363740
13553376985
13553385591
13553391450
13553398652
13553407991
13553414949
13553425752
13553434297
13553442231
13553453645
13553460664
13553466950
13553475678
13553482148
13553491364
13553499726
13553506196
13553516694
13553523957
13553531953
13553539094
13553548982
13553556306
13553566987
13553576142
13553582978
13553590852
13553600739
13553609162
13553619904
13553627106
13553636017
13553643159
13553652436
13553659638
13553668061
13553674836
13553686738
13553694306
13553704194
13553712555
13553719391
13553726105
13553733612
13553740998
13553749176
13553755768
13553767426
13553775666
13553784088
13553790741
13553798187
13553805206
13553813019
13553822296
13553830658
13553837494
13553844269
13553852448
13553860504
13553867157
13553874786
13553881073
13553891327
13553898224
13553905792
13553912262
13553920318
13553926666
13553935394
13553941498
13553949066
13553955963
13553961883
13553966217
13553972442
13553977020
13553981903
13553987091
13553990997
13553997711
13554003021
13554007537
13554012909
13554018524
13554023468
13554027313
13554031829
13554041229
13554046600
13554051727
13554057098
13554061187
13554066192
13554072113
13554076385
13554083526
13554088592
13554095672
13554100067
13554105560
13554109893
13554115142
13554121368
13554127776
13554134124
13554138702
13554143096
13554149932
13554154449
13554160796
13554165069
13554173125
13554177581
13554183013
13554189300
13554193328
13554199248
13554204253
13554209563
13554213531
13554220672
13554224761
13554230926
13554236663
13554241912
13554247405
13554252471
13554258635
13554265105
13554271148
13554276153
13554280547
13554285613
13554290679
13554295806
13554301177
13554305999
13554311309
13554316802
13554321868
13554326506
13554331145
13554336150
13554341033
13554347136
13554352019
13554357024
13554363005
13554367217
13554371855
13554376372
13554381377
13554386077
13554391509
13554395964
13554400603
13554407378
13554412383
13554417204
13554421538
13554429411
13554434111
13554439482
13554443816
13554448943
13554453703
13554460661
13554465666
13554472197
13554476958
13554482573
13554487578
13554490752
13554496611
13554501982
13554507658
13554514616
13554520415
13554524687
13554530241
13554535124
13554539396
13554545805
13554549833
13554555998
13554561491
13554566862
13554571745
13554576933
13554581450
13554587004
13554591887
13554597502
13554603605
13554607939
13554613859
13554618803
13554623686
13554627104
13554633818
13554638151
13554644560
13554649443
13554655607
13554662077
13554667204
13554672514
13554678007
13554683683
13554690763
13554697050
13554701811
13554708830
13554713346
13554719022
13554724699
13554730497
13554737760
13554742399
13554751981
13554760221
13554767973
13554775846
13554783720
13554792570
13554800565
13554808988
13554817289
13554826322
13554834562
13554843534
13554851957
13554859464
13554868436
13554874479
13554882840
13554890775
13554896695
13554903775
13554912137
13554920621
13554927762
13554935758
13554942227
13554950650
13554957059
13554966031
13554972501
13554978421
13554989591
13554995267
13555003446
13555011624
13555020780
13555027066
13555041043
13555053494
13555062833
13555074673
13555083340
13555093533
13555104825
13555114407
13555125577
13555136807
13555145108
13555154751
13555164090
13555177762
13555188015
13555196011
13555203579
13555212674
13555218228
13555227078
13555232449
13555240872
13555248684
13555255886
13555263272
13555270046
13555277310
13555283779
13555290310
13555300076
13555307644
13555314602
13555320767
13555329617
13555335842
13555343288
13555349331
13555356045
13555362392
13555367092
13555376675
13555385708
13555392483
13555401455
13555408718
13555416347
13555424099
13555430996
13555440944
13555449795
13555457973
13555465175
13555475612
13555482204
13555490566
13555499599
13555506984
13555514858
13555522792
13555529628
13555537258
13555544216
13555552577
13555559474
13555568325
13555575466
13555584133
13555591335
13555600490
13555608730
13555616603
13555624843
13555633876
13555642421
13555649562
13555658412
13555664943
13555671901
13555680873
13555688563
13555696559
13555704066
13555711452
13555719691
13555728786
13555737514
13555744533
13555755824
13555763820
13555771266
13555776759
13555791774
13555799891
13555806849
13555813624
13555823573
13555829066
13555838282
13555844935
13555851710
13555860499
13555868617
13555875270
13555883814
13555889796
13555897791
13555904810
13555913661
13555921168
13555929713
13555937525
13555947108
13555954859
13555960719
13555967677
13555978052
13555985194
13555993616
13556002222
13556010157
13556016566
13556023462
13556032557
13556038721
13556048243
13556054590
13556066309
13556075769
13556084497
13556091333
13556100122
13556107141
13556116053
13556125330
13556132044
13556141321
13556150598
13556157739
13556165674
13556172510
13556177210
13556181543
13556188806
13556193262
13556201135
13556205774
13556211572
13556215967
13556221643
13556228723
13556233301
13556241052
13556245569
13556252161
13556256677
13556263818
13556269373
13556273828
13556279504
13556284875
13556290796
13556298852
13556304834
13556310388
13556316064
13556321680
13556327173
13556332055
13556337732
13556346643
13556350549
13556357934
13556363305
13556369531
13556378503
13556383691
13556390771
13556396142
13556400903
13556405358
13556411889
13556417138
13556422265
13556427697
13556433740
13556438317
13556444665
13556449365
13556455163
13556460290
13556467065
13556472436
13556477563
13556482873
13556489282
13556494348
13556499413
13556504540
13556510217
13556515466
13556521142
13556525048
13556531030
13556536523
13556542321
13556547692
13556553674
13556558190
13556565087
13556570519
13556576073
13556581444
13556587304
13556592797
13556598656
13556603112
13556611413
13556615502
13556621972
13556627648
13556633019
13556638573
13556643517
13556651146
13556656334
13556662499
13556668236
13556673607
13556678673
13556684166
13556689537
13556695458
13556704674
13556710839
13556718163
13556723473
13556729027
13556734886
13556740197
13556746056
13556755577
13556761437
13556766503
13556772179
13556778649
13556784081
13556791039
13556795677
13556802635
13556806786
13556813194
13556818321
13556823814
13556829430
13556835045
13556841637
13556846214
13556851524
13556857994
13556861961
13556867882
13556873436
13556879723
13556884117
13556889854
13556895592
13556901024
13556906456
13556910789
13556916405
13556922996
13556929527
13556936302
13556942650
13556948753
13556955162
13556959068
13556964500
13556970298
13556975303
13556979820
13556985130
13556990074
13556995201
13557002586
13557009422
13557015281
13557025169
13557032249
13557039939
13557048789
13557055442
13557064475
13557069908
13557078391
13557089439
13557098472
13557104636
13557113120
13557120994
13557126975
13557136253
13557142234
13557150779
13557160117
13557168052
13557174583
13557184287
13557190818
13557196555
13557207236
13557216453
13557222983
13557231406
13557239768
13557245749
13557255393
13557261374
13557271323
13557279441
13557287497
13557295676
13557303977
13557311850
13557318686
13557326804
13557334372
13557342368
13557351218
13557357077
13557366904
13557375022
13557382529
13557388999
13557399191
13557407431
13557413596
13557421652
13557430258
13557436240
13557445517
13557453452
13557461996
13557470358
13557477743
13557485556
13557493857
13557502035
13557511374
13557516989
13557527670
13557536947
13557546713
13557555319
13557562399
13557571310
13557580282
13557588034
13557594992
13557602011
13557611105
13557618246
13557628256
13557636129
13557644308
13557651510
13557660238
13557670431
13557679098
13557687277
13557695516
13557703817
13557713949
13557722860
13557729818
13557737753
13557746908
13557754171
13557764608
13557771688
13557780172
13557787252
13557797079
13557803853
13557812704
13557819723
13557829061
13557836263
13557844137
13557853414
13557860799
13557867147
13557879049
13557886190
13557894918
13557904256
13557912252
13557919332
13557928060
13557935323
13557943990
13557950460
13557960408
13557966817
13557975728
13557982015
13557989888
13557999532
13558005574
13558016255
13558022237
13558032307
13558038289
13558046956
13558054707
13558063618
13558073750
13558080525
13558088643
13558098103
13558104207
13558112507
13558120320
13558129658
13558135762
13558145527
13558153950
13558161580
13558169697
13558178303
13558186177
13558193440
13558201435
13558210652
13558218830
13558227314
13558235554
13558244465
13558250630
13558259236
13558267292
13558275227
13558283222
13558290974
13558297993
13558308247
13558316364
13558323994
13558334309
13558341084
13558349201
13558358295
13558367145
13558373737
13558382038
13558390034
13558398701
13558407184
13558415485
13558422687
13558429706
13558439655
13558447590
13558453998
13558459308
13558465534
13558470356
13558476398
13558481281
13558488422
13558493244
13558499958
13558505146
13558512165
13558518512
13558524738
13558532550
13558538166
13558544208
13558548664
13558554523
13558561542
13558566059
13558571369
13558577960
13558583026
13558588275
13558593463
13558598041
13558604389
13558610614
13558615131
13558619647
13558625018
13558629474
13558635516
13558642535
13558648212
13558653644
13558658282
13558663592
13558668841
13558673846
13558680194
13558685809
13558691302
13558696857
13558702228
13558707538
13558712176
13558716937
13558724078
13558730304
13558740436
13558746478
13558752093
13558757586
13558763690
13558769061
13558773578
13558778521
13558784564
13558789386
13558796099
13558801471
13558807086
13558812518
13558818621
13558822894
13558829180
13558835345
13558840289
13558844561
13558850543
13558856463
13558861773
13558867693
13558872149
13558878802
13558884722
13558889239
13558894671
13558899676
13558904925
13558910601
13558916155
13558922869
13558928301
13558934283
13558938982
13558944903
13558949480
13558956255
13558960589
13558965594
13558974932
13558981768
13558986285
13558993731
13558998064
13559003374
13559010088
13559014544
13559021074
13559026568
13559032244
13559038103
13559044146
13559049822
13559054461
13559060137
13559067400
13559072893
13559079119
13559083696
13559091387
13559098833
13559105059
13559112566
13559118486
13559122026
13559129961
13559133928
13559141374
13559146074
13559151262
13559156389
13559163042
13559169206
13559173906
13559178301
13559184160
13559190569
13559194414
13559200578
13559206133
13559211565
13559217485
13559222978
13559228654
13559234575
13559238664
13559245134
13559249773
13559255754
13559260515
13559266801
13559271928
13559277910
13559282182
13559286394
13559293901
13559298112
13559306230
13559312089
13559321306
13559329423
13559337358
13559342241
13559351579
13559358720
13559367021
13559374528
13559384416
13559391557
13559399614
13559406694
13559417192
13559424760
13559435807
13559443315
13559450395
13559456864
13559465836
13559472184
13559479936
13559485795
13559496171
13559505021
13559511430
13559519669
13559526871
13559532609
13559542130
13559548539
13559560136
13559567704
13559577103
13559584305
13559591813
13559597977
13559608353
13559614762
13559620926
13559631241
13559641007
13559648148
13559659562
13559668045
13559677018
13559683976
13559694535
13559701920
13559707352
13559719132
13559727005
13559734024
13559741348
13559748245
13559757584
13559766312
13559774002
13559781204
13559787186
13559796280
13559807205
13559816788
13559829910
13559839127
13559846207
13559855240
13559861832
13559867691
13559879349
13559884964
13559893875
13559904068
13559910599
13559916214
13559924881
13559934524
13559942825
13559950638
13559957534
13559963089
13559972610
13559978958
13559988296
13559996658
13560005691
13560014602
13560021316
13560029739
13560036025
13560044815
13560051589
13560060867
13560067581
13560075698
13560082046
13560090164
13560098037
13560108718
13560114944
13560122817
13560131423
13560140395
13560146560
13560156448
13560162917
13560172561
13560179519
13560188674
13560195205
13560203383
13560211745
13560219680
13560226943
13560238540
13560245986
13560254226
13560262099
13560273024
13560280165
13560289138
13560296645
13560304213
13560313369
13560319960
13560326247
13560336257
13560343032
13560351393
13560360304
13560368910
13560375807
13560384291
13560394911
13560401320
13560411452
13560417494
13560425368
13560433363
13560441054
13560448988
13560456557
13560463820
13560473585
13560482008
13560492018
13560499586
13560508070
13560515272
13560525282
13560532545
13560541029
13560548048
13560554274
13560564283
13560572584
13560578993
13560586927
13560595289
13560601759
13560612013
13560621778
13560628309
13560636549
13560646070
13560656996
13560665601
13560675855
13560685255
13560697645
13560708753
13560720838
13560733106
13560741407
13560754774
13560762708
13560772169
13560783887
13560794141
13560800123
13560807752
13560815320
13560822767
13560829786
13560837842
13560846814
13560854444
13560861829
13560868787
13560877637
13560884717
13560891309
13560898999
13560905957
13560912427
13560919751
13560928357
13560932263
13560942517
13560946912
13560959790
13560968091
13560979627
13560987256
13560994885
13561003980
13561012402
13561021069
13561027966
13561036572
13561046277
13561053967
13561061902
13561069714
13561078442
13561087903
13561094800
13561106946
13561114514
13561123608
13561131848
13561140210
13561147900
13561154980
13561163403
13561172924
13561182385
13561191662
13561202404
13561212231
13561220959
13561228527
13561240368
13561248730
13561258251
13561267895
13561275219
13561287365
13561295178
13561305492
13561312328
13561319286
13561325939
13561335033
13561340710
13561349255
13561366772
13561385082
13561402721
13561430187
13561449169
13561484813
13561507579
13561528270
13561547618
13561559093
13561567760
13561578319
13561591625
13561606822
13561620738
13561634410
13561647105
13561655223
13561663829
13561670482
13561678355
13561685863
13561693736
13561700816
13561709788
13561719005
13561728221
13561735911
13561742808
13561749949
13561757701
13561765635
13561773692
13561781138
13561789378
13561796458
13561804026
13561811595
13561818064
13561825450
13561833201
13561841197
13561849009
13561857615
13561865305
13561872874
13561878611
13561887400
13561894175
13561903758
13561909434
13561917612
13561924998
13561934153
13561942393
13561950877
13561958933
13561966074
13561977488
13561985300
13561995737
13562003489
13562015391
13562024180
13562034617
13562043650
13562053843
13562063059
13562072153
13562080881
13562090525
13562099924
13562109140
13562117990
13562128305
13562138498
13562148447
13562160105
13562168222
13562179880
13562191293
13562199045
13562210092
13562219186
13562229074
13562237863
13562245859
13562251596
13562257761
13562263620
13562270334
13562276803
13562284311
13562291086
13562299692
13562305917
13562312875
13562320566
13562329049
13562335946
13562341623
13562348275
13562354013
13562359628
13562365304
13562372079
13562379525
13562387582
13562393869
13562398446
13562404977
13562411386
13562417062
13562423532
13562430551
13562436044
13562443307
13562449044
13562455514
13562462045
13562468087
13562474618
13562482980
13562489571
13562495370
13562501473
13562508248
13562514291
13562520455
13562528756
13562535531
13562541451
13562546822
13562555001
13562560921
13562569161
13562575081
13562583871
13562590340
13562596139
13562601632
13562609139
13562615304
13562622811
13562630379
13562639107
13562646309
13562652779
13562659981
13562666878
13562672799
13562681527
13562687935
13562696907
13562704476
13562710396
13562716377
13562724800
13562730843
13562737496
13562745064
13562754097
13562760506
13562768135
13562774605
13562782112
13562788460
13562796516
13562802498
13562811531
13562817940
13562825447
13562831367
13562840279
13562848946
13562856331
13562862556
13562872627
13562879341
13562887825
13562893989
13562900215
13562907966
13562914619
13562919990
13562928169
13562936287
13562944343
13562950386
13562957161
13562962593
13562971565
13562977424
13562987312
13562994148
13563002754
13563011665
13563020271
13563026191
13563032844
13563038764
13563048164
13563056648
13563063667
13563069831
13563076179
13563083808
13563089912
13563095954
13563105659
13563111762
13563120002
13563128242
13563135017
13563140327
13563147101
13563154243
13563161811
13563169440
13563177619
13563183051
13563189826
13563198127
13563202949
13563211249
13563219184
13563227301
13563232062
13563240119
13563247077
13563252997
13563260749
13563268134
13563275885
13563285773
13563291693
13563299811
13563307257
13563311774
13563316779
13563322516
13563327277
13563335211
13563341010
13563346808
13563351447
13563356940
13563362250
13563368781
13563375311
13563380499
13563387335
13563392828
13563399420
13563403448
13563409552
13563414496
13563419073
13563423590
13563431891
13563435614
13563441412
13563445929
13563452582
13563456671
13563462713
13563467413
13563474005
13563478461
13563483465
13563488592
13563493353
13563499273
13563504278
13563509894
13563516424
13563520697
13563526190
13563531561
13563537787
13563542181
13563548285
13563553473
13563559332
13563564947
13563571356
13563576055
13563581182
13563585760
13563591253
13563595831
13563603033
13563609747
13563615545
13563622015
13563627325
13563631597
13563639654
13563645391
13563653753
13563659795
13563664617
13563669500
13563674322
13563678533
13563684576
13563690679
13563695562
13563701727
13563707830
13563712102
13563717840
13563721929
13563727605
13563733953
13563738775
13563745550
13563750127
13563756841
13563761541
13563767156
13563771062
13563777288
13563781133
13563788823
13563794683
13563799993
13563805303
13563810064
13563813543
13563820012
13563825200
13563832830
13563836858
13563843389
13563848699
13563852727
13563858037
13563864019
13563868230
13563872197
13563879644
13563884465
13563888982
13563892888
13563903874
13563907720
13563913457
13563921819
13563926091
13563933415
13563937505
13563941228
13563946782
13563951848
13563956670
13563962956
13563968694
13563974980
13563979741
13563985112
13563990117
13563995244
13564002080
13564006718
13564014775
13564023564
13564031377
13564038029
13564043584
13564049870
13564057988
13564066838
13564072636
13564077885
13564081975
13564086003
13564090458
13564095402
13564099614
13564105107
13564112675
13564117436
13564121830
13564127568
13564132817
13564138859
13564147953
13564153324
13564160160
13564165165
13564171696
13564178837
13564185856
13564194096
13564201969
13564208866
13564216862
13564224125
13564229191
13564236454
13564244511
13564252140
13564258610
13564265934
13564272038
13564277226
13564284489
13564290897
13564297428
13564305241
13564310368
13564317265
13564323551
13564331119
13564337772
13564344791
13564353641
13564361149
13564368290
13564373722
13564382267
13564387882
13564395572
13564402469
13564407901
13564417484
13564425846
13564431217
13564438053
13564446048
13564453250
13564458805
13564466434
13564475406
13564482852
13564490421
13564495792
13564504154
13564509159
13564516788
13564525150
13564534366
13564540286
13564549198
13564554508
13564561893
13564569156
13564577579
13564585696
13564592471
13564599368
13564608524
13564613223
13564622256
13564629214
13564637942
13564644534
13564652774
13564659427
13564667239
13564675784
13564682193
13564690921
13564699099
13564705813
13564714297
13564721499
13564729800
13564739993
13564747927
13564756106
13564766055
13564772280
13564782962
13564789492
13564799319
13564806033
13564815432
13564822512
13564831851
13564843264
13564850100
13564858340
13564866763
13564874880
13564882693
13564890566
13564898135
13564906802
13564914675
13564922976
13564931460
13564939455
13564946169
13564953554
13564964236
13564971926
13564981997
13564989504
13564997316
13565003847
13565012270
13565018496
13565025332
13565033937
13565042299
13565049318
13565054628
13565060671
13565068544
13565074404
13565082704
13565088747
13565098146
13565104372
13565112062
13565117983
13565125490
13565131960
13565140444
13565146486
13565156007
13565162843
13565171022
13565178102
13565186403
13565192934
13565200929
13565207216
13565213197
13565223024
13565231691
13565237733
13565246217
13565254274
13565259767
13565267396
13565275087
13565283449
13565291444
13565299440
13565307191
13565313112
13565320558
13565327821
13565334901
13565346009
13565354188
13565360170
13565366944
13565376161
13565382630
13565389527
13565397889
13565405824
13565412354
13565421266
13565427308
13565434876
13565443604
13565449403
13565457276
13565465394
13565476136
13565482789
13565489137
13565495118
13565500672
13565507203
13565513428
13565517457
13565525880
13565530091
13565534913
13565540650
13565546570
13565550416
13565557313
13565562134
13565569092
13565574769
13565579529
13565584290
13565589905
13565595582
13565600953
13565606324
13565614136
13565619751
13565625245
13565629395
13565634461
13565639161
13565644959
13565651245
13565656189
13565662903
13565667664
13565674927
13565678833
13565684998
13565690613
13565694824
13565700562
13565706604
13565711487
13565716126
13565720825
13565725098
13565730347
13565736145
13565739868
13565747559
13565754028
13565759155
13565764221
13565768738
13565774414
13565779907
13565784668
13565792419
13565796204
13565802795
13565807922
13565813476
13565818054
13565824707
13565829529
13565837341
13565842773
13565847900
13565852478
13565859009
13565863159
13565869385
13565873840
13565878113
13565886230
13565890747
13565897644
13565902832
13565907043
13565912109
13565916809
13565921875
13565930542
13565934448
13565941162
13565945739
13565950866
13565955566
13565960754
13565967224
13565971984
13565976440
13565982543
13565986755
13565992187
13565998535
13566002502
13566009033
13566015441
13566022033
13566026611
13566033264
13566037414
13566043151
13566047302
13566053344
13566056823
13566063964
13566070251
13566074889
13566079894
13566085937
13566089477
13566096374
13566101012
13566107665
13566113219
13566118835
13566123656
13566131103
13566135924
13566139464
13566145568
13566152526
13566157470
13566161986
13566169188
13566174682
13566181640
13566195495
13566209716
13566219970
13566227904
13566235839
13566244445
13566252196
13566260619
13566268798
13566276122
13566280638
13566286132
13566290892
13566295653
13566300536
13566304930
13566311766
13566317015
13566321715
13566327391
13566334044
13566340819
13566347777
13566354735
13566363219
13566367552
13566375426
13566383849
13566390379
13566396361
13566403014
13566411070
13566419127
13566425474
13566433226
13566439451
13566448912
13566454954
13566461485
13566469237
13566476744
13566483275
13566491209
13566499327
13566505430
13566513609
13566520872
13566527037
13566536192
13566545469
13566552916
13566558592
13566565977
13566573728
13566581297
13566588194
13566596067
13566604490
13566612669
13566620481
13566627622
13566635313
13566640074
13566648924
13566655332
13566665647
13566672361
13566679136
13566687315
13566694944
13566701231
13566708616
13566716245
13566725400
13566731748
13566737607
13566747678
13566755979
13566762021
13566769895
13566777158
13566785093
13566796018
13566802121
13566811704
13566819455
13566827878
13566833310
13566844358
13566851194
13566859800
13566868161
13566877317
13566885678
13566892087
13566900571
13566910031
13566916806
13566927182
13566933530
13566942075
13566950192
13566958615
13566964963
13566975217
13566985593
13566993527
13567002805
13567010251
13567020566
13567027402
13567035519
13567044003
13567050534
13567059750
13567065854
13567074826
13567081051
13567091061
13567097287
13567106015
13567114682
13567122067
13567130612
13567137692
13567145932
13567154904
13567163021
13567169491
13567178280
13567186093
13567194210
13567201962
13567210079
13567217404
13567225399
13567232967
13567241512
13567249508
13567257870
13567265377
13567273556
13567281918
13567289303
13567295650
13567304317
13567313229
13567321163
13567329098
13567337215
13567344478
13567353084
13567362545
13567371944
13567378414
13567386348
13567395199
13567405513
13567412655
13567421077
13567428951
13567437007
13567445552
13567453487
13567460506
13567469051
13567476558
13567484615
13567491695
13567498775
13567507808
13567515010
13567524715
13567531978
13567539913
13567546321
13567554988
13567561702
13567572749
13567579768
13567588741
13567597163
13567603206
13567612483
13567620967
13567628108
13567636287
13567646846
13567654902
13567663081
13567671748
13567679744
13567687739
13567694514
13567701716
13567711055
13567718196
13567726435
13567733577
13567740901
13567745906
13567753901
13567759455
13567765437
13567770137
13567774470
13567780940
13567787776
13567792903
13567799555
13567808772
13567814509
13567824030
13567828974
13567835566
13567839289
13567846003
13567852595
13567857417
13567862482
13567868403
13567873957
13567880122
13567884821
13567889948
13567896967
13567903010
13567908930
13567913630
13567920649
13567925898
13567932673
13567937006
13567942255
13567948603
13567955561
13567959467
13567966486
13567971552
13567977839
13567983515
13567989130
13567995051
13568000788
13568006769
13568011408
13568017633
13568021845
13568028193
13568033319
13568040400
13568045038
13568050775
13568057917
13568066156
13568072870
13568078852
13568083246
13568091181
13568095575
13568101862
13568106684
13568114740
13568119196
13568125726
13568129938
13568136591
13568142206
13568147455
13568153253
13568159845
13568166315
13568170770
13568175775
13568182855
13568187677
13568193964
13568198419
13568207147
13568211725
13568218255
13568223382
13568227594
13568234674
13568239740
13568244928
13568251764
13568258233
13568264642
13568270440
13568276544
13568281610
13568287469
13568293451
13568299981
13568306756
13568311395
13568317926
13568322686
13568329522
13568334161
13568339044
13568346185
13568351007
13568357965
13568363702
13568368951
13568372857
13568380181
13568384088
13568391839
13568398187
13568403008
13568408502
13568414300
13568420770
13568427606
13568433770
13568439813
13568445001
13568452081
13568457391
13568463494
13568468682
13568473992
13568478631
13568484124
13568488885
13568493096
13568500909
13568504754
13568511529
13568516778
13568520806
13568524834
13568532036
13568538445
13568542412
13568547967
13568553643
13568559380
13568565545
13568569329
13568576348
13568580010
13568588982
13568593255
13568600884
13568606133
13568610650
13568617546
13568622673
13568631829
13568641350
13568647637
13568653496
13568662468
13568670403
13568678520
13568686455
13568694328
13568702751
13568711174
13568719109
13568726250
13568733818
13568743523
13568751518
13568758842
13568766533
13568774956
13568780998
13568790153
13568796501
13568805717
13568814323
13568820915
13568830498
13568838432
13568848259
13568854118
13568862968
13568870903
13568878044
13568886223
13568895012
13568900016
13568910148
13568917961
13568929313
13568937614
13568945121
13568954704
13568961540
13568970939
13568976982
13568991142
13568999809
13569005119
13569015556
13569023856
13569031425
13569040336
13569048454
13569054679
13569064262
13569070731
13569079215
13569087699
13569093803
13569103263
13569111503
13569118095
13569126395
13569135306
13569140433
13569150931
13569159293
13569166434
13569174674
13569188773
13569199637
13569207755
13569216483
13569223319
13569231681
13569240470
13569246451
13569256034
13569264212
13569271536
13569279166
13569286978
13569294180
13569302359
13569309256
13569319449
13569326163
13569335989
13569342886
13569351920
13569359183
13569366385
13569372671
13569381888
13569388602
13569396597
13569405142
13569413077
13569420950
13569429434
13569437124
13569445975
13569453360
13569461233
13569467398
13569474539
13569484793
13569491751
13569499441
13569505972
13569515676
13569522085
13569530081
13569537466
13569545828
13569554800
13569562551
13569569937
13569577871
13569586477
13569594839
13569602407
13569610403
13569618093
13569623525
13569634206
13569641287
13569651113
13569657949
13569665029
13569671804
13569681997
13569689626
13569695974
13569702688
13569711477
13569721548
13569728994
13569737661
13569744497
13569751333
13569760732
13569768178
13569776967
13569784719
13569791921
13569799611
13569807302
13569814992
13569824025
13569831105
13569840993
13569848867
13569856862
13569862905
13569871755
13569877919
13569885976
13569895070
13569903737
13569912892
13569922231
13569929006
13569937123
13569944020
13569951894
13569962209
13569968861
13569980214
13569985890
13569996571
13570006337
13570014149
13570023488
13570030568
13570038624
13570047169
13570054860
13570062794
13570070607
13570078114
13570085438
13570092518
13570097828
13570105214
13570110096
13570114979
13570119801
13570126454
13570130787
13570136830
13570142872
13570147816
13570154896
13570160633
13570166432
13570171131
13570178211
13570183766
13570189869
13570193348
13570201893
13570206043
13570213429
13570218800
13570224110
13570228993
13570235462
13570241139
13570249439
13570255177
13570260487
13570265491
13570271595
13570275745
13570279530
13570286671
13570292408
13570301014
13570306446
13570311756
13570317432
13570322925
13570328846
13570335499
13570341175
13570349964
13570356617
13570361927
13570368458
13570373584
13570379749
13570385669
13570389515
13570396717
13570402881
13570408924
13570415027
13570421436
13570425525
13570431446
13570436451
13570442737
13570447986
13570454212
13570459705
13570464771
13570470813
13570475025
13570480335
13570486987
13570494556
13570500598
13570506091
13570515003
13570519336
13570526416
13570531726
13570538257
13570542712
13570547961
13570552417
13570559070
13570564441
13570572253
13570577197
13570583240
13570589831
13570595019
13570601489
13570607593
13570611926
13570620471
13570628284
13570635791
13570643176
13570647448
13570652942
13570659106
13570662768
13570670154
13570673510
13570679858
13570684375
13570689990
13570695239
13570700793
13570705493
13570711657
13570716418
13570721545
13570727893
13570732897
13570739489
13570744128
13570750659
13570755480
13570760607
13570767138
13570774035
13570779772
13570784289
13570790209
13570795275
13570800646
13570806139
13570812975
13570818835
13570822558
13570829150
13570834765
13570840868
13570846117
13570851305
13570856432
13570863879
13570868945
13570875780
13570880602
13570887011
13570891527
13570897814
13570904284
13570910204
13570915148
13570921618
13570928026
13570934008
13570939623
13570946093
13570950670
13570955919
13570963671
13570969896
13570978930
13570988207
13570993517
13571001635
13571010118
13571018785
13571026659
13571036241
13571042162
13571052965
13571059496
13571068285
13571077806
13571084703
13571092577
13571103868
13571112535
13571120470
13571128893
13571137010
13571145067
13571152879
13571163621
13571172349
13571179369
13571186082
13571197679
13571205980
13571212633
13571221177
13571228563
13571236497
13571245225
13571255845
13571262498
13571270433
13571277513
13571285508
13571294297
13571303025
13571311753
13571320970
13571331651
13571340928
13571348558
13571356370
13571364183
13571374070
13571382432
13571392075
13571400254
13571408555
13571416978
13571424729
13571433946
13571441026
13571449815
13571455979
13571466599
13571473252
13571479050
13571488938
13571494858
13571504990
13571513962
13571522324
13571528367
13571537888
13571546006
13571553208
13571561142
13571568345
13571579087
13571586716
13571594590
13571602585
13571611008
13571618759
13571626633
13571632981
13571640244
13571650131
13571657273
13571664841
13571674240
13571682053
13571688400
13571694321
13571704697
13571713913
13571720505
13571728806
13571736801
13571744797
13571752975
13571761093
13571769577
13571774582
13571783615
13571790634
13571798996
13571806381
13571815719
13571823044
13571832382
13571838669
13571847336
13571856186
13571861313
13571870041
13571878402
13571886947
13571892929
13571901596
13571910263
13571919784
13571925827
13571934066
13571942184
13571951400
13571957076
13571967086
13571975509
13571985336
13571994247
13572001693
13572010482
13572017318
13572027633
13572034164
13572044357
13572050643
13572056503
13572066512
13572074935
13572083724
13572089767
13572098250
13572106307
13572114608
13572122542
13572130172
13572138961
13572146285
13572153548
13572163985
13572172103
13572188399
13572197188
13572204390
13572214095
13572221358
13572229109
13572235396
13572244307
13572253157
13572261275
13572267684
13572275740
13572284041
13572290511
13572299971
13572307906
13572316939
13572325362
13572333662
13572339583
13572348311
13572356734
13572364607
13572373091
13572379683
13572386580
13572396101
13572403731
13572412764
13572419966
13572428450
13572433516
13572438337
13572444441
13572448164
13572455793
13572459700
13572465620
13572471174
13572477156
13572482222
13572489485
13572493513
13572499250
13572504805
13572510603
13572515913
13572522505
13572527937
13572535932
13572540998
13572546125
13572550520
13572556562
13572563337
13572567121
13572574568
13572579084
13572585859
13572589887
13572597212
13572603315
13572608747
13572614729
13572619856
13572625410
13572631879
13572637617
13572645002
13572650251
13572656782
13572662031
13572668745
13572673444
13572681379
13572688154
13572692243
13572699811
13572704206
13572710554
13572717206
13572724836
13572728925
13572736677
13572744550
13572748823
13572753949
13572760419
13572765180
13572770490
13572777387
13572783490
13572788190
13572794416
13572798810
13572804914
13572809735
13572815534
13572821271
13572827252
13572833783
13572839276
13572844953
13572850507
13572858747
13572865521
13572871686
13572875714
13572882001
13572887738
13572891950
13572896954
13572902814
13572906598
13572912579
13572918744
13572925153
13572930707
13572936627
13572942059
13572947064
13572952069
13572958234
13572963971
13572968304
13572973736
13572979779
13572985882
13572991070
13572997235
13573002423
13573007733
13573014996
13573019818
13573025677
13573032086
13573037335
13573043805
13573048443
13573054608
13573058575
13573065594
13573069378
13573076397
13573081158
13573087750
13573093243
13573097210
13573104840
13573109600
13573114971
13573120343
13573126202
13573131817
13573136517
13573143170
13573148907
13573154705
13573159893
13573165203
13573169659
13573177105
13573181866
13573187420
13573191815
13573198223
13573204327
13573210735
13573215191
13573220684
13573225689
13573231365
13573236858
13573242718
13573249004
13573252911
13573259441
13573264690
13573271892
13573277325
13573284710
13573290386
13573295696
13573305828
13573312969
13573322002
13573331035
13573339824
13573348552
13573357280
13573365459
13573373150
13573381084
13573388225
13573395610
13573404583
13573411846
13573420208
13573427227
13573437908
13573444683
13573451946
13573461040
13573467693
13573475261
13573485881
13573492290
13573502116
13573513713
13573523357
13573531902
13573539226
13573546062
13573555949
13573563823
13573571086
13573577922
13573586650
13573593669
13573603557
13573611003
13573619182
13573625590
13573634318
13573640849
13573651164
13573658000
13573665995
13573672831
13573680644
13573689616
13573697795
13573706645
13573714946
13573721842
13573729960
13573738688
13573743571
13573753276
13573760111
13573767985
13573778239
13573786601
13573794230
13573802836
13573810038
13573816630
13573827860
13573837382
13573844340
13573852213
13573861124
13573868998
13573875407
13573884012
13573890909
13573898600
