14057962302
14057968467
14057974570
14057979331
14057985007
14057989890
14057996665
14058002158
14058008445
14058014121
14058021323
14058026450
14058032981
14058038046
14058043540
14058047690
14058053305
14058059897
14058066489
14058071005
14058077048
14058085837
14058091574
14058097556
14058103476
14058109579
14058115500
14058121848
14058126364
14058132834
14058138998
14058145346
14058151266
14058158285
14058163840
14058171164
14058178488
14058186178
14058191855
14058198324
14058206381
14058212057
14058219504
14058225912
14058233053
14058239645
14058248495
14058257223
14058266195
14058272055
14058278707
14058284201
14058294760
14058300680
14058306845
14058314047
14058318991
14058326071
14058331076
14058337850
14058345175
14058351522
14058358663
14058365011
14058371725
14058375570
14058383383
14058389303
14058396322
14058404012
14058410665
14058417074
14058422689
14058428793
14058435323
14058441732
14058448141
14058454977
14058460531
14058467306
14058473531
14058480489
14058486532
14058493246
14058503621
14058515218
14058522847
14058528402
14058537374
14058545247
14058554708
14058562337
14058569905
14058576680
14058581990
14058588765
14058594258
14058601400
14058607381
14058616292
14058622823
14058629720
14058636189
14058642903
14058649373
14058656514
14058663655
14058669881
14058677449
14058683370
14058689778
14058696004
14058704182
14058709126
14058716634
14058722981
14058728169
14058734578
14058740498
14058746358
14058753865
14058759663
14058766987
14058774129
14058781026
14058784871
14058792805
14058800007
14058806538
14058813435
14058818562
14058826497
14058831563
14058838093
14058845112
14058852436
14058858113
14058865620
14058870686
14058878315
14058882222
14058890217
14058894612
14058903218
14058909870
14058916523
14058923542
14058930195
14058935444
14058942036
14058950215
14058955219
14058962788
14058967548
14058974445
14058979145
14058986713
14058992146
14058999104
14059005207
14059012165
14059017719
14059024494
14059029987
14059036396
14059042866
14059052326
14059060444
14059065571
14059071857
14059078510
14059082844
14059092365
14059097614
14059106525
14059113971
14059119220
14059125812
14059135578
14059142353
14059151264
14059158466
14059165302
14059177753
14059186237
14059196613
14059204120
14059210773
14059216571
14059223651
14059230182
14059237445
14059243366
14059249896
14059256610
14059265155
14059271259
14059278766
14059285236
14059292621
14059299030
14059305072
14059314166
14059319720
14059323688
14059332843
14059339862
14059347186
14059351520
14059360248
14059365192
14059373981
14059378558
14059388507
14059393329
14059403399
14059408221
14059418292
14059426532
14059434283
14059442035
14059449542
14059454058
14059462664
14059469256
14059476825
14059482318
14059487078
14059491595
14059495928
14059502032
14059507708
14059512957
14059518878
14059524493
14059529864
14059533465
14059540728
14059543780
14059549029
14059553484
14059559832
14059563372
14059569781
14059574786
14059580462
14059585284
14059590350
14059595110
14059600604
14059605669
14059611651
14059616717
14059622576
14059627520
14059632891
14059637835
14059643816
14059647051
14059655474
14059660357
14059666826
14059671770
14059676592
14059680376
14059685686
14059690142
14059696306
14059700640
14059707293
14059712908
14059719317
14059723589
14059728594
14059734636
14059742022
14059748552
14059755754
14059760149
14059766314
14059773821
14059781816
14059788774
14059795061
14059803972
14059808123
14059813188
14059818071
14059823870
14059827776
14059834795
14059839617
14059843828
14059846941
14059854326
14059858415
14059864397
14059869585
14059875810
14059879656
14059884844
14059889970
14059894731
14059899675
14059903154
14059909502
14059913225
14059919756
14059923540
14059929948
14059933183
14059939104
14059942888
14059950212
14059955583
14059959917
14059965349
14059969926
14059974687
14059981157
14059989213
14059993913
14059997331
14060004350
14060009721
14060014421
14060017900
14060024614
14060030534
14060037370
14060043351
14060047746
14060053178
14060058732
14060061357
14060071061
14060078630
14060083451
14060088273
14060092790
14060098710
14060103105
14060108110
14060112748
14060120683
14060125382
14060131730
14060136308
14060141618
14060147416
14060152421
14060158647
14060161210
14060170670
14060173966
14060180741
14060184037
14060191727
14060195329
14060202042
14060207536
14060214005
14060219498
14060225175
14060229874
14060234635
14060239518
14060244645
14060248856
14060254533
14060261063
14060268326
14060275895
14060282242
14060290299
14060303666
14060313981
14060320939
14060332901
14060340592
14060351151
14060356827
14060368607
14060376725
14060384476
14060393387
14060402176
14060410416
14060417618
14060426285
14060433121
14060442459
14060451187
14060459000
14060465958
14060473587
14060481033
14060489212
14060498001
14060506363
14060514236
14060519852
14060528885
14060534622
14060542313
14060550308
14060558365
14060566482
14060573501
14060581009
14060587478
14060593765
14060602005
14060608413
14060619339
14060626297
14060634292
14060638321
14060647049
14060653762
14060660781
14060668838
14060676162
14060683853
14060690872
14060698074
14060705032
14060711379
14060718826
14060728408
14060734756
14060742690
14060748733
14060758315
14060764846
14060771499
14060784011
14060793777
14060799026
14060807876
14060814346
14060823135
14060830154
14060836867
14060845656
14060852431
14060861404
14060867995
14060876540
14060884231
14060891067
14060899062
14060907180
14060915358
14060921645
14060929030
14060936843
14060944167
14060950332
14060959121
14060967238
14060974562
14060983290
14060991530
14060999526
14061004592
14061014662
14061019301
14061029677
14061035658
14061048964
14061054579
14061065627
14061075209
14061087416
14061095168
14061103651
14061112196
14061120497
14061126906
14061134657
14061140517
14061148451
14061154982
14061165358
14061170119
14061178847
14061184950
14061192946
14061198988
14061208082
14061216444
14061224012
14061230482
14061237684
14061244215
14061251356
14061259291
14061264967
14061274671
14061282972
14061289259
14061296888
14061303541
14061311781
14061319166
14061325636
14061334486
14061339124
14061348585
14061355482
14061363294
14061370863
14061377943
14061384412
14061391798
14061400220
14061405897
14061414381
14061422010
14061429334
14061435438
14061446241
14061455213
14061461072
14061468519
14061476819
14061482740
14061491163
14061500440
14061507764
14061516675
14061523816
14061532422
14061538770
14061547071
14061552808
14061561902
14061570569
14061577588
14061586682
14061592969
14061600904
14061609143
14061615918
14061623853
14061629895
14061634595
14061639478
14061646436
14061651502
14061655469
14061662305
14061667493
14061675122
14061678967
14061684338
14061688794
14061693799
14061699353
14061703931
14061709668
14061715405
14061720959
14061725232
14061730603
14061737500
14061744275
14061748608
14061756543
14061763318
14061768445
14061773511
14061779431
14061784680
14061791638
14061798657
14061803845
14061807019
14061813855
14061819836
14061825451
14061830090
14061835705
14061840405
14061846325
14061851086
14061855969
14061861218
14061867382
14061872387
14061877941
14061884472
14061889721
14061894909
14061900402
14061905590
14061910107
14061914990
14061919445
14061924328
14061928906
14061934643
14061939343
14061946118
14061949352
14061956677
14061962170
14061969616
14061973339
14061979076
14061984264
14061990246
14061995007
14061999889
14062005199
14062011913
14062016979
14062022900
14062028393
14062033398
14062037609
14062042797
14062049389
14062056164
14062062572
14062067455
14062073437
14062079113
14062083751
14062087108
14062093517
14062100170
14062107006
14062110790
14062118419
14062124157
14062128307
14062133312
14062139293
14062144664
14062151195
14062156932
14062162242
14062166881
14062171764
14062176342
14062182811
14062187572
14062196178
14062200817
14062207225
14062212352
14062217052
14062222484
14062227123
14062233592
14062237804
14062245006
14062250743
14062255016
14062260021
14062267589
14062271190
14062276988
14062282359
14062291209
14062295848
14062304149
14062312328
14062316905
14062325084
14062330760
14062339366
14062345286
14062352855
14062358775
14062364635
14062369822
14062375743
14062380687
14062385692
14062390330
14062396678
14062401866
14062406260
14062411082
14062417430
14062423411
14062430674
14062436900
14062445384
14062453013
14062458812
14062465037
14062473643
14062482859
14062490245
14062497691
14062503916
14062511790
14062518992
14062521556
14062532176
14062542002
14062548045
14062554942
14062561900
14062569285
14062574473
14062583323
14062590037
14062598277
14062605173
14062613230
14062619700
14062626536
14062632517
14062641611
14062650034
14062658396
14062665293
14062672251
14062680430
14062686289
14062694162
14062702707
14062710581
14062716929
14062724802
14062732065
14062739084
14062746836
14062753855
14062763315
14062772898
14062781076
14062788645
14062794443
14062801828
14062806833
14062816904
14062824899
14062831674
14062840036
14062845834
14062853647
14062860544
14062867014
14062872202
14062882761
14062887766
14062897653
14062902719
14062911935
14062919992
14062925729
14062936471
14062942514
14062950876
14062958749
14062966318
14062973337
14062983774
14062992074
14063002694
14063013009
14063019052
14063030465
14063037301
14063047372
14063057138
14063064462
14063072274
14063080392
14063086984
14063095590
14063102670
14063109384
14063118783
14063126779
14063133859
14063138070
14063147714
14063153146
14063160104
14063169869
14063177193
14063184518
14063189645
14063197640
14063204964
14063211007
14063217477
14063226021
14063232491
14063240914
14063247567
14063252816
14063261178
14063268868
14063276619
14063285286
14063292489
14063298226
14063305306
14063312691
14063321114
14063330513
14063340218
14063345894
14063356087
14063364327
14063372872
14063381905
14063388863
14063397774
14063406380
14063413582
14063421456
14063430184
14063437630
14063445076
14063451973
14063458077
14063466988
14063474556
14063481697
14063485786
14063495064
14063504463
14063510261
14063517891
14063525947
14063532966
14063539253
14063548652
14063556831
14063565559
14063572212
14063580269
14063586982
14063593147
14063599617
14063607429
14063614143
14063623298
14063628425
14063637458
14063646370
14063652473
14063660530
14063666084
14063674751
14063684944
14063692695
14063704597
14063715583
14063727607
14063734931
14063740608
14063747871
14063753181
14063758186
14063765876
14063767829
14063774360
14063779792
14063784064
14063789558
14063793952
14063798652
14063804755
14063810065
14063815986
14063821723
14063824958
14063833137
14063836982
14063844672
14063848823
14063857001
14063861701
14063867682
14063871039
14063877204
14063881110
14063886908
14063891425
14063900214
14063903815
14063909797
14063914313
14063918586
14063925361
14063930976
14063937751
14063942694
14063947760
14063954291
14063960395
14063968634
14063974494
14063981146
14063984992
14063991522
14063997504
14064003119
14064007575
14064012946
14064018195
14064023810
14064025946
14064035224
14064040778
14064046942
14064050543
14064058295
14064065375
14064070563
14064074042
14064084418
14064088690
14064095587
14064100897
14064107428
14064113531
14064120673
14064126227
14064130316
14064134588
14064140387
14064143744
14064150519
14064156317
14064163092
14064167120
14064173834
14064178595
14064183355
14064187811
14064193304
14064198065
14064206305
14064211126
14064217657
14064222418
14064227362
14064233587
14064238897
14064246405
14064253668
14064259405
14064267767
14064276129
14064282843
14064289739
14064295599
14064302740
14064308111
14064314581
14064320257
14064326421
14064332281
14064336736
14064341680
14064346685
14064351202
14064356939
14064362249
14064367437
14064371648
14064375860
14064384161
14064390325
14064395391
14064401067
14064406011
14064410162
14064416143
14064420415
14064425237
14064432134
14064435186
14064441228
14064446355
14064450933
14064454412
14064462591
14064466741
14064474187
14064478093
14064484929
14064490728
14064495855
14064501287
14064505620
14064511480
14064517949
14064523504
14064530889
14064537297
14064545720
14064551824
14064559026
14064566289
14064576970
14064581914
14064591435
14064595952
14064605351
14064609868
14064619451
14064628301
14064636601
14064639287
14064650395
14064658391
14064664250
14064671574
14064679143
14064688420
14064694585
14064702031
14064707768
14064716374
14064722111
14064730229
14064736088
14064746586
14064752995
14064762272
14064768986
14064777897
14064784611
14064796269
14064804875
14064811284
14064819645
14064825932
14064834172
14064842350
14064848759
14064856816
14064866520
14064874394
14064885319
14064896671
14064903324
14064913883
14064923527
14064934757
14064944279
14064953556
14064961674
14064970341
14064977055
14064984806
14064990055
14064997135
14065004398
14065011417
14065017399
14065025150
14065031986
14065041569
14065047611
14065064091
14065072941
14065080936
14065089237
14065098148
14065105350
14065113346
14065124332
14065132511
14065140689
14065149356
14065156253
14065167545
14065174564
14065183597
14065190189
14065198490
14065207340
14065214053
14065223880
14065232181
14065239200
14065248416
14065255313
14065263614
14065272708
14065280338
14065288089
14065295962
14065303287
14065311343
14065317630
14065325320
14065332217
14065339541
14065345950
14065356326
14065362918
14065370608
14065377994
14065383914
14065392093
14065400088
14065408938
14065415347
14065423159
14065428958
14065437014
14065444949
14065452761
14065458682
14065468997
14065475527
14065484683
14065490725
14065499270
14065505801
14065515994
14065523501
14065532168
14065540041
14065549258
14065553896
14065562869
14065569338
14065576907
14065585818
14065594851
14065603701
14065610598
14065618838
14065626772
14065635561
14065646303
14065657717
14065666567
14065673586
14065683474
14065690249
14065700625
14065710817
14065718203
14065725832
14065731264
14065739565
14065745180
14065754885
14065761049
14065770571
14065777040
14065784914
14065790590
14065798036
14065804201
14065812929
14065822695
14065830324
14065837465
14065844789
14065852724
14065859804
14065864931
14065869264
14065877443
14065882387
14065887209
14065893800
14065897584
14065901735
14065907472
14065912416
14065918642
14065922059
14065930116
14065933839
14065940370
14065946229
14065951784
14065956849
14065964540
14065968385
14065974855
14065980592
14065986085
14065992494
14065998231
14066004884
14066010133
14066016175
14066022157
14066026979
14066032533
14066036439
14066043153
14066046754
14066053590
14066057435
14066064942
14066069032
14066076295
14066080018
14066087281
14066091371
14066098817
14066102601
14066109132
14066114625
14066121217
14066125001
14066132325
14066139832
14066158631
14066163453
14066169678
14066175965
14066182130
14066187135
14066195863
14066200440
14066206422
14066212891
14066217347
14066223694
14066229066
14066234131
14066240662
14066247559
14066257020
14066262757
14066268860
14066274048
14066282044
14066288147
14066299317
14066303589
14066312256
14066315979
14066323243
14066328553
14066334717
14066339905
14066346009
14066350830
14066356201
14066360962
14066365845
14066370484
14066377869
14066383667
14066389771
14066393982
14066399109
14066404907
14066410034
14066415222
14066417053
14066424317
14066430664
14066435120
14066439453
14066444885
14066450256
14066454712
14066460571
14066464355
14066472046
14066476685
14066482727
14066486877
14066490112
14066499084
14066502563
14066509155
14066513489
14066521911
14066527405
14066531616
14066534912
14066542602
14066546325
14066552917
14066558349
14066565552
14066569519
14066576111
14066579529
14066586548
14066590271
14066595520
14066604065
14066609619
14066616699
14066621826
14066626159
14066631530
14066640808
14066645141
14066652099
14066658813
14066664367
14066669921
14066674560
14066679992
14066684814
14066690978
14066695190
14066703552
14066709960
14066717895
14066724365
14066731200
14066739623
14066746581
14066755492
14066762817
14066769286
14066771728
14066784179
14066792297
14066798949
14066807799
14066814941
14066823058
14066831420
14066838317
14066847228
14066854308
14066862975
14066872252
14066881286
14066890746
14066898497
14066911620
14066925475
14066938536
14066949950
14066957884
14066964659
14066972472
14066979308
14066987547
14066994933
14067003295
14067006346
14067018919
14067021849
14067032713
14067039977
14067046446
14067054808
14067061583
14067070433
14067077391
14067083006
14067093382
14067098448
14067107542
14067114928
14067123595
14067130858
14067139036
14067146177
14067153746
14067160338
14067169310
14067175535
14067182737
14067191710
14067199766
14067206541
14067215940
14067222532
14067227537
14067239500
14067245176
14067254454
14067262571
14067271849
14067279234
14067287657
14067294554
14067301878
14067311277
14067318296
14067325193
14067334104
14067342832
14067350706
14067359251
14067366514
14067374998
14067380552
14067390806
14067399045
14067406126
14067413328
14067422544
14067429685
14067438413
14067444883
14067454160
14067460630
14067470212
14067476682
14067486326
14067493039
14067502134
14067508725
14067513791
14067524289
14067531736
14067540219
14067547361
14067555234
14067561765
14067571103
14067579465
14067587705
14067594296
14067603208
14067611752
14067619077
14067628232
14067637143
14067645688
14067651913
14067660153
14067667538
14067676633
14067684445
14067693173
14067701169
14067712094
14067723263
14067730038
14067738949
14067748959
14067756955
14067764950
14067772091
14067780575
14067787777
14067795895
14067804379
14067812313
14067818844
14067825741
14067834164
14067841488
14067847409
14067854916
14067863400
14067871273
14067877621
14067885555
14067893185
14067900692
14067906551
14067914486
14067922787
14067927425
14067937252
14067945126
14067951107
14067957760
14067967586
14067975521
14067981564
14067988033
14067997127
14068003597
14068013119
14068018123
14068027340
14068033932
14068041317
14068047481
14068057003
14068063289
14068071529
14068079952
14068086788
14068095394
14068103145
14068109310
14068118892
14068124691
14068129756
14068133968
14068139461
14068143611
14068149166
14068154720
14068161739
14068166011
14068172237
14068176570
14068182918
14068189021
14068194576
14068199031
14068203060
14068210994
14068216121
14068220393
14068223140
14068230830
14068236018
14068241023
14068247554
14068253719
14068259578
14068264461
14068267329
14068274104
14068277400
14068283992
14068289363
14068295161
14068300532
14068306636
14068310908
14068315913
14068321773
14068326961
14068331538
14068338862
14068344111
14068349360
14068353999
14068360225
14068364192
14068370173
14068377742
14068385188
14068392878
14068398066
14068404902
14068411372
14068416011
14068423640
14068432185
14068439082
14068444026
14068449397
14068453913
14068458491
14068463252
14068468257
14068473017
14068480280
14068484431
14068489619
14068494563
14068499079
14068504450
14068509699
14068516291
14068521479
14068527644
14068532526
14068538630
14068544184
14068549982
14068553645
14068562067
14068566584
14068572016
14068577814
14068581660
14068586176
14068592402
14068599177
14068604182
14068609858
14068614435
14068620722
14068626154
14068630854
14068637446
14068645991
14068650873
14068656794
14068662714
14068667719
14068673456
14068677729
14068683100
14068691095
14068697443
14068701227
14068708490
14068713556
14068719843
14068725336
14068731195
14068735590
14068744623
14068750360
14068756952
14068762445
14068767999
14068773065
14068778620
14068784784
14068789911
14068794489
14068800836
14068806085
14068811884
14068816827
14068821649
14068827753
14068834528
14068840814
14068846552
14068850946
14068857294
14068863275
14068868219
14068872980
14068879083
14068886224
14068891168
14068897638
14068902032
14068908197
14068913263
14068918756
14068925104
14068929132
14068937188
14068941278
14068952386
14068966180
14068972894
14068982782
14068992059
14069003839
14069009759
14069022271
14069027764
14069036981
14069043939
14069051873
14069059808
14069071343
14069078362
14069090814
14069099786
14069109490
14069117608
14069129144
14069135796
14069147820
14069157769
14069170525
14069176934
14069193535
14069205742
14069215752
14069225762
14069235955
14069247613
14069254937
14069265801
14069275628
14069286187
14069293816
14069306023
14069316826
14069325188
14069336724
14069346245
14069355828
14069365471
14069375664
14069385246
14069393120
14069405632
14069411247
14069422417
14069433586
14069442802
14069453056
14069460381
14069470695
14069481316
14069490715
14069498894
14069511284
14069520988
14069530449
14069540642
14069551201
14069559868
14069570182
14069579948
14069587761
14069598564
14069607780
14069617302
14069628227
14069639579
14069649345
14069661918
14069672721
14069682304
14069692069
14069705375
14069714286
14069722465
14069735648
14069746391
14069757560
14069767264
14069778800
14069788871
14069800101
14069811698
14069820243
14069834891
14069843558
14069856498
14069866385
14069877494
14069887076
14069902518
14069914542
14069925528
14069937918
14069946219
14069959220
14069968619
14069981680
14069993765
14070003104
14070011099
14070023001
14070031119
14070043448
14070054312
14070062003
14070072989
14070083792
14070094656
14070103628
14070112356
14070122793
14070132620
14070141897
14070150015
14070159720
14070169180
14070177969
14070187368
14070196951
14070206228
14070215200
14070224722
14070234671
14070245535
14070254324
14070264517
14070273123
14070283437
14070291555
14070302969
14070314504
14070324087
14070334402
14070344472
14070353200
14070361257
14070374013
14070382864
14070391225
14070403066
14070412527
14070422658
14070429738
14070440908
14070451467
14070461660
14070473073
14070483144
14070493459
14070502614
14070512136
14070521413
14070530690
14070541005
14070552297
14070560231
14070571218
14070580434
14070590383
14070602406
14070611867
14070620534
14070630605
14070639577
14070648915
14070657887
14070661793
14070670033
14070677479
14070685414
14070690907
14070695119
14070701527
14070704640
14070712025
14070718678
14070722218
14070727345
14070732960
14070737843
14070741932
14070747609
14070752003
14070758351
14070763173
14070770070
14070773671
14070780201
14070784840
14070789418
14070793995
14070798329
14070802967
14070807423
14070812245
14070816761
14070821034
14070825550
14070831898
14070836659
14070841175
14070845936
14070850392
14070853749
14070860096
14070867298
14070872669
14070876942
14070881825
14070886952
14070892017
14070895924
14070901051
14070905262
14070909779
14070913563
14070919483
14070924122
14070929005
14070933399
14070937977
14070942738
14070947193
14070951649
14070956531
14070961231
14070967457
14070972462
14070977405
14070981678
14070987049
14070991566
14070996326
14071000965
14071005848
14071011707
14071015674
14071023182
14071027332
14071033375
14071037525
14071042408
14071046070
14071052906
14071057117
14071063160
14071067188
14071072803
14071078846
14071084705
14071090747
14071095020
14071100391
14071105640
14071111866
14071115039
14071122241
14071128223
14071133228
14071139209
14071144397
14071151172
14071158252
14071161731
14071168323
14071173084
14071179065
14071184436
14071188892
14071194690
14071202686
14071206165
14071213550
14071218921
14071224414
14071228809
14071236926
14071246631
14071255481
14071259814
14071266711
14071271777
14071279285
14071284717
14071293139
14071298083
14071304492
14071309436
14071315234
14071321216
14071327014
14071332751
14071337146
14071343921
14071348254
14071354663
14071358813
14071364001
14071369433
14071375659
14071380053
14071385363
14071389758
14071394580
14071399096
14071404895
14071411364
14071417041
14071421923
14071428820
14071431994
14071439440
14071447253
14071454516
14071461535
14071468920
14071477953
14071483386
14071491564
14071499194
14071506945
14071515917
14071522448
14071530993
14071538988
14071545336
14071554430
14071561022
14071570544
14071578112
14071585497
14071594469
14071599962
14071608813
14071617418
14071624254
14071633165
14071640734
14071647631
14071657946
14071665148
14071672472
14071680162
14071686205
14071696825
14071702990
14071713427
14071719469
14071728990
14071734972
14071743028
14071752062
14071760790
14071770677
14071778368
14071783739
14071792711
14071799303
14071806993
14071817674
14071826219
14071836168
14071841112
14071851488
14071858690
14071866685
14071876756
14071885118
14071893846
14071905076
14071913926
14071922288
14071930284
14071941636
14071947007
14071960191
14071969651
14071976182
14071984422
14071993150
14072000840
14072009874
14072017991
14072024644
14072032212
14072038499
14072045823
14072054734
14072063951
14072069871
14072081040
14072086289
14072099290
14072108811
14072116258
14072124497
14072133103
14072141221
14072149400
14072155808
14072164170
14072174180
14072182419
14072188401
14072195969
14072203538
14072211777
14072221116
14072226243
14072236863
14072245591
14072251999
14072261582
14072267624
14072276657
14072284104
14072292649
14072301255
14072310105
14072317734
14072327256
14072334458
14072341416
14072350510
14072358689
14072366318
14072375168
14072381882
14072389938
14072397385
14072406845
14072413681
14072423019
14072431869
14072440048
14072448776
14072456711
14072464462
14072471054
14072480820
14072485580
14072497116
14072504989
14072512131
14072522995
14072529281
14072536361
14072547714
14072555221
14072563583
14072573593
14072583480
14072590927
14072598617
14072606857
14072614974
14072622482
14072631149
14072642196
14072653793
14072659530
14072669784
14072676315
14072686385
14072694076
14072705184
14072713729
14072719894
14072728744
14072738021
14072745406
14072754989
14072762862
14072769393
14072776290
14072783004
14072790389
14072796309
14072801436
14072807235
14072813521
14072818526
14072824386
14072828048
14072836226
14072842147
14072848800
14072855758
14072861495
14072866988
14072871749
14072877791
14072882979
14072892379
14072898848
14072904341
14072909346
14072913069
14072918196
14072921858
14072924605
14072931441
14072939376
14072945601
14072950911
14072957320
14072962447
14072969161
14072973860
14072979231
14072986678
14072992598
14072998457
14073002730
14073007857
14073013777
14073019759
14073025923
14073032210
14073037947
14073044600
14073049971
14073056258
14073061629
14073068342
14073074202
14073078902
14073084883
14073089277
14073096052
14073101484
14073109053
14073112593
14073121321
14073127241
14073134199
14073139387
14073145857
14073150618
14073157454
14073163557
14073171125
14073176558
14073182661
14073188765
14073194807
14073200972
14073207380
14073213301
14073218794
14073224043
14073230085
14073236799
14073242903
14073248762
14073256880
14073260237
14073272321
14073275129
14073286787
14073291242
14073298750
14073303083
14073309431
14073314863
14073322126
14073325666
14073332319
14073337141
14073342268
14073348066
14073353498
14073358137
14073364301
14073368452
14073374982
14073380353
14073386640
14073391462
14073397199
14073401716
14073407270
14073414350
14073419904
14073426374
14073430036
14073437543
14073441327
14073449872
14073455793
14073461225
14073466413
14073471662
14073477338
14073484540
14073489179
14073494184
14073501447
14073509931
14073515668
14073522138
14073526715
14073530622
14073539289
14073543134
14073550031
14073554425
14073563031
14073568402
14073575055
14073580243
14073586347
14073591351
14073598065
14073604291
14073611493
14073618512
14073623029
14073629193
14073634137
14073644696
14073650006
14073661359
14073666424
14073677350
14073682294
14073692669
14073701031
14073711712
14073720501
14073729229
14073737835
14073745404
14073754620
14073760540
14073771710
14073777142
14073788311
14073796368
14073804669
14073814068
14073820904
14073830242
14073839337
14073846783
14073855084
14073864605
14073873760
14073888592
14073897015
14073904888
14073912823
14073922588
14073930706
14073940227
14073954327
14073962932
14073972759
14073980205
14073991802
14073998699
14074009990
14074017681
14074026165
14074034710
14074042339
14074051433
14074056865
14074066082
14074075115
14074082073
14074090251
14074099590
14074108257
14074115947
14074125408
14074134075
14074143901
14074152141
14074158550
14074166545
14074174663
14074181865
14074190349
14074197612
14074206523
14074215800
14074222331
14074231181
14074238628
14074248149
14074254191
14074262675
14074270854
14074279155
14074286174
14074291850
14074299785
14074307414
14074314799
14074320903
14074330607
14074338420
14074346049
14074353923
14074360942
14074370341
14074378459
14074387431
14074395610
14074404216
14074410319
14074421000
14074428019
14074435832
14074441691
14074450053
14074459879
14074468607
14074474345
14074483134
14074487772
14074497416
14074505351
14074512003
14074520609
14074529215
14074536784
14074545634
14074552470
14074560587
14074566569
14074575541
14074582194
14074591166
14074600443
14074607706
14074613566
14074620890
14074628946
14074637735
14074643961
14074650187
14074663492
14074669779
14074677408
14074687662
14074697122
14074703897
14074712259
14074720987
14074729715
14074737406
14074743326
14074752786
14074765482
14074773660
14074783670
14074792520
14074800272
14074809244
14074817117
14074824625
14074833536
14074840616
14074847818
14074857095
14074862283
14074873086
14074877786
14074888162
14074896524
14074904336
14074911050
14074918252
14074920938
14074931253
14074937539
14074944619
14074952554
14074957925
14074966287
14074974099
14074979898
14074987588
14074993997
14075002664
14075008523
14075016946
14075024270
14075031106
14075039346
14075046182
14075055764
14075063027
14075070352
14075074929
14075082742
14075086831
14075093545
14075100320
14075105508
14075111794
14075117287
14075122964
14075129250
14075134255
14075137612
14075144204
14075149453
14075153786
14075160744
14075167275
14075172829
14075177956
14075182290
14075191872
14075197426
14075202370
14075210610
14075216530
14075220009
14075229226
14075235512
14075240578
14075246193
14075250710
14075257180
14075262123
14075265786
14075272744
14075276223
14075287026
14075290810
14075297158
14075301064
14075308266
14075313332
14075318642
14075322914
14075330788
14075333656
14075342446
14075347267
14075353676
14075358620
14075364723
14075370400
14075375527
14075380898
14075385719
14075393654
14075403053
14075412270
14075416481
14075422951
14075429481
14075437172
14075443336
14075449013
14075455116
14075462684
14075468361
14075473793
14075479957
14075486061
14075492409
14075497474
14075503456
14075509315
14075514320
14075519020
14075524452
14075528175
14075536842
14075542640
14075547950
14075554481
14075560951
14075566322
14075570533
14075577064
14075581642
14075587562
14075592262
14075596168
14075600196
14075605995
14075609779
14075616859
14075622413
14075626808
14075632484
14075638465
14075645606
14075650672
14075656776
14075664649
14075669410
14075674598
14075679115
14075683814
14075690040
14075694923
14075702064
14075709266
14075714149
14075719398
14075723975
14075729102
14075735145
14075740150
14075746436
14075751380
14075757300
14075761878
14075767188
14075774451
14075781043
14075787635
14075792518
14075797828
14075803077
14075808631
14075813636
14075818763
14075825354
14075830665
14075834937
14075840979
14075846900
14075851966
14075859717
14075867957
14075876746
14075884009
14075893103
14075899756
14075910926
14075918189
14075927527
14075932837
14075944006
14075954443
14075964880
14075974219
14075982398
14075990637
14076006567
14076017798
14076032263
14076043433
14076050757
14076064673
14076073157
14076090063
14076096655
14076109594
14076119604
14076130041
14076138098
14076147436
14076158361
14076169958
14076178808
14076185095
14076197180
14076206335
14076216345
14076224523
14076235204
14076244482
14076254736
14076262182
14076270422
14076277441
14076285741
14076292455
14076301366
14076311193
14076318578
14076326818
14076334325
14076342016
14076350500
14076356664
14076363500
14076375158
14076383947
14076391393
14076398412
14076403905
14076412755
14076418981
14076429357
14076437597
14076446874
14076452672
14076460179
14076467504
14076474828
14076484655
14076493138
14076502050
14076507665
14076515721
14076522252
14076530858
14076540196
14076550084
14076557897
14076565892
14076572911
14076579259
14076588719
14076594579
14076606053
14076615208
14076622777
14076630162
14076638280
14076645970
14076653660
14076663853
14076672276
14076679661
14076686497
14076693944
14076702000
14076707615
14076718174
14076724644
14076733494
14076741429
14076748875
14076756443
14076763401
14076777623
14076782811
14076794895
14076803807
14076811436
14076820835
14076831394
14076843784
14076848545
14076858799
14076863438
14076873997
14076879124
14076887913
14076896091
14076903233
14076910068
14076915501
14076923191
14076930576
14076938450
14076945103
14076954685
14076963840
14076972202
14076978672
14076988498
14076993442
14077003269
14077012180
14077020359
14077027622
14077036777
14077043247
14077051365
14077059055
14077067600
14077075229
14077083164
14077091159
14077099399
14077105686
14077114597
14077125827
14077136630
14077143527
14077149997
14077160312
14077166904
14077174472
14077182834
14077195041
14077203281
14077209628
14077218112
14077225864
14077233188
14077241672
14077250278
14077257052
14077262424
14077267306
14077273166
14077277072
14077284274
14077288730
14077295382
14077300265
14077307406
14077311313
14077320041
14077325656
14077332797
14077337619
14077344577
14077350497
14077356601
14077361422
14077366122
14077371432
14077376254
14077382968
14077388278
14077394808
14077400485
14077407199
14077412875
14077419772
14077424471
14077430636
14077435702
14077441683
14077448275
14077454501
14077458590
14077466219
14077473238
14077480624
14077487582
14077492953
14077500033
14077504855
14077510714
14077516817
14077520724
14077528475
14077531954
14077539522
14077542818
14077550631
14077553927
14077560518
14077566439
14077572054
14077576449
14077582064
14077587862
14077592501
14077599398
14077605501
14077613314
14077618685
14077625338
14077630098
14077636629
14077640718
14077646151
14077651827
14077657503
14077662264
14077669466
14077674044
14077680757
14077685945
14077691927
14077700106
14077705904
14077712801
14077718477
14077723970
14077729646
14077736727
14077742220
14077748018
14077753877
14077758333
14077764070
14077769502
14077775301
14077779817
14077786897
14077792390
14077798067
14077804048
14077809785
14077815828
14077820650
14077826082
14077829378
14077836580
14077844026
14077848909
14077852449
14077861360
14077867647
14077874238
14077877656
14077884614
14077890169
14077897432
14077903291
14077909883
14077914888
14077921052
14077926240
14077932039
14077936738
14077944795
14077949922
14077959565
14077966279
14077972077
14077977449
14077984162
14077991365
14077998445
14078003694
14078008821
14078015840
14078021943
14078027497
14078033540
14078043427
14078049897
14078058198
14078064790
14078069795
14078077058
14078080537
14078088410
14078094941
14078100373
14078105866
14078111359
14078116852
14078123383
14078130585
14078137665
14078147797
14078153229
14078161591
14078167573
14078176301
14078183137
14078189240
14078195893
14078205903
14078211091
14078219758
14078226532
14078233735
14078238861
14078247467
14078256379
14078263703
14078271637
14078277314
14078286286
14078291779
14078300263
14078309357
14078317475
14078323761
14078332184
14078338654
14078347565
14078354645
14078361298
14078368317
14078378021
14078388275
14078394012
14078402252
14078410553
14078417450
14078424347
14078434051
14078441254
14078448578
14078456940
14078462738
14078471832
14078478607
14078486847
14078494110
14078503265
14078511749
14078519073
14078524994
14078532745
14078543243
14078552337
14078559906
14078566253
14078575286
14078583160
14078590606
14078599945
14078608428
14078614898
14078623260
14078632903
14078639373
14078646026
14078654998
14078664764
14078673187
14078679595
14078690826
14078697173
14078707854
14078716643
14078725188
14078734893
14078741057
14078750213
14078758330
14078766082
14078774077
14078784575
14078795501
14078805083
14078813811
14078820464
14078829009
14078838530
14078847564
14078854338
14078861907
14078870208
14078877776
14078884795
14078892180
14078901152
14078910613
14078915618
14078926909
14078937956
14078948149
14078962431
14078970183
14078981108
14078988921
14078996977
14079005217
14079011748
14079021879
14079029082
14079037321
14079046049
14079054899
14079060759
14079070585
14079078276
14079088102
14079094145
14079105192
14079113432
14079123076
14079131742
14079137236
14079148771
14079159330
14079168363
14079176054
14079183317
14079193632
14079201444
14079210295
14079218717
14079227445
14079236051
14079242643
14079252836
14079260709
14079270780
14079280851
14079290128
14079297575
14079305997
14079315214
14079324552
14079331205
14079340909
14079350919
14079359037
14079366849
14079374601
14079383207
14079391691
14079398404
14079407621
14079414640
14079424161
14079432889
14079440946
14079448575
14079457425
14079463163
14079467313
14079475125
14079479337
14079486844
14079492948
14079497647
14079505338
14079512357
14079520596
14079527921
14079533719
14079540433
14079544827
14079553922
14079560513
14079565274
14079571683
14079576993
14079581509
14079586575
14079591519
14079597256
14079601712
14079608426
14079613980
14079620450
14079626797
14079631009
14079635525
14079639859
14079645596
14079651578
14079656033
14079662564
14079667813
14079674038
14079678677
14079685391
14079691006
14079696133
14079702725
14079708889
14079714749
14079721585
14079727688
14079732632
14079737515
14079743618
14079747464
14079754177
14079759854
14079765530
14079769436
14079776272
14079781338
14079785733
14079791714
14079796292
14079801480
14079807888
14079813870
14079819241
14079825955
14079832424
14079838467
14079844509
14079849026
14079855496
14079860683
14079867947
14079872768
14079878506
14079885769
14079892971
14079898830
14079902981
14079909878
14079915859
14079921780
14079927456
14079932827
14079939113
14079946132
14079951687
14079957180
14079963344
14079969814
14079975795
14079981106
14079987209
14079991543
14080000148
14080003994
14080012294
14080016689
14080024623
14080031215
14080037990
14080044094
14080051540
14080057582
14080065700
14080072170
14080081081
14080090358
14080099269
14080105922
14080112270
14080119594
14080128993
14080138454
14080143459
14080154933
14080162990
14080170619
14080177089
14080183314
14080190089
14080197902
14080204005
14080208949
14080213283
14080218165
14080223048
14080227565
14080232204
14080237758
14080242641
14080247218
14080251002
14080255580
14080261012
14080265651
14080271022
14080275844
14080280543
14080288051
14080292872
14080299403
14080307216
14080314174
14080321376
14080334010
14080344569
14080351466
14080356898
14080366419
14080373744
14080380091
14080385279
14080393092
14080398646
14080406947
14080416041
14080422938
14080429041
14080435206
14080442225
14080448939
14080454737
14080460413
14080468958
14080475367
14080484522
14080488612
14080498072
14080505946
14080513087
14080520594
14080528162
14080536036
14080543909
14080550623
14080555933
14080563440
14080571924
14080579676
14080586756
14080596582
14080602076
14080612879
14080621485
14080629053
14080637903
14080648096
14080654444
14080664514
14080673059
14080681909
14080691797
14080703699
14080711694
14080719873
14080729395
14080737451
14080747888
14080756799
14080766748
14080775598
14080782312
14080790979
14080797143
14080804529
14080810998
14080820215
14080827844
14080835168
14080842615
14080850061
14080858240
14080865625
14080873315
14080881372
14080887719
14080895959
14080904138
14080910547
14080919091
14080926049
14080934228
14080940210
14080951318
14080956811
14080966088
14080973718
14080981591
14080991601
14081000573
14081008141
14081014672
14081024926
14081031823
14081040917
14081050683
14081058007
14081066979
14081074303
14081083642
14081088952
14081100426
14081109826
14081118249
14081125756
14081133141
14081143517
14081151818
14081158532
14081168908
14081176415
14081186425
14081191674
14081201317
14081208580
14081215111
14081225121
14081232506
14081240685
14081248497
14081257225
14081265221
14081271385
14081280480
14081289696
14081297142
14081304466
14081313072
14081318443
14081328209
14081337303
14081346092
14081354576
14081361778
14081367516
14081380394
14081388634
14081397301
14081407616
14081414268
14081423118
14081430076
14081440269
14081445518
14081457054
14081463463
14081476890
14081485130
14081493919
14081505882
14081514305
14081520958
14081529563
14081537559
14081545616
14081552024
14081560569
14081565269
14081574729
14081579734
14081591514
14081596153
14081603782
14081609153
14081615196
14081622032
14081627830
14081633811
14081639243
14081644065
14081649070
14081654075
14081658530
14081663047
14081668540
14081675071
14081680381
14081685752
14081690818
14081697166
14081703269
14081710044
14081715903
14081721335
14081726890
14081732749
14081738547
14081744712
14081751365
14081760093
14081766013
14081775474
14081780845
14081788474
14081794150
14081800376
14081806479
14081812095
14081818808
14081825522
14081829184
14081835593
14081840659
14081848349
14081854514
14081859824
14081864707
14081870261
14081877219
14081882163
14081886923
14081894003
14081901145
14081906333
14081911215
14081917258
14081924216
14081929465
14081936118
14081942282
14081947226
14081953085
14081958762
14081963034
14081973227
14081976828
14081983664
14081990073
14081995688
14082000449
14082007834
14082014426
14082020529
14082025351
14082031882
14082037802
14082042502
14082048788
14082052511
14082060751
14082064718
14082073019
14082077719
14082084921
14082091208
14082099386
14082105551
14082110922
14082116293
14082124533
14082132711
14082140097
14082144430
14082150656
14082155477
14082161337
14082167379
14082175131
14082180441
14082185934
14082190817
14082196005
14082201071
14082208029
14082213033
14082219198
14082224142
14082230611
14082237203
14082242208
14082247945
14082252096
14082258321
14082263754
14082270773
14082277853
14082282674
14082286581
14082292806
14082298604
14082305074
14082312032
14082319173
14082324361
14082330221
14082336141
14082341573
14082347249
14082353658
14082358480
14082366170
14082371114
14082377767
14082382772
14082389608
14082394429
14082398214
14082405965
14082410543
14082419027
14082425069
14082430196
14082436177
14082441609
14082447591
14082453023
14082460469
14082466695
14082472066
14082478719
14082484273
14082493184
14082500508
14082508504
14082516133
14082526875
14082531941
14082542561
14082547261
14082558492
14082563557
14082573689
14082581502
14082590047
14082598530
14082607014
14082616536
14082624470
14082634785
14082642109
14082650532
14082657612
14082666707
14082673115
14082680745
14082686909
14082695454
14082703877
14082712056
14082717121
14082727192
14082731648
14082743305
14082748555
14082761616
14082771931
14082777973
14082790302
14082798176
14082806782
14082814777
14082825459
14082831867
14082843342
14082848469
14082857624
14082864582
14082874348
14082879230
14082889606
14082898945
14082906330
14082913776
14082922687
14082928547
14082937092
14082944355
14082951923
14082960590
14082967182
14082976337
14082985370
14082990986
14083000263
14083009540
14083016681
14083023822
14083032001
14083039936
14083045734
14083057025
14083064228
14083073139
14083080829
14083088580
14083095050
14083104450
14083108905
14083118610
14083128253
14083134235
14083142780
14083149554
14083159808
14083164203
14083175006
14083183673
14083189105
14083199725
14083206012
14083214435
14083222064
14083229938
14083239032
14083247271
14083254901
14083263385
14083270465
14083277606
14083285235
14083292254
14083300799
14083309466
14083317340
14083326617
14083332537
14083339801
14083349322
14083357073
14083364092
14083373065
14083380328
14083388201
14083394427
14083402545
14083410296
14083419878
14083428851
14083435442
14083443987
14083450579
14083457049
14083464190
14083474932
14083479876
14083493365
14083502093
14083511065
14083517412
14083528094
14083539263
14083549761
14083559466
14083564959
14083575518
14083579729
14083589861
14083598772
14083605974
14083613604
14083621538
14083629167
14083635210
14083643694
14083653215
14083663408
14083669817
14083677019
14083683306
14083692278
14083698503
14083707720
14083712785
14083724443
14083729631
14083739397
14083743913
14083753740
14083761308
14083769060
14083777238
14083783464
14083791337
14083799516
14083806169
14083813737
14083821916
14083831010
14083838273
14083843950
14083850480
14083855302
14083863908
14083866166
14083873491
14083880876
14083885514
14083891923
14083897355
14083903764
14083908464
14083914079
14083920732
14083927568
14083933122
14083938798
14083944291
14083951005
14083955644
14083963029
14083967240
14083973527
14083977189
14083983964
14083987992
14083994889
14084000810
14084008744
14084013932
14084022782
14084026688
14084035050
14084039384
14084046891
14084052567
14084057755
14084063859
14084070023
14084075577
14084079606
14084087235
14084092362
14084097184
14084104447
14084110551
14084117631
14084124711
14084129410
14084134659
14084141678
14084146134
14084154862
14084163773
14084171036
14084177994
14084184403
14084192154
14084197220
14084201615
14084207169
14084214737
14084219986
14084226090
14084231766
14084237137
14084243302
14084249466
14084255326
14084261124
14084267472
14084273087
14084277481
14084284317
14084289749
14084297257
14084302689
14084311051
14084317276
14084322586
14084327103
14084333145
14084339432
14084343826
14084349991
14084357620
14084362320
14084367752
14084373123
14084376358
14084384903
14084390152
14084396133
14084402664
14084407669
14084411087
14084419754
14084423416
14084431412
14084436355
14084443802
14084448013
14084456924
14084462784
14084467300
14084472244
14084478531
14084483169
14084489639
14084495376
14084501419
14084506607
14084512222
14084516983
14084522781
14084529251
14084534622
14084540542
14084549026
14084553726
14084558975
14084565017
14084568862
14084576675
14084580459
14084586624
14084592178
14084598831
14084604263
14084609756
14084616653
14084620864
14084627212
14084632705
14084638320
14084644241
14084651565
14084656692
14084662612
14084667312
14084673782
14084679397
14084683791
14084690627
14084697402
14084701675
14084710158
14084714797
14084724380
14084729079
14084739211
14084749343
14084758559
14084770522
14084781752
14084791457
14084801162
14084814589
14084822951
14084834304
14084843459
14084852004
14084858718
14084865431
14084872878
14084882155
14084890151
14084896193
14084906691
14084913466
14084920851
14084927138
14084939894
14084946425
14084954298
14084960768
14084969618
14084976210
14084984328
14084991408
14085001600
14085009535
14085017042
14085021620
14085031264
14085038710
14085045729
14085056288
14085062025
14085069716
14085079237
14085087477
14085094435
14085103346
14085111830
14085119825
14085128797
14085134413
14085143324
14085149855
14085158949
14085166273
14085175001
14085182447
14085190748
14085198133
14085209547
14085217115
14085224928
14085232923
14085243421
14085248487
14085259351
14085265150
14085280286
14085290235
14085298475
14085307874
14085315687
14085321302
14085329053
14085337476
14085345228
14085351819
14085359754
14085369764
14085377698
14085384290
14085392286
14085399060
14085406568
14085415113
14085420972
14085432019
14085438855
14085446118
14085454602
14085461682
14085467603
14085477735
14085485303
14085493909
14085501050
14085509229
14085518384
14085526379
14085533826
14085543469
14085551038
14085560437
14085570447
14085577954
14085586255
14085593274
14085602246
14085611767
14085621106
14085627942
14085636120
14085643139
14085650830
14085657422
14085665234
14085672802
14085682263
14085689160
14085698437
14085705456
14085714001
14085723584
14085733959
14085741955
14085748242
14085755139
14085764355
14085769055
14085777599
14085784985
14085794018
14085801891
14085812817
14085818310
14085827709
14085834728
14085842785
14085849804
14085858166
14085866527
14085874950
14085882336
14085888317
14085896374
14085904735
14085912731
14085919262
14085928234
14085936779
14085945995
14085953624
14085961132
14085969921
14085978649
14085988353
14085995433
14086004955
14086011913
14086021007
14086027660
14086036144
14086043834
14086051097
14086062145
14086070079
14086078014
14086082774
14086091808
14086098399
14086106090
14086112010
14086119762
14086123729
14086129771
14086134349
14086140880
14086146495
14086153087
14086158519
14086163890
14086169749
14086176219
14086180980
14086188121
14086193492
14086200450
14086206981
14086213389
14086218333
14086224559
14086230357
14086237498
14086242625
14086248790
14086254649
14086262156
14086268077
14086275523
14086281627
14086292308
14086296275
14086305064
14086313182
14086320872
14086325267
14086333201
14086338206
14086345286
14086350413
14086355784
14086360667
14086366953
14086371775
14086377451
14086382029
14086387400
14086393809
14086399485
14086404429
14086410471
14086416819
14086422129
14086427866
14086434580
14086439524
14086444712
14086449107
14086457224
14086461985
14086469431
14086477244
14086482249
14086487376
14086495127
14086500986
14086508127
14086517527
14086527598
14086543711
14086554331
14086563242
14086572702
14086581369
14086589426
14086596201
14086603525
14086607920
14086612924
14086617990
14086623239
14086627573
14086632089
14086636179
14086640207
14086644602
14086649484
14086654001
14086659616
14086664438
14086668649
14086673227
14086677683
14086682688
14086688242
14086693918
14086698068
14086703561
14086708933
14086713510
14086719003
14086724008
14086728159
14086736398
14086740793
14086745981
14086750192
14086756357
14086760812
14086765451
14086770090
14086777963
14086783700
14086788522
14086792001
14086797922
14086801340
14086807321
14086813852
14086819162
14086823617
14086828561
14086833505
14086838815
14086843881
14086849984
14086857858
14086863107
14086870248
14086878427
14086884652
14086890329
14086896615
14086902719
14086906991
14086912850
14086917489
14086923654
14086929574
14086933724
14086941049
14086949655
14086955575
14086961190
14086968148
14086973763
14086981820
14086988290
14086998238
14087003121
14087012521
14087016976
14087025033
14087031014
14087038827
14087045541
14087056283
14087063241
14087068673
14087076668
14087083443
14087091195
14087097603
14087103524
14087112130
14087118905
14087128121
14087134285
14087142464
14087149178
14087155282
14087163643
14087173775
14087180123
14087188729
14087194893
14087200692
14087210701
14087218453
14087226876
14087236519
14087242867
14087251229
14087257454
14087263313
14087273750
14087278389
14087286934
14087294319
14087303413
14087310921
14087319832
14087326546
14087333321
14087342049
14087348457
14087354500
14087364876
14087371529
14087380379
14087388496
14087391060
14087402412
14087410591
14087416755
14087426643
14087435371
14087442512
14087448494
14087455513
14087465278
14087470161
14087478218
14087488899
14087496467
14087503608
14087512092
14087519050
14087526985
14087532966
14087541206
14087550056
14087558723
14087565376
14087573493
14087584113
14087594367
14087602302
14087610358
14087618049
14087629096
14087637763
14087647529
14087655280
14087666389
14087671638
14087681708
14087690986
14087700141
14087708991
14087715644
14087724006
14087732673
14087740607
14087747199
14087757148
14087766364
14087772956
14087780463
14087790168
14087797980
14087805121
14087813117
14087821356
14087826239
14087836005
14087844245
14087852484
14087860358
14087866461
14087875006
14087883673
14087890021
14087899359
14087907294
14087914435
14087923224
14087930487
14087939825
14087948553
14087957159
14087962408
14087973395
14087980170
14087988837
14087997870
14088007147
14088013678
14088022955
14088031256
14088038397
14088045843
14088053412
14088062933
14088070196
14088079535
14088084906
14088095953
14088101385
14088111212
14088120672
14088129034
14088137457
14088144049
14088152044
14088160528
14088168157
14088174627
14088184881
14088194708
14088202642
14088209966
14088218633
14088226080
14088235601
14088241888
14088252447
14088260320
14088270452
14088275945
14088287115
14088293340
14088304204
14088315191
14088323552
14088330694
14088337041
14088341863
14088351079
14088354558
14088361516
14088365850
14088373662
14088377996
14088388189
14088395818
14088405034
14088412114
14088416814
14088421636
14088424748
14088430547
14088433171
14088440557
14088446660
14088451604
14088455693
14088461247
14088465764
14088470281
14088475652
14088479131
14088485356
14088491032
14088495671
14088501714
14088507268
14088513554
14088520085
14088525761
14088531194
14088535649
14088539738
14088549748
14088554753
14088562199
14088565922
14088573796
14088577702
14088584660
14088591069
14088596684
14088601933
14088608098
14088613225
14088620976
14088626042
14088631962
14088637944
14088643376
14088648015
14088655766
14088660527
14088666203
14088673527
14088677372
14088684941
14088690678
14088696965
14088702336
14088709233
14088715580
14088720646
14088725712
14088731877
14088737919
14088744450
14088749088
14088754154
14088761418
14088768376
14088773319
14088779789
14088784672
14088790714
14088798466
14088802311
14088809818
14088815372
14088820133
14088825809
14088833439
14088838749
14088844120
14088850773
14088856937
14088861820
14088866703
14088874698
14088878666
14088887333
14088891239
14088898380
14088902591
14088910892
14088914676
14088922550
14088928531
14088935123
14088942386
14088947940
14088956730
14088962223
14088968692
14088978519
14088985294
14088991092
14088998722
14089003360
14089010379
14089015201
14089021671
14089025577
14089032901
14089038150
14089044620
14089049869
14089055545
14089060245
14089065738
14089070987
14089075931
14089082156
14089088626
14089093692
14089101932
14089106876
14089113589
14089120486
14089123355
14089131595
14089135257
14089144168
14089148135
14089156497
14089163211
14089168765
14089172793
14089183230
14089187137
14089194888
14089201724
14089208133
14089214663
14089221866
14089229861
14089240420
14089248172
14089256106
14089262576
14089271426
14089280337
14089283267
14089295535
14089302920
14089311587
14089316653
14089328799
14089334109
14089344363
14089349734
14089359011
14089366824
14089375857
14089382388
14089392275
14089398989
14089408083
14089414736
14089420901
14089431765
14089440554
14089449282
14089452212
14089464297
14089469424
14089481020
14089486208
14089495791
14089503420
14089514895
14089520205
14089530825
14089535830
14089545839
14089552919
14089562380
14089571474
14089578737
14089586061
14089596498
14089601503
14089610842
14089618105
14089626345
14089634035
14089643862
14089649050
14089659670
14089665041
14089674501
14089681520
14089690736
14089701662
14089708559
14089716493
14089725709
14089732606
14089742921
14089749940
14089765443
14089771120
14089783571
14089792116
14089798768
14089806154
14089815065
14089822511
14089830995
14089838685
14089848085
14089855409
14089862855
14089869752
14089879029
14089885743
14089894776
14089903993
14089911988
14089918580
14089926881
14089935731
14089941041
14089950562
14089957826
14089966065
14089975953
14089985597
14089992799
14089999757
14090008485
14090015931
14090024720
14090032593
14090039368
14090050172
14090056824
14090065186
14090073243
14090080445
14090088868
14090098572
14090105530
14090112366
14090121949
14090130921
14090138733
14090145447
14090154236
14090163086
14090172058
14090178833
14090187622
14090196228
14090204834
14090211731
14090219055
14090227539
14090234741
14090244995
14090252564
14090264099
14090270508
14090279236
14090286743
14090296936
14090304321
14090311707
14090322082
14090329040
14090338196
14090346374
14090353149
14090361145
14090369507
14090377441
14090384094
14090394775
14090401611
14090410217
14090416931
14090425964
14090432800
14090441589
14090450439
14090456482
14090468261
14090476806
14090483581
14090490844
14090498596
14090507995
14090514648
14090524414
14090532226
14090538757
14090548217
14090555175
14090561706
14090574035
14090579955
14090591552
14090597656
14090609679
14090619140
14090626098
14090636047
14090644897
14090649963
14090658691
14090665465
14090674560
14090681273
14090688720
14090695495
14090703185
14090712096
14090719726
14090726622
14090732421
14090736876
14090742980
14090747863
14090755187
14090760863
14090765258
14090771056
14090776366
14090781798
14090786803
14090792174
14090798522
14090804015
14090808104
14090816466
14090820433
14090827147
14090833495
14090839720
14090844969
14090851378
14090857237
14090862669
14090870055
14090879454
14090886290
14090893858
14090900694
14090905882
14090912535
14090917113
14090925169
14090931700
14090938658
14090943602
14090950804
14090956053
14090962340
14090969115
14090975279
14090981077
14090986815
14090992186
14090998045
14090999937
14091008787
14091016539
14091021299
14091028074
14091033079
14091039793
14091044554
14091049131
14091055479
14091060911
14091065855
14091072569
14091076048
14091083372
14091089842
14091095518
14091101560
14091106077
14091112608
14091117307
14091122740
14091127378
14091133421
14091139158
14091145384
14091151731
14091157407
14091163084
14091167417
14091173155
14091177488
14091188230
14091194578
14091201475
14091208067
14091213865
14091221372
14091227781
14091234190
14091238462
14091244504
14091250669
14091256589
14091261838
14091267332
14091273557
14091278257
14091284116
14091289304
14091293332
14091298215
14091303891
14091309018
14091315732
14091321836
14091327634
14091331357
14091339780
14091343259
14091348996
14091352658
14091359189
14091362668
14091368894
14091373960
14091380185
14091386289
14091392148
14091399289
14091404721
14091409909
14091416074
14091422544
14091428403
14091432736
14091442319
14091448361
14091455808
14091461362
14091466306
14091471188
14091476132
14091483029
14091487546
14091495908
14091500424
14091507138
14091511349
14091517392
14091522824
14091527890
14091533993
14091539120
14091544858
14091550778
14091558163
14091566525
14091575009
14091583249
14091592953
14091601803
14091608700
14091616818
14091624142
14091632382
14091639279
14091649350
14091658383
14091667294
14091674557
14091682308
14091689450
14091697445
14091700070
14091712094
14091722347
14091729000
14091738583
14091744564
14091754391
14091760189
14091768795
14091774471
14091783810
14091792599
14091799923
14091808895
14091816647
14091823788
14091833797
14091843136
14091850521
14091862179
14091869503
14091877498
14091886410
14091892818
14091901790
14091909664
14091915889
14091924678
14091931575
14091938717
14091945552
14091952877
14091960750
14091968319
14091976131
14091984004
14091991329
14091998836
14092005123
14092012874
14092023982
14092029964
14092037898
14092046626
14092053645
14092062312
14092068355
14092077693
14092085201
14092091426
14092101680
14092108577
14092116695
14092126277
14092132442
14092143245
14092153132
14092161067
14092169612
14092178889
14092185969
14092192134
14092200740
14092207637
14092217463
14092225825
14092233394
14092238826
14092250666
14092260554
14092268489
14092276240
14092283503
14092292842
14092297969
14092306819
14092318171
14092327082
14092333796
14092341914
14092349787
14092357356
14092365839
14092371516
14092383662
14092390253
14092398066
14092405634
14092413081
14092422602
14092430231
14092439814
14092449396
14092455195
14092464167
14092473261
14092481684
14092489924
14092499567
14092504328
14092514582
14092518976
14092527399
14092534418
14092541376
14092547113
14092559259
14092570002
14092577265
14092588190
14092597467
14092604547
14092615045
14092625788
14092633478
14092640741
14092650629
14092659662
14092668512
14092676141
14092684686
14092693109
14092700739
14092711114
14092718072
14092727899
14092733942
14092742670
14092750177
14092759088
14092765619
14092774347
14092780206
14092788019
14092795770
14092803888
14092811395
14092818902
14092824884
14092833917
14092841790
14092849420
14092858392
14092864190
14092872003
14092880365
14092886468
14092895928
14092901544
14092908868
14092916436
14092922418
14092927178
14092932916
14092938592
14092944390
14092949090
14092954217
14092960687
14092968194
14092973138
14092976373
14092984795
14092989922
14092994561
14093000787
14093005303
14093011895
14093018548
14093020379
14093029900
14093032159
14093040154
14093042290
14093050713
14093055535
14093063286
14093069329
14093073723
14093078911
14093085625
14093088921
14093095818
14093101128
14093108757
14093113640
14093120232
14093123772
14093130608
14093136528
14093141594
14093147026
14093153435
14093159233
14093165337
14093171135
14093176201
14093181572
14093187615
14093192986
14093200249
14093206658
14093211296
14093217034
14093225701
14093230278
14093238457
14093243523
