13698770228
13698778712
13698782985
13698786464
13698790126
13698794703
13698800929
13698807338
13698812831
13698818141
13698826075
13698831263
13698838466
13698845851
13698853663
13698860072
13698865382
13698873439
13698880702
13698886744
13698891810
13698898890
13698906275
13698912318
13698920497
13698927333
13698935145
13698943141
13698950526
13698956629
13698963892
13698969691
13698982203
13698988429
13698995387
13699003748
13699011256
13699018824
13699026575
13699034510
13699041773
13699048609
13699056360
13699062647
13699070460
13699078821
13699084009
13699092005
13699099695
13699109034
13699115931
13699124842
13699131434
13699140345
13699146631
13699154200
13699161463
13699165979
13699172876
13699180506
13699189417
13699196558
13699203211
13699211328
13699224512
13699229761
13699236475
13699242090
13699250940
13699257410
13699263941
13699269861
13699275354
13699283167
13699288171
13699295496
13699303064
13699307581
13699317468
13699324487
13699333398
13699341638
13699348596
13699355066
13699362756
13699369836
13699375024
13699382287
13699388574
13699395105
13699404016
13699408777
13699418359
13699424402
13699430017
13699436486
13699442163
13699448266
13699455468
13699462426
13699470483
13699476220
13699482385
13699488732
13699495324
13699500024
13699506677
13699513391
13699517907
13699523705
13699530969
13699537011
13699541467
13699548364
13699554406
13699561425
13699566064
13699573510
13699581567
13699587670
13699594201
13699599755
13699605126
13699612206
13699616967
13699622521
13699631371
13699636925
13699643029
13699649682
13699655114
13699660302
13699665734
13699672570
13699680565
13699685448
13699691674
13699697594
13699703759
13699710228
13699715905
13699720604
13699728112
13699732995
13699740685
13699745568
13699753624
13699760887
13699767052
13699773583
13699782372
13699791954
13699799279
13699806237
13699814659
13699821800
13699833153
13699840599
13699845177
13699852867
13699860497
13699866600
13699872582
13699878685
13699885643
13699891624
13699898521
13699904625
13699910789
13699917076
13699927330
13699933311
13699938438
13699946251
13699952843
13699958519
13699963524
13699971641
13699978721
13699984703
13699989952
13699998497
13700005027
13700012169
13700016624
13700024376
13700032798
13700040062
13700045127
13700052940
13700060386
13700065513
13700071922
13700080589
13700088645
13700094505
13700101341
13700106162
13700113548
13700120017
13700126914
13700134422
13700140830
13700148460
13700155479
13700162376
13700171592
13700176902
13700185935
13700193443
13700200095
13700206565
13700215781
13700222739
13700229270
13700236350
13700243491
13700250510
13700258079
13700265403
13700272544
13700280478
13700287986
13700293723
13700301780
13700312949
13700319114
13700327659
13700334189
13700339133
13700343467
13700349753
13700354453
13700361960
13700366050
13700371848
13700375998
13700381919
13700387229
13700391806
13700395407
13700401999
13700407309
13700412497
13700417136
13700421530
13700426840
13700432395
13700437827
13700447043
13700453635
13700459250
13700466330
13700472067
13700480124
13700484091
13700491782
13700495749
13700501059
13700507346
13700516318
13700520590
13700525229
13700528952
13700534506
13700541098
13700547018
13700552450
13700557638
13700563009
13700568625
13700574911
13700579123
13700585776
13700590963
13700595602
13700600729
13700606222
13700611471
13700618795
13700623190
13700628927
13700637350
13700642904
13700644430
13700651998
13700657980
13700662924
13700669393
13700675131
13700680319
13700684957
13700690206
13700697470
13700702474
13700707601
13700714193
13700719747
13700725240
13700734579
13700740804
13700746603
13700751669
13700759298
13700765279
13700770590
13700779073
13700783346
13700790609
13700795980
13700803426
13700809652
13700814840
13700818502
13700824911
13700831747
13700837728
13700842916
13700849142
13700854879
13700860738
13700865255
13700870260
13700877950
13700882039
13700887777
13700894063
13700899495
13700905111
13700911092
13700916585
13700921041
13700927388
13700932637
13700937703
13700944661
13700949361
13700954244
13700962361
13700966329
13700972737
13700977925
13700985250
13700991597
13700998006
13701003743
13701009603
13701014730
13701020467
13701028890
13701035420
13701040669
13701046773
13701055135
13701059773
13701066243
13701073872
13701080098
13701087727
13701094502
13701100911
13701105183
13701110249
13701115498
13701119710
13701125752
13701133076
13701138203
13701144307
13701149800
13701156026
13701161091
13701166035
13701171223
13701176716
13701183552
13701188801
13701193135
13701197957
13701207844
13701214131
13701222187
13701230671
13701237629
13701244099
13701251240
13701260456
13701267353
13701274372
13701279866
13701290852
13701297871
13701306111
13701312275
13701320576
13701328144
13701333027
13701340046
13701348530
13701360798
13701369892
13701377888
13701385334
13701392048
13701400715
13701405048
13701414448
13701421650
13701430317
13701437153
13701445026
13701451191
13701459797
13701467060
13701473163
13701482868
13701488544
13701498554
13701505268
13701513324
13701519001
13701526874
13701534137
13701542987
13701548053
13701558002
13701564289
13701572773
13701579975
13701588703
13701594928
13701602863
13701610736
13701618305
13701625385
13701633075
13701641071
13701647846
13701654926
13701661090
13701669513
13701677692
13701686420
13701693134
13701699664
13701708942
13701715839
13701723041
13701729205
13701737994
13701745135
13701752948
13701760211
13701769061
13701773150
13701787982
13701799090
13701809527
13701820941
13701830157
13701838153
13701848162
13701859149
13701867266
13701883624
13701892230
13701902362
13701910418
13701918963
13701927752
13701938555
13701945147
13701951190
13701958392
13701965289
13701971941
13701978228
13701984637
13701991778
13701998919
13702005755
13702012835
13702019854
13702026446
13702033587
13702041643
13702048723
13702055681
13702062945
13702069353
13702072527
13702082171
13702087603
13702096819
13702103960
13702110003
13702118547
13702126177
13702136797
13702143572
13702149858
13702157915
13702163225
13702170549
13702176409
13702181658
13702190203
13702196306
13702204180
13702209245
13702216997
13702223833
13702229021
13702236223
13702242326
13702250322
13702259294
13702265215
13702272234
13702280412
13702286882
13702291948
13702300127
13702306169
13702313371
13702320940
13702330461
13702335710
13702342973
13702349626
13702357133
13702364702
13702372392
13702378679
13702385698
13702391923
13702398271
13702407548
13702412980
13702419572
13702426835
13702434343
13702443925
13702451371
13702458512
13702465898
13702471818
13702479020
13702486222
13702494157
13702501847
13702511491
13702523210
13702530595
13702541520
13702551041
13702559953
13702569230
13702577164
13702583512
13702588944
13702595414
13702599931
13702607743
13702611527
13702615922
13702621781
13702627213
13702631486
13702637162
13702640397
13702645341
13702650284
13702656083
13702661759
13702666642
13702669205
13702675797
13702678360
13702685624
13702692704
13702698136
13702703263
13702708695
13702713944
13702719376
13702724564
13702730851
13702736100
13702741166
13702745987
13702750260
13702754837
13702760941
13702765091
13702770340
13702778580
13702786392
13702791702
13702797806
13702802628
13702807755
13702810990
13702818558
13702823502
13702829422
13702833634
13702839493
13702844376
13702850113
13702855545
13702864212
13702870071
13702877762
13702883865
13702889969
13702896378
13702902969
13702906509
13702914261
13702919144
13702924332
13702932083
13702935989
13702942520
13702948501
13702954666
13702958267
13702963821
13702967361
13702976272
13702980972
13702986343
13702991836
13702997146
13703002334
13703007522
13703013076
13703019302
13703024063
13703028152
13703035171
13703039566
13703045181
13703050857
13703056472
13703062149
13703067886
13703072036
13703077713
13703082717
13703089431
13703094802
13703105605
13703110732
13703117141
13703126235
13703133193
13703139175
13703145339
13703150527
13703156631
13703162002
13703165847
13703172439
13703176101
13703180312
13703185867
13703191848
13703197951
13703202590
13703207534
13703213943
13703222976
13703227370
13703233901
13703239516
13703244704
13703249221
13703256606
13703260512
13703267287
13703271010
13703277663
13703283095
13703287673
13703293837
13703299147
13703303847
13703308059
13703311843
13703319106
13703324721
13703328933
13703335463
13703342421
13703348952
13703355910
13703361464
13703367507
13703373305
13703377944
13703384230
13703388808
13703394484
13703399977
13703409560
13703416030
13703422438
13703429274
13703436537
13703443556
13703450880
13703458083
13703464125
13703471144
13703480421
13703486708
13703495558
13703503065
13703509718
13703516798
13703522902
13703531813
13703541456
13703549574
13703555983
13703563551
13703571364
13703578138
13703584547
13703594008
13703600966
13703609205
13703616468
13703623854
13703633009
13703638014
13703646986
13703654005
13703661756
13703668043
13703675917
13703680189
13703692701
13703701307
13703709303
13703715711
13703723707
13703730909
13703740431
13703751600
13703761854
13703772840
13703783399
13703791761
13703804212
13703815076
13703822706
13703831434
13703838453
13703847547
13703857313
13703863843
13703873487
13703878492
13703887525
13703893995
13703902051
13703910352
13703917798
13703925183
13703932447
13703937696
13703946241
13703953504
13703961804
13703969800
13703975781
13703983106
13703992749
13703998975
13704006665
13704014478
13704021802
13704028455
13704034497
13704042371
13704049451
13704058484
13704064160
13704072766
13704079602
13704086560
13704093030
13704100171
13704107251
13704118298
13704125195
13704133130
13704138562
13704147717
13704152478
13704161084
13704167981
13704174572
13704182019
13704189404
13704196606
13704202954
13704208630
13704216565
13704223828
13704231457
13704237622
13704246655
13704251110
13704260021
13704265637
13704273693
13704281506
13704290905
13704297192
13704304028
13704312267
13704320080
13704327160
13704332531
13704343517
13704350536
13704359020
13704366161
13704372326
13704378918
13704387829
13704393993
13704400829
13704408459
13704415661
13704425609
13704431591
13704439403
13704447460
13704453380
13704460644
13704469433
13704476330
13704484569
13704491405
13704499767
13704506481
13704515270
13704523510
13704537609
13704547069
13704555309
13704566234
13704576488
13704586070
13704594066
13704604930
13704611583
13704619090
13704625621
13704633006
13704639171
13704646617
13704654674
13704662669
13704671580
13704678172
13704684764
13704691966
13704699290
13704704784
13704712718
13704720470
13704729381
13704734935
13704742808
13704748607
13704757701
13704762889
13704772227
13704778941
13704787974
13704797801
13704803660
13704808665
13704813426
13704817393
13704822581
13704828501
13704834666
13704839671
13704845896
13704851512
13704856700
13704862681
13704870005
13704874461
13704880747
13704885996
13704890025
13704894114
13704900584
13704904795
13704909678
13704914988
13704920542
13704925608
13704932139
13704936533
13704942210
13704946299
13704951487
13704956614
13704961802
13704967051
13704972178
13704975535
13704983836
13704990244
13704996470
13705002573
13705006785
13705012461
13705018320
13705023813
13705029124
13705033396
13705040415
13705044443
13705048655
13705055796
13705062143
13705067698
13705072641
13705079477
13705083139
13705089975
13705094553
13705101450
13705108835
13705113596
13705118235
13705127451
13705134653
13705139780
13705151132
13705158152
13705164621
13705171030
13705177744
13705185861
13705193002
13705201669
13705207346
13705213327
13705220957
13705225412
13705229501
13705233408
13705239694
13705245920
13705252451
13705257150
13705262155
13705267282
13705273080
13705278696
13705284860
13705289987
13705297189
13705302438
13705308847
13705313608
13705318490
13705324655
13705330270
13705336923
13705343271
13705348337
13705354013
13705357919
13705365304
13705370126
13705377145
13705382943
13705388131
13705393625
13705398690
13705404733
13705409677
13705415963
13705422128
13705428964
13705436837
13705442086
13705447824
13705454354
13705458932
13705465646
13705471505
13705475839
13705480783
13705488046
13705493356
13705497628
13705504281
13705509896
13705515939
13705521249
13705526681
13705533212
13705538277
13705543771
13705550057
13705555428
13705561776
13705567452
13705571786
13705577767
13705584481
13705588326
13705593148
13705598214
13705603646
13705609383
13705614205
13705619881
13705625313
13705630257
13705636422
13705643319
13705651436
13705658516
13705663826
13705673836
13705681099
13705688363
13705695626
13705703743
13705711617
13705719735
13705725960
13705734688
13705741341
13705751534
13705761055
13705768624
13705774544
13705783150
13705792000
13705802193
13705814522
13705824043
13705837288
13705844307
13705856819
13705863289
13705869820
13705877937
13705885689
13705893257
13705900825
13705907112
13705916511
13705921455
13705932075
13705939705
13705948372
13705956062
13705963142
13705972114
13705980293
13705989875
13705997932
13706006294
13706013923
13706022468
13706029731
13706038215
13706046638
13706054512
13706060554
13706070625
13706078681
13706086128
13706094062
13706101936
13706107734
13706116035
13706125861
13706136115
13706142280
13706152412
13706160468
13706167731
13706174018
13706183601
13706190620
13706201667
13706209235
13706217292
13706224677
13706233039
13706240973
13706249030
13706255927
13706264411
13706270575
13706279303
13706287970
13706295234
13706301276
13706309027
13706315680
13706322821
13706331855
13706338263
13706347602
13706353034
13706362860
13706369391
13706376105
13706383185
13706391303
13706401068
13706408576
13706413947
13706421088
13706429450
13706436713
13706442877
13706449591
13706456488
13706463568
13706472418
13706477789
13706483282
13706491339
13706498968
13706506964
13706514471
13706523688
13706529425
13706536932
13706545721
13706553167
13706559271
13706566534
13706573919
13706583563
13706591375
13706600836
13706611822
13706621588
13706629034
13706636724
13706646917
13706654913
13706664800
13706674078
13706680303
13706687811
13706697698
13706704534
13706713323
13706718511
13706724493
13706733648
13706740484
13706747137
13706753973
13706762579
13706768926
13706775274
13706780523
13706788518
13706795721
13706803045
13706808721
13706816411
13706824041
13706830999
13706838384
13706849309
13706857427
13706864080
13706870061
13706878423
13706883611
13706892034
13706898809
13706905706
13706913579
13706920415
13706926152
13706933354
13706942266
13706951238
13706961309
13706965947
13706974309
13706980474
13706987676
13706997380
13707002934
13707011601
13707016911
13707025151
13707031621
13707039616
13707047002
13707052068
13707056279
13707062382
13707067754
13707072880
13707077092
13707082219
13707086674
13707093327
13707099675
13707106206
13707110600
13707116337
13707121342
13707127141
13707131779
13707136601
13707142888
13707147343
13707153386
13707157780
13707164799
13707169255
13707174199
13707179142
13707182988
13707190251
13707195256
13707200688
13707205815
13707210026
13707215886
13707220707
13707224919
13707231755
13707236027
13707241093
13707245549
13707251347
13707256596
13707261479
13707267460
13707273869
13707282780
13707289677
13707295231
13707303349
13707310734
13707316593
13707323551
13707328251
13707332768
13707338871
13707342594
13707349735
13707355106
13707359440
13707364201
13707370304
13707375614
13707379337
13707384586
13707390507
13707395756
13707402103
13707407413
13707413944
13707419315
13707424747
13707430179
13707433109
13707439579
13707444462
13707450260
13707454838
13707459293
13707464603
13707470157
13707475528
13707480472
13707485416
13707489383
13707494693
13707501957
13707507877
13707513553
13707525638
13707532413
13707538211
13707547428
13707553592
13707559757
13707564395
13707570560
13707575382
13707580448
13707584903
13707591739
13707596866
13707602481
13707607181
13707612430
13707619632
13707623477
13707630679
13707634891
13707645145
13707651981
13707657901
13707663211
13707670596
13707674930
13707682620
13707686954
13707695315
13707700503
13707707156
13707712649
13707716922
13707722049
13707729129
13707734744
13707742007
13707746219
13707753055
13707759341
13707763736
13707768557
13707775149
13707779910
13707786929
13707792483
13707797793
13707803592
13707808657
13707814700
13707819766
13707824527
13707830020
13707837039
13707842959
13707849551
13707854373
13707862612
13707869021
13707873171
13707880251
13707888003
13707898623
13707905947
13707913760
13707923281
13707929995
13707936953
13707944216
13707951968
13707959414
13707965700
13707974856
13707982729
13707990176
13707996279
13708005312
13708011660
13708020266
13708025759
13708035097
13708042116
13708051333
13708057985
13708068361
13708075930
13708085146
13708091799
13708099001
13708105959
13708114260
13708123171
13708132997
13708140261
13708147707
13708154787
13708162416
13708169252
13708177248
13708185488
13708193666
13708202821
13708211488
13708219057
13708226930
13708235902
13708244386
13708248659
13708258546
13708266176
13708275819
13708282899
13708294618
13708301576
13708310609
13708317018
13708326600
13708333497
13708341249
13708348756
13708357850
13708365907
13708372987
13708381044
13708385377
13708395631
13708404725
13708411805
13708418763
13708426454
13708432191
13708440003
13708447755
13708455628
13708462525
13708472474
13708478761
13708487367
13708495240
13708501222
13708509461
13708517518
13708526063
13708533692
13708541261
13708548707
13708556947
13708564698
13708572755
13708579163
13708586243
13708595643
13708602784
13708612305
13708618836
13708625977
13708635254
13708642334
13708651001
13708658631
13708668702
13708677552
13708685975
13708693421
13708700318
13708710755
13708717469
13708727845
13708736023
13708745728
13708751587
13708758057
13708766541
13708773132
13708781983
13708789307
13708796082
13708801697
13708810791
13708817078
13708824829
13708832092
13708839783
13708848145
13708855835
13708863769
13708871704
13708879272
13708886474
13708894226
13708901489
13708905639
13708915649
13708922241
13708932678
13708939148
13708947693
13708954406
13708962219
13708971618
13708978637
13708986023
13708992065
13709002807
13709008789
13709016845
13709025085
13709033813
13709043518
13709053100
13709057617
13709067809
13709076537
13709081786
13709091735
13709098022
13709107665
13709114318
13709122131
13709130126
13709138122
13709146056
13709154113
13709161315
13709169860
13709177734
13709185851
13709192260
13709201720
13709208312
13709215392
13709224730
13709232665
13709240600
13709248717
13709256225
13709263610
13709271849
13709279906
13709288512
13709296080
13709304015
13709310485
13709318663
13709326049
13709337279
13709343993
13709349425
13709353453
13709358641
13709364379
13709369872
13709375243
13709376891
13709384825
13709390318
13709396178
13709401610
13709405699
13709409850
13709415953
13709420103
13709427977
13709432372
13709438780
13709445006
13709455565
13709462767
13709468931
13709473997
13709482664
13709488463
13709492918
13709498472
13709502806
13709507689
13709512205
13709516966
13709521971
13709527220
13709533079
13709538328
13709541990
13709548521
13709554503
13709559263
13709565306
13709569883
13709575254
13709579405
13709585508
13709591185
13709595884
13709603147
13709607969
13709612608
13709618284
13709623777
13709628721
13709634153
13709640074
13709644834
13709649778
13709656065
13709660703
13709666075
13709670835
13709677122
13709683286
13709689634
13709695799
13709705015
13709710325
13709715696
13709721433
13709727781
13709733457
13709738645
13709743955
13709749692
13709754087
13709760252
13709768735
13709775144
13709780698
13709785886
13709790403
13709795103
13709799558
13709806516
13709810972
13709815305
13709822690
13709828000
13709832822
13709837522
13709843931
13709849424
13709854368
13709859189
13709864621
13709870054
13709875241
13709881589
13709887143
13709891050
13709896604
13709902829
13709906858
13709914243
13709918820
13709925534
13709928952
13709933896
13709940366
13709945981
13709949277
13709955136
13709962216
13709969113
13709973203
13709977719
13709983701
13709989499
13709996335
13710002805
13710010373
13710018674
13710026303
13710033017
13710040341
13710046506
13710051327
13710056515
13710061642
13710066952
13710074032
13710079526
13710084958
13710090268
13710097104
13710103390
13710108151
13710112912
13710117611
13710125302
13710130185
13710137021
13710141354
13710145077
13710151059
13710158932
13710166378
13710173275
13710180539
13710188168
13710196286
13710203244
13710211300
13710218502
13710227047
13710235470
13710241635
13710248532
13710259152
13710267697
13710275753
13710284420
13710291134
13710298397
13710308224
13710315731
13710325375
13710332333
13710340816
13710347103
13710354122
13710364376
13710372982
13710380245
13710389461
13710396969
13710402645
13710412777
13710420223
13710428768
13710436092
13710442012
13710451351
13710459346
13710465999
13710476192
13710482723
13710490169
13710497615
13710506893
13710514461
13710524105
13710531368
13710536983
13710544918
13710552486
13710560970
13710569332
13710577327
13710585689
13710594295
13710600887
13710607356
13710616695
13710625240
13710632137
13710640498
13710647823
13710655391
13710663142
13710669612
13710680049
13710687373
13710695308
13710701777
13710710322
13710720820
13710728572
13710734431
13710742915
13710752070
13710761103
13710767085
13710774775
13710784480
13710790766
13710800105
13710805415
13710814631
13710821772
13710830622
13710837336
13710845820
13710851435
13710859797
13710866267
13710874751
13710881648
13710888850
13710896662
13710903376
13710911372
13710917963
13710924616
13710932246
13710940729
13710948115
13710954279
13710961603
13710970148
13710977350
13710984003
13710991327
13710997126
13711005243
13711013422
13711019526
13711029719
13711039301
13711045527
13711054987
13711061518
13711069757
13711077143
13711085260
13711092585
13711102472
13711110224
13711116632
13711126032
13711134271
13711142267
13711148676
13711157770
13711167169
13711175287
13711181635
13711190607
13711197626
13711205560
13711212946
13711221552
13711229608
13711237665
13711245538
13711249872
13711260370
13711268060
13711276178
13711283075
13711292779
13711302240
13711310174
13711316644
13711326043
13711332818
13711340265
13711347589
13711356805
13711364740
13711374932
13711382440
13711388726
13711396722
13711404412
13711413201
13711421258
13711429864
13711437921
13711445855
13711452203
13711461358
13711468316
13711475274
13711484551
13711491265
13711499261
13711508477
13711515801
13711521661
13711530206
13711539910
13711548028
13711552422
13711562554
13711576409
13711584710
13711594658
13711602410
13711611016
13711616570
13711622307
13711628716
13711635064
13711640862
13711647637
13711651848
13711657830
13711663811
13711669548
13711672905
13711679802
13711685723
13711690361
13711695427
13711702446
13711707573
13711712700
13711718498
13711724358
13711729973
13711737541
13711741753
13711748711
13711753716
13711759270
13711762383
13711769585
13711776421
13711781792
13711786125
13711791985
13711798454
13711802361
13711809624
13711813774
13711820610
13711824577
13711832024
13711836052
13711845695
13711850517
13711856865
13711862602
13711870842
13711877434
13711882866
13711889702
13711895134
13711899711
13711906181
13711912346
13711918693
13711924309
13711930473
13711935722
13711942070
13711948295
13711953972
13711957512
13711965324
13711971061
13711977348
13711982353
13711990348
13711995597
13712001030
13712007987
13712012809
13712020683
13712026359
13712031242
13712038017
13712043876
13712049552
13712056022
13712062614
13712068534
13712075919
13712081229
13712087089
13712092887
13712099235
13712106254
13712113151
13712119743
13712125663
13712132438
13712139213
13712145682
13712149711
13712156058
13712162162
13712169791
13712176383
13712182426
13712187491
13712196036
13712203361
13712211356
13712216910
13712223624
13712231803
13712239920
13712247367
13712253043
13712259085
13712265433
13712270133
13712276175
13712280509
13712287284
13712292899
13712299247
13712303031
13712309439
13712314444
13712319388
13712325125
13712333914
13712341239
13712348197
13712355826
13712364493
13712371451
13712376578
13712384390
13712388907
13712393790
13712399344
13712404105
13712406607
13712414175
13712419913
13712423941
13712428152
13712432181
13712436575
13712440420
13712444083
13712449087
13712454581
13712460013
13712465445
13712471182
13712475332
13712481192
13712487417
13712496634
13712501944
13712510611
13712517813
13712523550
13712529593
13712535818
13712544119
13712549063
13712554800
13712562246
13712569204
13712574209
13712581778
13712590444
13712597464
13712604727
13712612234
13712619619
13712626089
13712636648
13712643606
13712649709
13712658193
13712667898
13712674917
13712678518
13712689321
13712701406
13712708303
13712715200
13712724111
13712733938
13712741628
13712749624
13712756826
13712764944
13712772512
13712782216
13712789785
13712797353
13712806081
13712814199
13712822927
13712835134
13712843801
13712851186
13712861623
13712868642
13712877858
13712885549
13712891347
13712901784
13712909535
13712915090
13712924123
13712929738
13712935536
13712942250
13712952382
13712957631
13712967153
13712981068
13712989369
13712997731
13713005299
13713010365
13713018422
13713026723
13713034169
13713041127
13713048451
13713054616
13713061330
13713068471
13713076161
13713084401
13713091359
13713100087
13713108082
13713115651
13713123768
13713130299
13713140309
13713148915
13713155934
13713163990
13713168690
13713177296
13713183949
13713190419
13713198963
13713203663
13713210682
13713216114
13713222401
13713228382
13713242359
13713251698
13713260609
13713268360
13713274403
13713282581
13713289600
13713296986
13713303394
13713311817
13713319141
13713325855
13713332325
13713341541
13713348560
13713357532
13713363880
13713369861
13713378712
13713384327
13713392872
13713402027
13713409900
13713417164
13713425403
13713433643
13713437977
13713447803
13713457264
13713464038
13713472034
13713479785
13713488697
13713496570
13713503955
13713510669
13713527393
13713538684
13713550525
13713562244
13713573169
13713584277
13713599902
13713608997
13713622302
13713631518
13713640002
13713649707
13713660205
13713670398
13713680285
13713691760
13713700732
13713710437
13713720080
13713730212
13713739673
13713749743
13713758715
13713767932
13713777453
13713786181
13713796740
13713805529
13713814929
13713827014
13713833544
13713842028
13713849108
13713858080
13713866686
13713877612
13713886218
13713894701
13713900622
13713909228
13713918017
13713925829
13713933642
13713941271
13713948107
13713955614
13713962145
13713971789
13713979296
13713986254
13713994005
13714000963
13714008776
13714015673
13714023363
13714032641
13714040148
13714047106
13714053576
13714062426
13714069262
13714078051
13714084093
13714093126
13714101671
13714110277
13714116197
13714124559
13714132067
13714141039
13714146715
13714156175
13714164171
13714171556
13714179430
13714186021
13714195604
13714202501
13714209154
13714215990
13714225511
13714232103
13714239732
13714249498
13714257554
13714266588
13714275316
13714285264
13714295213
13714305467
13714311815
13714323533
13714330308
13714341722
13714350938
13714358934
13714366746
13714375474
13714384873
13714391954
13714399095
13714407029
13714415513
13714422227
13714431077
13714439866
13714447495
13714455430
13714464158
13714471116
13714478806
13714486314
13714493577
13714501145
13714509202
13714516892
13714524827
13714532578
13714540391
13714548203
13714556870
13714564683
13714571946
13714583970
13714590928
13714600449
13714607773
13714616562
13714624436
13714631028
13714638718
13714652024
13714659714
13714667099
13714676438
13714683762
13714693161
13714700913
13714710190
13714719406
13714725937
13714734848
13714744064
13714751450
13714758896
13714768478
13714776535
13714785080
13714792526
13714799667
13714808578
13714817490
13714823532
13714832382
13714839523
13714850571
13714857101
13714859726
13714865341
13714868942
13714873947
13714879501
13714883957
13714886459
13714892318
13714897079
13714901657
13714905014
13714916122
13714922897
13714928939
13714936874
13714942978
13714950729
13714956405
13714962143
13714969284
13714975326
13714982467
13714988571
13714996566
13715005294
13715012252
13715018173
13715027023
13715033676
13715040756
13715049056
13715054427
13715062118
13715071517
13715077132
13715084701
13715089828
13715096725
13715103927
13715110091
13715113815
13715122420
13715128829
13715136642
13715142318
13715150436
13715155990
13715165267
13715170760
13715178084
13715183455
13715191390
13715196639
13715204207
13715210128
13715216414
13715224044
13715230941
13715236373
13715243880
13715249373
13715255599
13715263716
13715270797
13715277022
13715283004
13715292464
13715299361
13715305892
13715312850
13715320296
13715326949
13715335921
13715337935
13715350935
13715356978
13715366194
13715373763
13715380782
13715388594
13715398482
13715404890
13715412093
13715419051
13715428572
13715435164
13715441572
13715448469
13715455977
13715462324
13715469954
13715476729
13715484358
13715491255
13715499067
13715504805
13715512251
13715518416
13715525740
13715535261
13715540632
13715549116
13715554182
13715562849
13715570417
13715577558
13715582868
13715592207
13715597822
13715607282
13715613081
13715620344
13715629072
13715635969
13715643659
13715648420
13715655927
13715665937
13715673689
13715682172
13715686628
13715696638
13715703352
13715713361
13715720869
13715728559
13715738447
13715744977
13715754865
13715762006
13715770185
13715779401
13715787275
13715797407
13715806073
13715813764
13715821821
13715829023
13715836530
13715845563
13715852826
13715859052
13715866498
13715872480
13715883161
13715889325
13715897382
13715903791
13715913434
13715919782
13715929364
13715935162
13715943402
13715949506
13715959088
13715965497
13715973676
13715981000
13715988995
13715998212
13716006146
13716013531
13716021588
13716028912
13716034894
13716044781
13716051861
13716061200
13716067120
13716074444
13716081585
13716088543
13716094281
13716102032
13716111310
13716119488
13716126263
13716133160
13716139752
13716146893
13716154339
13716161846
13716171429
13716178814
13716184918
13716191693
13716197491
13716206280
13716212506
13716218548
13716228924
13716237896
13716244366
13716252300
13716258343
13716263104
13716267620
13716273174
13716278240
13716283611
13716288860
13716293316
13716298687
13716302837
13716308819
13716313091
13716319073
13716323955
13716330303
13716334698
13716340313
13716346172
13716350139
13716355816
13716361187
13716366436
13716372356
13716377605
13716383159
13716387676
13716392620
13716398174
13716403606
13716408306
13716414043
13716420513
13716424968
13716430706
13716438030
13716443035
13716450359
13716454387
13716461895
13716467144
13716474346
13716480022
13716484783
13716491619
13716497356
13716502666
13716507488
13716515300
13716520488
13716524089
13716530376
13716535137
13716540813
13716543498
13716550456
13716558147
13716563579
13716569865
13716573589
13716577739
13716584270
13716588359
13716594585
13716599467
13716604655
13716611369
13716615459
13716620586
13716626262
13716630900
13716636821
13716642070
13716648540
13716655437
13716659343
13716665751
13716669353
13716674357
13716680644
13716685588
13716690715
13716696025
13716700236
13716705119
13716712260
13716715922
13716722697
13716727275
13716732096
13716738139
13716743144
13716748515
13716755168
13716760356
13716765055
13716770976
13716776713
13716781840
13716788554
13716792521
13716797526
13716802104
13716808817
13716811625
13716817851
13716823527
13716828776
13716832865
13716837809
13716842448
13716848490
13716853800
13716857462
13716864848
13716869975
13716876444
13716882853
13716887308
13716890971
13716897623
13716902811
13716907938
13716913737
13716919047
13716924296
13716929301
13716933451
13716939799
13716944498
13716949747
13716955973
13716963480
13716967875
13716972941
13716979166
13716983866
13716988382
13716993265
13716999979
13717006266
13717011637
13717018107
13717023905
13717030130
13717035196
13717040140
13717045511
13717054178
13717058756
13717063211
13717069681
13717073465
13717078287
13717085062
13717092020
13717096475
13717107340
13717115640
13717123697
13717128214
13717139749
13717145609
13717156107
13717163431
13717170694
13717177347
13717184122
13717189493
13717197488
13717203409
13717211404
13717217874
13717226968
13717233255
13717240396
13717249673
13717255655
13717264444
13717269449
13717279458
13717287820
13717295327
13717302835
13717310708
13717317117
13717325174
13717332132
13717340310
13717349649
13717358499
13717366433
13717373880
13717381082
13717388955
13717395059
13717400735
13717410195
13717419229
13717425698
13717432839
13717442422
13717449746
13717456460
13717463723
13717471597
13717479531
13717488808
13717493447
13717503274
13717509499
13717516946
13717524758
13717532754
13717540261
13717548440
13717555764
13717563271
13717569192
13717577675
13717586037
13717593850
13717600136
13717606911
13717616188
13717622841
13717629860
13717637185
13717645729
13717653176
13717661110
13717669960
13717677468
13717685951
13717692665
13717701576
13717708779
13717715065
13717725014
13717731362
13717738991
13717746559
13717754005
13717761818
13717769508
13717776527
13717784828
13717793251
13717801308
13717807533
13717816627
13717822304
13717829384
13717838112
13717845497
13717853798
13717862892
13717869728
13717875343
13717883156
13717891151
13717897377
13717906471
13717914100
13717920509
13717929786
13717935951
13717945777
13717952674
13717959449
13717967323
13717975013
13717983985
13717990821
13717997962
13718005714
13718009681
13718019325
13718025245
13718033485
13718041847
13718049720
13718056190
13718065223
13718071326
13718078956
13718087379
13718094947
13718101356
13718111671
13718117591
13718125220
13718132361
13718139930
13718149390
13718156531
13718163550
13718171607
13718178382
13718186683
13718193519
13718200415
13718207190
13718214209
13718221900
13718230689
13718239051
13718246619
13718252295
13718258521
13718267981
13718275855
13718283728
13718290503
13718300269
13718306189
13718313574
13718322547
13718329382
13718337988
13718344092
13718351721
13718361853
13718368994
13718375708
13718382483
13718389014
13718396704
13718405005
13718412390
13718420386
13718428381
13718436377
13718441809
13718450903
13718458288
13718463476
13718468664
13718474951
13718480444
13718487219
13718491858
13718496374
13718500891
13718507910
13718511267
13718518103
13718523596
13718531042
13718536291
13718541784
13718548315
13718553869
13718559057
13718565100
13718570837
13718579382
13718584204
13718589208
13718594030
13718600317
13718604162
13718609777
13718616125
13718621740
13718627111
13718632055
13718637060
13718641210
13718647436
13718650732
13718657873
13718663427
13718668432
13718674474
13718679662
13718686071
13718690588
13718696996
13718702245
13718709569
13718714330
13718720006
13718724523
13718730504
13718736120
13718741918
13718746984
13718751745
13718757665
13718762487
13718767736
13718774450
13718779088
13718783117
13718789281
13718796178
13718801793
13718806737
13718812597
13718817723
13718823522
13718829381
13718837072
13718841710
13718846959
13718851720
13718857518
13718862462
13718867589
13718874486
13718879735
13718886571
13718893346
13718898717
13718904637
13718910619
13718916905
13718922399
13718930150
13718934789
13718940526
13718946751
13718952367
13718957738
13718961888
13718968541
13718973973
13718979405
13718984288
13718990697
13718995885
13719001439
13719007603
13719013829
13719018162
13719023839
13719029454
13719036900
13719042271
13719047703
13719052342
13719058140
13719063267
13719070347
13719075718
13719082371
13719087742
13719095128
13719100560
13719105259
13719112461
13719119297
13719125767
13719134556
13719139073
13719145970
13719151585
13719158482
13719164891
13719169407
13719175572
13719180088
13719185887
13719190342
13719195103
13719200901
13719205540
13719211094
13719216709
13719221104
13719227390
13719232639
13719237583
13719242466
13719248447
13719254490
13719258518
13719263218
13719269566
13719276096
13719280125
13719286594
13719291111
13719298191
13719301365
13719309055
13719315281
13719323398
13719330295
13719338840
13719345554
13719355137
13719361545
13719371677
13719378513
13719385532
13719394993
13719400791
13719411228
13719417881
13719425449
13719429966
13719443027
13719452610
13719459934
13719465854
13719474521
13719483921
13719489963
13719498935
13719507541
13719515476
13719523898
13719530307
13719538120
13719546176
13719554111
13719561374
13719568637
13719577304
13719581699
13719592197
13719598544
13719609042
13719615695
13719624850
13719633273
13719638339
13719648166
13719655002
13719664584
13719670504
13719680514
13719688571
13719696078
13719702853
13719710849
13719718295
13719728122
13719732699
13719743319
13719749850
13719759555
13719765719
13719773715
13719780978
13719792208
13719798800
13719805758
13719813876
13719820467
13719831698
13719839449
13719847384
13719856905
13719864901
13719872225
13719881319
13719889986
13719899569
13719908724
13719919344
13719931917
13719940645
13719949251
13719956453
13719964571
13719970919
13719979525
13719988863
13719997591
13720006197
13720013582
13720024202
13720030489
13720041414
13720049532
13720059358
13720067354
13720073152
13720082002
13720088533
13720095369
13720105379
13720110689
13720121370
13720128999
13720136507
13720143160
13720153780
13720161287
13720169405
13720177034
13720185518
13720193513
13720201997
13720209383
13720217195
13720223726
13720232515
13720239107
13720247529
13720255586
13720263276
13720272554
13720279268
13720289033
13720295686
13720303010
13720309846
13720319673
13720327058
13720335481
13720340547
13720348481
13720355928
13720362763
13720370027
13720377046
13720385346
13720392182
13720399323
13720408296
13720414948
13720421174
13720427400
13720434296
13720441743
13720449067
13720456330
13720463898
13720471284
13720478364
13720485383
13720492951
13720502228
13720510346
13720516205
13720524933
13720531037
13720539887
13720545930
13720553193
13720562958
13720570405
13720579865
13720586945
13720593720
13720601654
13720608612
13720615631
13720622956
13720628083
13720638825
13720646698
13720654389
13720660797
13720670197
13720678192
13720686188
13720696259
13720704926
13720712799
13720721649
13720726349
13720739594
13720746124
13720753510
13720760101
13720767670
13720773102
13720778412
13720782379
13720788177
13720794464
13720799469
13720802765
13720810699
13720814972
13720820404
13720824982
13720828949
13720835174
13720839752
13720846588
13720850738
13720857147
13720860504
13720868377
13720873077
13720879913
13720884185
13720889984
13720895599
13720902069
13720906280
13720912078
13720917389
13720922882
13720929290
13720935455
13720940765
13720946746
13720951690
13720957550
13720964569
13720968780
13720976104
13720981475
13720989410
13720995147
13720998138
13721006378
13721011932
13721017730
13721022369
13721027252
13721034576
13721039947
13721045379
13721050872
13721055633
13721062408
13721067413
13721073760
13721078399
13721084502
13721089385
13721095428
13721099944
13721106353
13721110930
13721115996
13721123565
13721129790
13721134612
13721140227
13721146941
13721151641
13721157195
13721162322
13721167876
13721173674
13721179107
13721184539
13721190459
13721195525
13721202605
13721207976
13721213408
13721219451
13721225859
13721231414
13721237883
13721243315
13721248503
13721255217
13721260710
13721266753
13721272612
13721279509
13721284697
13721290129
13721297637
13721303374
13721309111
13721314604
13721321745
13721330779
13721336882
13721342314
13721348051
13721353239
13721358305
13721363860
13721370024
13721377043
13721381255
13721385588
13721393523
13721398527
13721406096
13721410185
13721416716
13721421293
13721427580
13721434721
13721439787
13721445707
13721452788
13721456999
13721462309
13721469755
13721475432
13721480925
13721484709
13721489958
13721495268
13721499723
13721505339
13721511747
13721515654
13721521513
13721526457
13721531462
13721537321
13721541960
13721546904
13721552946
13721560758
13721565763
13721571134
13721577543
13721582060
13721587065
13721592008
13721597563
13721604093
13721609586
13721612211
13721620695
13721627165
13721635893
13721642423
13721650724
13721660307
13721668851
13721675138
13721683561
13721691190
13721699857
13721707120
13721714017
13721721952
13721730802
13721739225
13721743375
13721753812
13721760404
13721770780
13721777128
13721784269
13721794584
13721802823
13721810025
13721817960
13721825406
13721834622
13721841947
13721848966
13721856778
13721864530
13721872403
13721879178
13721889554
13721896085
13721904141
13721913175
13721918363
13721928189
13721936246
13721946072
13721954861
13721961636
13721967923
13721979092
13721986111
13721996304
13722006375
13722012906
13722024380
13722031766
13722040616
13722048550
13722055996
13722066739
13722073147
13722083584
13722089932
13722097989
13722105008
13722114285
13722121548
13722130154
13722139187
13722145108
13722153836
13722159756
13722169461
13722176602
13722184048
13722193447
13722200832
13722209072
13722216396
13722220730
13722231716
13722239346
13722247585
13722254116
13722264187
13722271328
13722280666
13722287868
13722297146
13722303615
13722311733
13722319668
13722328396
13722335903
13722342251
13722352993
13722359646
13722367702
13722375271
13722384426
13722391445
13722401455
13722407985
13722417141
13722423427
13722430751
13722440761
13722449672
13722457424
13722463344
13722473537
13722481716
13722489528
13722495387
13722503383
13722513027
13722519496
13722529079
13722535182
13722543544
13722552211
13722558559
13722568202
13722576869
13722582118
13722591518
13722598292
13722605678
13722615809
13722623744
13722629725
13722637904
13722645900
13722654628
13722661036
13722670497
13722677638
13722684657
13722694178
13722700831
13722708705
13722717799
13722725306
13722731837
13722740382
13722749537
13722757594
13722765711
13722771937
13722780787
13722788844
13722795985
13722802149
13722812220
13722823145
13722829615
13722840540
13722848658
13722858485
13722865260
13722872645
13722883753
13722894739
13722901148
13722911951
13722918665
13722926233
13722935572
13722941553
13722951502
13722959559
13722967737
13722974207
13722984400
13722991602
13722999598
13723007410
13723015955
13723024073
13723032190
13723040125
13723048853
13723055811
13723064539
13723070825
13723081079
13723087854
13723096094
13723105737
13723111414
13723118860
13723125208
13723131128
13723136011
13723141626
13723148218
13723154199
13723159204
13723164758
13723169458
13723176050
13723180566
13723185754
13723192712
13723199792
13723204309
13723210412
13723215417
13723222192
13723227319
13723231836
13723237939
13723243066
13723250207
13723256189
13723261926
13723265100
13723271814
13723276696
13723281579
13723289697
13723293969
13723300561
13723305871
13723311547
13723316369
13723322045
13723327172
13723334924
13723339990
13723346093
13723352380
13723356591
13723362451
13723368737
13723373254
13723379357
13723384118
13723389123
13723396081
13723400597
13723407617
13723412499
13723417565
13723422875
13723428674
13723435998
13723441491
13723446984
13723451867
13723458092
13723463708
13723468163
13723473656
13723479821
13723486718
13723492272
13723496972
13723503380
13723509057
13723515465
13723521813
13723529076
13723537133
13723542748
13723549279
13723555382
13723561120
13723565453
13723572289
13723579308
13723584679
13723590538
13723594994
13723600609
13723606346
13723611229
13723618431
13723623497
13723628380
13723634606
13723639733
13723645104
13723650048
13723654381
13723660851
13723665550
13723671105
13723678307
13723683800
13723688255
13723694298
13723699303
13723705162
13723710655
13723714928
13723720848
13723727501
13723733177
13723737755
13723744041
13723749290
13723755760
13723760277
13723765221
13723771385
13723777794
13723784263
13723788231
13723794456
13723799522
13723805565
13723812523
13723818809
13723824974
13723830467
13723835228
13723843223
13723849144
13723854881
13723860069
13723864891
13723872642
13723877037
13723883567
13723887474
13723894859
13723900535
13723905601
13723911033
13723916954
13723922874
13723928489
13723933799
13723940025
13723944786
13723950340
13723954856
13723960288
13723967491
13723971519
13723977989
13723982505
13723989219
13723994895
13723999839
13724005210
13724015769
13724023216
13724031577
13724035789
13724045371
13724052634
13724063743
13724070762
13724077476
13724088340
13724094565
13724105491
13724111899
13724120810
13724130210
13724136863
13724144004
13724154563
13724161582
13724170310
13724180686
13724188010
13724199301
13724207419
13724217795
13724225608
13724235739
13724244712
13724256064
13724266318
13724272543
13724280600
13724288107
13724298483
13724305930
13724314291
13724322104
13724330344
13724339926
13724347922
13724352194
13724363303
13724372397
13724378683
13724388449
13724396689
13724404928
13724413046
13724417502
13724429159
13724438315
13724444723
13724454001
13724462179
13724469259
13724478842
13724485373
13724494650
13724503500
13724509176
13724518698
13724525839
13724535177
13724542745
13724550192
13724559713
13724566915
13724573446
13724584676
13724591696
13724600485
13724609274
13724617818
13724626608
13724634664
13724639486
13724651754
13724659444
13724667989
13724675741
13724683980
13724691060
13724699178
13724708822
13724716939
13724723775
13724731832
13724741048
13724749288
13724755880
13724764791
13724772176
13724782796
13724789388
13724799703
13724806417
13724812886
13724822469
13724830159
13724840169
13724846272
13724856160
13724862813
13724872212
13724880391
13724887776
13724894307
13724904500
13724910909
13724919087
13724928731
13724936299
13724945332
13724953328
13724959920
13724970723
13724977559
13724987691
13724994710
13725002705
13725011311
13725022664
13725029622
13725039204
13725049763
13725058918
13725064473
13725076008
13725085896
13725094807
13725103657
13725112263
13725121296
13725129841
13725137470
13725145771
13725153340
13725161335
13725170185
13725178425
13725185383
13725194721
13725201252
13725209797
13725218769
13725225666
13725235249
13725240986
13725250935
13725258015
13725267597
13725274860
13725284687
13725290790
13725300373
13725308002
13725315388
13725325580
13725332905
13725339618
13725349933
13725357563
13725364948
13725372638
13725380878
13725388996
13725397358
13725406391
13725414508
13725422504
13725431415
13725439166
13725448139
13725455646
13725463947
13725470661
13725479938
13725489032
13725497882
13725504474
13725510944
13725518512
13725524921
13725529437
13725535175
13725541644
13725546344
13725552875
13725557574
13725563007
13725568439
13725575214
13725580218
13725585284
13725590533
13725597674
13725602191
13725609332
13725613727
13725620929
13725625628
13725631793
13725636920
13725642474
13725648456
13725654437
13725659930
13725665667
13725671954
13725677508
13725682635
13725688311
13725692889
13725700091
13725706317
13725713885
13725717791
13725723345
13725729388
13725735491
13725739092
13725747515
13725754717
13725760272
13725767291
13725773333
13725778460
13725785479
13725792620
13725799700
13725806658
13725812029
13725818804
13725824847
13725830096
13725834978
13725839922
13725846758
13725852496
13725859270
13725864886
13725870745
13725876482
13725881853
13725887652
13725893328
13725899248
13725904497
13725910479
13725915972
13725920733
13725929094
13725934343
13725940142
13725946184
13725952044
13725958330
13725964251
13725969439
13725975237
13725980181
13725985857
13725991472
13725999285
13726005022
13726011858
13726017412
13726023271
13726029436
13726035784
13726042864
13726048845
13726054399
13726060381
13726067156
13726072954
13726077226
13726083574
13726088152
13726096758
13726102373
13726108293
13726114519
13726119585
13726124345
13726131303
13726136308
13726142046
13726147722
13726154130
13726160295
13726166399
13726171648
13726177568
13726182512
13726189409
13726195146
13726200517
13726206926
13726211809
13726217729
13726222612
13726229753
13726234941
13726240922
13726246171
13726252153
13726258256
13726262712
13726268815
13726274491
13726278886
13726286332
13726292192
13726295854
13726303727
13726309648
13726313371
13726319108
13726325517
13726331681
13726339067
13726342301
13726349992
13726355241
13726361588
13726366898
13726374223
13726380021
13726385819
13726395341
13726401872
13726413468
13726419999
13726431351
13726438065
13726448441
13726455094
13726461747
13726470658
13726477433
13726484940
13726492631
13726499833
13726507767
13726515030
13726524125
13726528641
13726537552
13726545792
13726553910
13726557755
13726567521
13726578080
13726585587
13726592545
13726600418
13726606400
13726614334
13726622025
13726629471
13726636063
13726644913
13726654495
13726661637
13726668778
13726675186
13726683304
13726692154
13726700455
13726709061
13726717300
13726725662
13726733780
13726738419
13726749771
13726756363
13726766067
13726773331
13726780777
13726790359
13726796341
13726806167
13726814468
13726821853
13726828567
13726836868
13726846328
13726854934
13726863540
13726871170
13726878128
13726885696
13726892654
13726900100
13726907669
13726915359
13726922561
13726930191
13726936721
13726946304
13726952712
13726960769
13726969558
13726977248
13726981643
13726991164
13726997573
13727007217
13727013564
13727021377
13727033157
13727041030
13727047988
13727057693
13727064040
13727072585
13727080276
13727091018
13727097121
13727107375
13727114943
13727122756
13727129897
13727137954
13727147414
13727155593
13727163649
13727173903
13727181960
13727190322
13727200026
13727209426
13727215590
13727226699
13727238356
13727245253
13727252089
13727263075
13727271254
13727278334
13727286025
13727296095
13727305251
13727312086
13727318373
13727329604
13727338393
13727346754
13727360548
13727373121
13727380873
13727388869
13727396254
13727404432
13727411451
13727418104
13727426649
13727435621
13727443800
13727451368
13727459669
13727466200
13727475355
13727484449
13727492933
13727499708
13727508680
13727517225
13727523390
13727533338
13727539625
13727547132
13727556288
13727563917
13727574293
13727583509
13727592054
13727599989
13727608228
13727615675
13727623182
13727631605
13727639234
13727647230
13727653699
13727663831
13727670362
13727679578
13727685987
13727696119
13727702833
13727709730
13727719373
13727727491
13727734998
13727742383
13727750867
13727758985
13727767224
13727776502
13727784436
13727792188
13727798780
13727807935
13727816114
13727822522
13727831189
13727840039
13727849194
13727855786
13727865125
13727873303
13727879895
13727883984
13727888318
13727895520
13727901563
13727907422
13727912305
13727919263
13727923901
13727929700
13727935010
13727939343
13727946423
13727951245
13727958569
13727962964
13727969617
13727974011
13727979321
13727987378
13727996472
13727999768
13728007275
13728012219
13728019665
13728026745
13728030529
13728038281
13728043469
13728048779
13728053112
13728059094
13728064709
13728069287
13728074414
13728080700
13728085156
13728091137
13728095532
13728100476
13728106030
13728110607
13728115307
13728122448
13728128552
13728133496
13728139111
13728144909
13728149792
13728155285
13728160595
13728166332
13728174023
13728178051
13728182507
13728189037
13728199047
13728203686
13728210217
13728214611
13728219860
13728226513
13728231823
13728238171
13728243603
13728249035
13728255199
13728261486
13728267834
13728273022
13728279980
13728284801
13728290111
13728295971
13728301037
13728305126
13728310863
13728317882
13728322948
13728326915
13728332836
13728337597
13728343212
13728349681
13728354015
13728361400
13728366771
13728371837
13728376598
13728382518
13728388011
13728393566
13728399425
13728405040
13728409923
13728417308
13728421581
13728428173
13728432628
13728437633
13728444164
13728449352
13728454723
13728462047
13728467052
13728471446
13728477550
13728482616
13728488170
13728494395
13728498912
13728503734
13728510875
13728515392
13728520396
13728527599
13728532237
13728539195
13728544383
13728550120
13728557262
13728563060
13728569224
13728576854
13728582042
13728588328
13728593821
13728600108
13728606395
13728612010
13728617747
13728624644
13728629832
13728636424
13728641734
13728646434
13728652537
13728657725
13728663218
13728667979
13728673777
13728678538
13728683482
13728689097
13728695628
13728700328
13728704905
13728711802
13728716563
13728721690
13728728648
13728737376
13728745555
13728752940
13728760325
13728768260
13728775828
13728783884
13728790232
13728799448
13728807444
13728817088
13728823435
13728830637
13728838816
13728846751
13728854380
13728863169
13728870554
13728879954
13728890024
13728895212
13728905222
13728913645
13728921091
13728928904
13728938791
13728945078
13728953318
13728963266
13728971262
13728975656
13728985788
13728994821
13729003000
13729010446
13729018442
13729025400
13729035044
13729041391
13729047861
13729057443
13729064157
13729071848
13729080393
13729088632
13729096750
13729104807
13729112009
13729120615
13729128183
13729136362
13729143442
13729152658
13729159555
13729166452
13729175973
13729183908
13729191842
13729199899
13729207406
13729214853
13729222970
13729230722
13729239206
13729245919
13729255807
13729264596
13729271127
13729280831
13729286813
13729296334
13729302560
13729312570
13729321054
13729328439
13729334542
13729346749
13729359445
13729368478
13729377145
13729384347
13729392953
13729399972
13729409066
13729420357
13729427865
13729435067
13729444100
13729451546
13729458016
13729468636
13729475716
13729483773
13729490731
13729500863
13729508370
13729517037
13729524361
13729532479
13729539315
13729548470
13729555123
13729563912
13729570687
13729579842
13729587410
13729593697
13729602486
13729609505
13729619759
13729628609
13729636055
13729644051
13729652657
13729660042
13729668037
13729672432
13729683174
13729689461
13729698067
13729707588
13729714424
13729721809
13729729439
13729738533
13729746895
13729757698
13729765205
13729772713
13729779304
13729788521
13729796638
13729804878
13729815132
13729837288
13729850288
13729863472
13729877632
13729889595
13729901313
13729912177
13729923469
13729931220
13729938728
13729946235
13729951850
13729959235
13729966438
13729974006
13729981147
13729988532
13729995734
13730003242
13730011176
13730018623
13730025764
13730035590
13730038764
13730050361
13730057624
13730064765
13730071967
13730078681
13730086127
13730096503
13730103705
13730112250
13730119941
13730127448
13730136542
13730145209
13730151496
13730162726
13730167365
13730180548
13730188544
13730197516
13730207221
13730216315
13730226874
13730235907
13730247382
13730254401
13730260809
13730267889
13730278937
13730286200
13730291510
13730296820
13730301703
13730306769
13730311041
13730315741
13730320563
13730326178
13730330756
13730335577
13730340887
13730345770
13730350470
13730354986
13730360052
13730366095
13730371100
13730373724
13730380804
13730385199
13730389471
13730395331
13730400274
13730406195
13730411017
13730415289
13730419928
13730425970
13730430731
13730435980
13730440191
13730447271
13730455450
13730461431
13730466680
13730473089
13730479254
13730486639
13730494024
13730499884
13730505010
13730510382
13730513372
13730520513
13730526617
13730531072
13730535650
13730541754
13730545904
13730551214
13730557867
13730564153
13730568792
13730573492
13730579656
13730584234
13730591253
13730595647
13730601446
13730605779
13730613470
13730619390
13730624883
13730629827
13730635808
13730640935
13730646734
13730653264
13730658025
13730663335
13730669256
13730676397
13730682134
13730687383
13730693425
13730698430
13730702642
13730708684
13730713689
13730721929
13730727239
13730731755
13730737310
13730740667
13730748357
13730754094
13730760869
13730767766
13730776128
13730780522
13730788579
13730793889
13730799748
13730805303
13730812627
13730824040
13730830083
13730836125
13730841252
13730846501
13730851323
13730857671
13730863408
13730868962
13730875249
13730881108
13730886418
13730892461
13730897527
13730902715
13730910283
13730915776
13730922063
13730926396
13730933415
13730939091
13730944890
13730950383
13730955571
13730959904
13730966923
13730972783
13730976933
13730983464
13730987553
13730994267
13730999760
13731005375
13731010319
13731016789
13731021428
13731028325
13731032353
13731038334
13731043950
13731049992
13731057682
13731061772
13731068302
13731072941
13731077519
13731084782
13731091557
13731099858
13731111149
13731117375
13731125858
13731133427
13731140507
13731148441
13731155705
13731162602
13731170902
13731180302
13731188480
13731192875
13731203068
13731210026
13731219730
13731225895
13731233219
13731243717
13731251163
13731260563
13731266727
13731276127
13731281803
13731292301
13731299320
13731307254
13731315494
13731323368
13731328067
13731339054
13731345646
13731354007
13731361026
13731370914
13731377506
13731386051
13731393985
13731402591
13731409976
13731416995
13731425540
13731433719
13731439761
13731449954
13731458377
13731464847
13731473575
13731481021
13731491641
13731498416
13731507693
13731516177
13731523990
13731531436
13731538882
13731547488
13731556521
13731565127
13731573550
13731580691
13731588015
13731599063
13731605288
13731615481
13731622256
13731630191
13731640384
13731649173
13731660159
13731666995
13731676516
13731682742
13731692507
13731699771
13731707095
13731716433
13731724246
13731731265
13731739260
13731745913
13731754397
13731763125
13731771792
13731778323
13731786868
13731793703
13731802187
13731811770
13731817751
13731827090
13731829226
13731843020
13731849428
13731857546
13731865297
13731873720
13731881777
13731890505
13731897463
13731907106
13731913515
13731921633
13731931215
13731938051
13731947512
13731952822
13731963381
13731971193
13731978639
13731985659
13731993959
13732002138
13732010500
13732018923
13732026979
13732031496
13732041750
13732050234
13732056398
13732066286
13732072389
13732082094
13732088502
13732099062
13732105653
13732113649
13732120790
13732129091
13732139650
13732147829
13732154848
13732162904
13732169862
13732178834
13732187440
13732195558
13732202760
13732211305
13732218690
13732226258
13732234315
13732242311
13732251039
13732258729
13732266908
13732274781
13732282960
13732287355
13732297914
13732304444
13732312257
13732322206
13732327821
13732338929
13732350404
13732357972
13732365357
13732376099
13732385682
13732394593
13732401185
13732411683
13732422303
13732431763
13732440430
13732447571
13732456910
13732463502
13732471314
13732478821
13732486268
13732496766
13732502808
13732510987
13732518982
13732527466
13732531800
13732542664
13732553284
13732561646
13732569641
13732577698
13732584168
13732592957
13732601441
13732606751
13732612000
13732618714
13732623902
13732629028
13732634461
13732640747
13732646240
13732651795
13732656006
13732664551
13732669434
13732673828
13732681641
13732686645
13732693237
13732697754
13732703674
13732711975
13732717468
13732722473
13732725403
13732734558
13732739441
13732745056
13732751037
13732755310
13732762756
13732768188
13732772705
13732778503
13732784851
13732788574
13732795532
13732800049
13732807251
13732813598
13732819091
13732824340
13732829406
13732835083
13732841064
13732846923
13732852356
13732857788
13732863769
13732868713
13732874328
13732880187
13732883850
13732890502
13732896423
13732901061
13732906494
13732911498
13732916931
13732922424
13732927306
13732932739
13732939269
13732944763
13732949584
13732955077
13732959655
13732966674
13732973266
13732977172
13732985046
13732989379
13732995605
13733003051
13733008849
13733015990
13733021056
13733026366
13733035338
13733040893
13733046996
13733052733
13733059447
13733064635
13733071593
13733077086
13733080871
13733089049
13733093322
13733099975
13733106566
13733112059
13733116698
13733123534
13733128722
13733135009
13733140807
13733145385
13733154113
13733158202
13733165160
13733171019
13733176146
13733181395
13733187010
13733192320
13733197814
13733202941
13733209227
13733219420
13733225707
13733228514
13733235716
13733240111
13733246825
13733253783
13733259337
13733263792
13733268858
13733275755
13733280699
13733285765
13733292296
13733297850
13733302916
13733308348
13733314146
13733320433
13733326536
13733332396
13733335325
13733342589
13733347349
13733355406
13733361754
13733366209
13733371214
13733377623
13733383055
13733388548
13733393919
13733397947
13733403929
13733409849
13733414061
13733418638
13733426634
13733431150
13733437315
13733442869
13733449156
13733454344
