14018592408
14018603638
14018612732
14018622315
14018633362
14018642151
14018652710
14018661743
14018672303
14018681092
14018690796
14018701294
14018710022
14018719849
14018729859
14018739258
14018748840
14018758545
14018767151
14018778076
14018787231
14018796692
14018807495
14018817139
14018825867
14018837158
14018847778
14018858459
14018868530
14018878967
14018886474
14018896789
14018906982
14018916504
14018926635
14018936767
14018945434
14018958129
14018972778
14018984436
14018994873
14019006408
14019015685
14019029479
14019039733
14019050414
14019062072
14019071655
14019086852
14019101318
14019112609
14019122985
14019134215
14019145324
14019160460
14019171020
14019180968
14019196044
14019206359
14019216796
14019225890
14019236937
14019245543
14019255919
14019265258
14019275450
14019283385
14019296263
14019305419
14019316893
14019325743
14019335082
14019346434
14019355711
14019366209
14019377196
14019389586
14019398558
14019408751
14019419981
14019427550
14019439146
14019448729
14019456968
14019466612
14019474974
14019484129
14019495970
14019504088
14019516050
14019524961
14019534788
14019543455
14019552671
14019559507
14019566709
14019572813
14019578977
14019586546
14019592161
14019598142
14019603819
14019611692
14019616514
14019624449
14019630735
14019636656
14019642698
14019648069
14019654356
14019659788
14019665830
14019671323
14019677671
14019685484
14019691892
14019698789
14019705259
14019711423
14019717832
14019724973
14019731321
14019736143
14019742002
14019748472
14019755735
14019762754
14019770200
14019775693
14019782834
14019789365
14019794675
14019800779
14019806516
14019813108
14019819272
14019826596
14019832212
14019837217
14019843930
14019851987
14019860654
14019868405
14019877866
14019886716
14019895749
14019902646
14019910214
14019918820
14019930478
14019936459
14019943906
14019950620
14019957089
14019963681
14019971127
14019978390
14019984311
14019989621
14019997678
14020003720
14020010922
14020018674
14020024960
14020032529
14020037778
14020045102
14020050839
14020057736
14020063656
14020069516
14020076352
14020081906
14020087094
14020092465
14020100888
14020106808
14020111691
14020117550
14020124325
14020129940
14020135067
14020143063
14020150265
14020156002
14020163388
14020168392
14020174130
14020180355
14020187496
14020195248
14020202572
14020209164
14020216366
14020223019
14020229672
14020237484
14020245663
14020252438
14020259579
14020265926
14020271786
14020278072
14020284542
14020292965
14020301144
14020305782
14020314571
14020321224
14020328121
14020334408
14020340938
14020349544
14020355648
14020363827
14020370357
14020375667
14020381771
14020389156
14020393917
14020403255
14020410396
14020416805
14020423763
14020431331
14020437374
14020445125
14020451229
14020456050
14020461421
14020466426
14020474056
14020480159
14020486263
14020493648
14020500728
14020507137
14020512142
14020518489
14020523921
14020529109
14020534602
14020540157
14020544856
14020550166
14020553890
14020559077
14020563960
14020568416
14020574947
14020578853
14020584895
14020588618
14020591853
14020597713
14020605220
14020610469
14020614802
14020620051
14020625361
14020630305
14020635798
14020641597
14020647395
14020653071
14020659541
14020664058
14020668696
14020673457
14020678401
14020683467
14020688899
14020693354
14020698237
14020701167
14020706843
14020712886
14020717280
14020722590
14020731196
14020737117
14020740779
14020745845
14020750117
14020754084
14020758906
14020765803
14020769831
14020775386
14020779719
14020785823
14020791804
14020794734
14020801692
14020808894
14020814570
14020820124
14020823847
14020830622
14020834345
14020839472
14020845698
14020852900
14020857844
14020863642
14020869074
14020873774
14020878840
14020884882
14020889460
14020895075
14020900324
14020905878
14020910578
14020916376
14020921625
14020927912
14020933100
14020938532
14020945490
14020951533
14020957819
14020961298
14020967157
14020974054
14020979853
14020985956
14020992487
14020999994
14021005854
14021012629
14021017389
14021023920
14021029352
14021035883
14021042353
14021049127
14021053644
14021061457
14021066950
14021072016
14021077692
14021081781
14021086664
14021092768
14021098017
14021102838
14021107965
14021112970
14021115778
14021122369
14021129450
14021134576
14021140192
14021144708
14021149713
14021154047
14021160333
14021164056
14021170038
14021178094
14021183099
14021188470
14021193475
14021197870
14021202997
14021207880
14021213678
14021220697
14021226678
14021232965
14021240472
14021247552
14021256646
14021266534
14021274652
14021283258
14021290765
14021297113
14021306268
14021312432
14021320001
14021328851
14021336419
14021342340
14021352105
14021358270
14021365350
14021372186
14021380792
14021387139
14021394952
14021402520
14021410150
14021417657
14021423577
14021430047
14021436578
14021442620
14021451531
14021458550
14021464898
14021473260
14021479607
14021486443
14021492791
14021501885
14021511529
14021518365
14021524712
14021531243
14021538140
14021545159
14021553826
14021561272
14021571343
14021577813
14021583611
14021590325
14021598687
14021604790
14021612725
14021619194
14021628411
14021635369
14021642510
14021649468
14021659233
14021662956
14021674126
14021683159
14021690300
14021697685
14021705559
14021714287
14021722160
14021730522
14021738518
14021748405
14021754875
14021761955
14021768425
14021777336
14021781914
14021791984
14021800712
14021808159
14021815727
14021822502
14021830009
14021837150
14021844475
14021851372
14021859733
14021866752
14021872246
14021880668
14021886833
14021893547
14021900749
14021908073
14021915641
14021922844
14021931205
14021937370
14021944511
14021950614
14021957939
14021967094
14021976310
14021983085
14021990043
14021998283
14022005119
14022011527
14022018485
14022026542
14022035270
14022042167
14022049369
14022055961
14022063407
14022071220
14022079032
14022087760
14022095634
14022102897
14022110343
14022116874
14022124625
14022133292
14022140800
14022148124
14022155936
14022164054
14022171744
14022177970
14022185172
14022193290
14022201163
14022209464
14022217093
14022224112
14022233451
14022241080
14022247916
14022253958
14022263419
14022271536
14022277030
14022285513
14022293021
14022302908
14022309500
14022315115
14022323233
14022333548
14022340811
14022348319
14022357657
14022364310
14022370962
14022378592
14022390616
14022399527
14022407339
14022414603
14022423697
14022431387
14022439810
14022448355
14022456717
14022463675
14022470999
14022478689
14022486563
14022493277
14022500540
14022507254
14022515676
14022522634
14022530264
14022536795
14022542959
14022551382
14022556753
14022565603
14022573232
14022579458
14022585745
14022589590
14022595266
14022600027
14022605947
14022611685
14022617239
14022623159
14022627981
14022633047
14022638113
14022643057
14022647939
14022655019
14022660451
14022665762
14022671194
14022676382
14022682546
14022686330
14022692434
14022700063
14022706289
14022709463
14022715749
14022722463
14022728628
14022734243
14022739980
14022746450
14022750417
14022756276
14022761403
14022767385
14022772207
14022777517
14022781423
14022791188
14022797292
14022803457
14022811269
14022817067
14022823171
14022829274
14022835195
14022841237
14022845937
14022851735
14022855092
14022862783
14022868764
14022874318
14022879994
14022886464
14022890004
14022896779
14022902028
14022908070
14022913320
14022919972
14022924428
14022930287
14022935902
14022942067
14022947133
14022952748
14022957997
14022964101
14022968556
14022975148
14022981129
14022987782
14022997609
14023005849
14023012257
14023016774
14023026356
14023032582
14023037831
14023045643
14023051014
14023057606
14023065358
14023071095
14023078297
14023084156
14023088307
14023093373
14023098439
14023104603
14023109547
14023115101
14023120472
14023126576
14023131703
14023137806
14023143055
14023148915
14023153553
14023158314
14023164051
14023168568
14023175587
14023180775
14023186512
14023191151
14023197376
14023202503
14023207996
14023214100
14023220448
14023226246
14023230274
14023236195
14023241200
14023246449
14023253040
14023258594
14023265186
14023270618
14023274464
14023280811
14023287037
14023291248
14023297352
14023303882
14023310718
14023315235
14023320789
14023326832
14023331714
14023336658
14023343372
14023348804
14023356128
14023361744
14023369617
14023373157
14023380237
14023385181
14023390796
14023395923
14023401783
14023406726
14023412830
14023418994
14023424976
14023432849
14023441089
14023448902
14023457019
14023466724
14023474231
14023483692
14023490222
14023497974
14023504749
14023513171
14023520984
14023528247
14023538440
14023542896
14023552295
14023559558
14023569019
14023575671
14023583179
14023589709
14023597949
14023605640
14023614917
14023621631
14023628161
14023635486
14023647143
14023655749
14023663989
14023672107
14023679675
14023687365
14023695910
14023704394
14023716052
14023726916
14023734057
14023743212
14023755175
14023762683
14023770129
14023778002
14023785571
14023793994
14023801318
14023810229
14023818285
14023824816
14023832873
14023842760
14023850756
14023857714
14023867297
14023874560
14023881762
14023889635
14023897631
14023908007
14023914294
14023919909
14023928271
14023936083
14023942736
14023951037
14023957934
14023965136
14023973986
14023979052
14023988390
14023996080
14024002550
14024009264
14024018236
14024025499
14024032274
14024038683
14024047594
14024052477
14024059435
14024070604
14024078661
14024086473
14024094103
14024101244
14024107042
14024116380
14024121507
14024132066
14024140794
14024147691
14024153612
14024163072
14024169603
14024176317
14024184312
14024190172
14024198656
14024207994
14024214891
14024221849
14024229600
14024236497
14024245103
14024256395
14024262559
14024270311
14024278184
14024285875
14024293382
14024300340
14024307603
14024318284
14024326707
14024333482
14024340745
14024347093
14024353929
14024360398
14024368272
14024377000
14024384080
14024389634
14024397508
14024407761
14024416062
14024423570
14024434007
14024442429
14024452195
14024460557
14024473923
14024482651
14024490952
14024499314
14024506150
14024514023
14024520127
14024528184
14024534226
14024541123
14024552475
14024559922
14024567002
14024573655
14024580185
14024587021
14024594773
14024601487
14024610398
14024617966
14024625656
14024632920
14024639817
14024646775
14024653488
14024662766
14024669357
14024678269
14024685593
14024691757
14024699143
14024705429
14024713120
14024721176
14024728317
14024734970
14024743088
14024749496
14024757980
14024764755
14024774399
14024783310
14024791122
14024797714
14024805038
14024810959
14024815841
14024822128
14024825912
14024832138
14024839279
14024845138
14024850082
14024856918
14024863083
14024868148
14024874130
14024877853
14024884140
14024891830
14024895492
14024900558
14024906356
14024911972
14024917892
14024923996
14024930038
14024935470
14024940780
14024947250
14024952133
14024958480
14024963668
14024968002
14024974227
14024979843
14024985885
14024990951
14024997604
14025002670
14025007369
14025011825
14025019454
14025024703
14025030563
14025037460
14025043014
14025048324
14025054061
14025059798
14025066146
14025073470
14025079574
14025085799
14025091292
14025097518
14025103316
14025109786
14025117599
14025123031
14025129806
14025136153
14025141890
14025147811
14025152694
14025157210
14025163619
14025169112
14025174605
14025179671
14025184432
14025189009
14025195296
14025200301
14025206160
14025212020
14025222701
14025228194
14025233687
14025238143
14025245223
14025249251
14025255660
14025263045
14025269026
14025275252
14025280867
14025285628
14025291731
14025296431
14025302596
14025310408
14025315230
14025320357
14025325362
14025331831
14025337263
14025342207
14025347517
14025353743
14025360457
14025367964
14025372969
14025378706
14025383223
14025390364
14025394942
14025401350
14025407210
14025413679
14025418867
14025425032
14025429732
14025435347
14025440169
14025446333
14025454390
14025458418
14025465315
14025470869
14025476362
14025481245
14025486799
14025492292
14025497725
14025504316
14025509932
14025514326
14025520430
14025524824
14025530989
14025536848
14025542585
14025548261
14025554182
14025559858
14025565351
14025570478
14025576277
14025582258
14025587690
14025595869
14025601911
14025607771
14025613203
14025618574
14025623518
14025629072
14025634077
14025640058
14025646467
14025653181
14025658918
14025665327
14025670820
14025677717
14025686628
14025696760
14025704816
14025712934
14025720991
14025728315
14025737714
14025746320
14025754743
14025763837
14025773114
14025781049
14025788800
14025796430
14025804364
14025813031
14025819318
14025827680
14025836347
14025845380
14025853253
14025861615
14025868817
14025876813
14025885297
14025891583
14025900983
14025908978
14025916547
14025925153
14025932538
14025940900
14025948041
14025956647
14025963727
14025971966
14025979413
14025986249
14025996075
14026001568
14026011090
14026016583
14026025250
14026034771
14026043622
14026051068
14026058636
14026065655
14026073651
14026082379
14026092205
14026099530
14026107586
14026115094
14026122540
14026130535
14026138104
14026146038
14026154705
14026164654
14026172405
14026179852
14026188091
14026194927
14026203045
14026210186
14026218853
14026227581
14026236492
14026244244
14026252422
14026259808
14026268108
14026275310
14026283428
14026291302
14026298687
14026306255
14026315410
14026323406
14026332317
14026339641
14026346782
14026355999
14026365764
14026373821
14026380840
14026391399
14026398967
14026407207
14026415081
14026421855
14026431621
14026439983
14026446819
14026453960
14026461833
14026469585
14026477153
14026487041
14026495525
14026504558
14026512798
14026526469
14026532756
14026540263
14026548625
14026553752
14026568034
14026575297
14026584086
14026595256
14026602458
14026612407
14026619365
14026629435
14026637065
14026644938
14026653056
14026660441
14026667399
14026675151
14026681987
14026691569
14026699076
14026706706
14026714091
14026721415
14026727946
14026736247
14026742533
14026749369
14026757121
14026764201
14026771525
14026779154
14026786540
14026794047
14026801066
14026808939
14026816325
14026826151
14026832926
14026840495
14026846476
14026854044
14026861796
14026869608
14026879130
14026883890
14026893900
14026898600
14026905497
14026913675
14026920756
14026929423
14026938456
14026946329
14026955484
14026962137
14026968973
14026976603
14026983805
14026990274
14026999796
14027006571
14027014383
14027020853
14027029032
14027036905
14027045206
14027053140
14027061258
14027070352
14027075662
14027086588
14027091592
14027101724
14027108804
14027116861
14027126138
14027135660
14027145059
14027150796
14027155435
14027162271
14027168008
14027173685
14027178445
14027184183
14027190652
14027196145
14027200418
14027205911
14027212259
14027218240
14027223672
14027227151
14027233072
14027239969
14027245706
14027250711
14027253701
14027261087
14027266519
14027271768
14027277932
14027284646
14027291665
14027297280
14027301797
14027306375
14027313577
14027318460
14027326699
14027331521
14027335977
14027340371
14027344522
14027348977
14027355813
14027360940
14027366311
14027372598
14027376992
14027381204
14027385720
14027389993
14027394692
14027401284
14027406533
14027411538
14027417397
14027422341
14027427590
14027432229
14027438393
14027443825
14027448586
14027453347
14027458535
14027464822
14027469521
14027473672
14027479592
14027483254
14027488808
14027493386
14027499367
14027504555
14027508889
14027513894
14027518837
14027524819
14027530495
14027536110
14027542336
14027547585
14027552468
14027557473
14027561989
14027567727
14027575539
14027579811
14027585854
14027589028
14027597329
14027600808
14027607521
14027612648
14027618874
14027623574
14027628945
14027634194
14027638954
14027644142
14027651100
14027654762
14027660378
14027667519
14027673378
14027678383
14027684059
14027688454
14027693581
14027698341
14027705238
14027711342
14027715797
14027720924
14027725990
14027731361
14027736916
14027739601
14027745766
14027752479
14027758217
14027763466
14027769203
14027773842
14027778297
14027783363
14027789039
14027794533
14027800270
14027806740
14027813026
14027819313
14027824928
14027832069
14027837257
14027844337
14027850990
14027856788
14027861854
14027867958
14027873817
14027881141
14027886573
14027892799
14027897499
14027903114
14027907508
14027913002
14027918617
14027923377
14027927833
14027933570
14027940956
14027948463
14027953224
14027961646
14027969276
14027976112
14027984046
14027991126
14027998817
14028007545
14028015296
14028024268
14028030189
14028039161
14028047034
14028054664
14028062293
14028068641
14028078040
14028083350
14028092566
14028101478
14028108680
14028115394
14028125159
14028132544
14028140296
14028147193
14028155249
14028162391
14028172644
14028181678
14028186927
14028198157
14028203101
14028212500
14028220496
14028229285
14028237280
14028245825
14028253333
14028261878
14028269324
14028276465
14028284644
14028291480
14028301856
14028308569
14028318823
14028324927
14028334936
14028341833
14028349951
14028357519
14028365698
14028372656
14028380896
14028390173
14028398474
14028402929
14028411902
14028419836
14028428076
14028437964
14028445288
14028452673
14028462439
14028470434
14028477331
14028485571
14028492651
14028501318
14028510290
14028518347
14028526525
14028535192
14028542455
14028551916
14028560766
14028569738
14028579504
14028586767
14028594335
14028602636
14028609838
14028618322
14028626379
14028633520
14028644506
14028653173
14028661108
14028668493
14028675695
14028682104
14028690282
14028696874
14028706151
14028713720
14028721532
14028728246
14028735570
14028742467
14028752355
14028759130
14028766576
14028773107
14028782384
14028788854
14028795934
14028802648
14028812841
14028818212
14028827611
14028834203
14028842198
14028851048
14028858373
14028864903
14028872350
14028879186
14028887303
14028895482
14028902867
14028910924
14028918248
14028925999
14028933812
14028940892
14028948094
14028957982
14028965123
14028973302
14028981175
14028989171
14028996190
14029004124
14029012059
14029020909
14029031285
14029037571
14029045140
14029053318
14029061253
14029068760
14029076207
14029084507
14029092137
14029101292
14029108677
14029118321
14029125645
14029133213
14029141880
14029151097
14029157505
14029166172
14029174168
14029181919
14029190647
14029198948
14029207127
14029214024
14029221714
14029230381
14029240452
14029247837
14029254429
14029262668
14029271152
14029279514
14029287693
14029295933
14029304600
14029312900
14029320102
14029328342
14029337436
14029344089
14029353183
14029361240
14029370212
14029379184
14029388767
14029397495
14029405857
14029414829
14029422763
14029428440
14029432956
14029443088
14029450778
14029456760
14029461948
14029468601
14029475070
14029479587
14029485141
14029489963
14029495395
14029500583
14029505832
14029510837
14029516025
14029521701
14029528171
14029533298
14029537387
14029541965
14029546542
14029552157
14029559299
14029563571
14029569003
14029574924
14029580050
14029586703
14029591403
14029595798
14029602511
14029606601
14029613254
14029620089
14029625644
14029630160
14029636142
14029642672
14029646029
14029652682
14029657809
14029664401
14029669101
14029674289
14029680148
14029687777
14029692599
14029697665
14029702975
14029710116
14029715609
14029721224
14029727389
14029733126
14029737887
14029744052
14029750399
14029756197
14029762179
14029767916
14029774142
14029778292
14029784579
14029790133
14029795321
14029800814
14029808016
14029812716
14029821932
14029832247
14029837313
14029842135
14029847140
14029853670
14029859591
14029865389
14029870333
14029874911
14029881991
14029886690
14029892245
14029898165
14029903536
14029909823
14029915682
14029921785
14029927279
14029931490
14029936617
14029942537
14029948580
14029955965
14029960970
14029967806
14029970919
14029977571
14029981905
14029987886
14029995088
14030003633
14030008699
14030013216
14030018221
14030023897
14030029451
14030034944
14030040376
14030048433
14030054048
14030059480
14030064180
14030069124
14030073641
14030077974
14030082674
14030089265
14030094148
14030098421
14030102998
14030107271
14030113802
14030117525
14030125093
14030131319
14030136201
14030140291
14030146333
14030150178
14030155916
14030160005
14030165559
14030170686
14030176118
14030180818
14030185945
14030190767
14030196931
14030201021
14030206086
14030210969
14030217317
14030222322
14030227693
14030233003
14030238069
14030242219
14030247651
14030254914
14030261384
14030269868
14030278169
14030285432
14030292756
14030300141
14030307038
14030315583
14030322541
14030329743
14030340791
14030348054
14030355256
14030362092
14030370088
14030377961
14030386628
14030394074
14030400788
14030408479
14030415620
14030425080
14030431000
14030439851
14030447419
14030455659
14030462861
14030470490
14030476838
14030487153
14030494660
14030501862
14030510163
14030518097
14030526093
14030534455
14030542389
14030548859
14030553803
14030564362
14030572785
14030580048
14030589936
14030597382
14030604706
14030613434
14030620453
14030627472
14030636444
14030646942
14030655609
14030664032
14030671600
14030679535
14030686737
14030693634
14030701263
14030711029
14030718536
14030727570
14030734222
14030743133
14030750152
14030758453
14030764618
14030773895
14030780609
14030787445
14030794891
14030801300
14030809967
14030816253
14030826934
14030834869
14030841827
14030848480
14030856536
14030863067
14030871673
14030877960
14030885162
14030892486
14030899810
14030905792
14030913665
14030922576
14030929473
14030935821
14030943023
14030951751
14030957305
14030964629
14030972076
14030980743
14030988067
14030994476
14031001373
14031008269
14031015655
14031022918
14031030425
14031036468
14031042510
14031051848
14031058929
14031066863
14031074920
14031081389
14031088225
14031095366
14031104522
14031112761
14031119658
14031126983
14031135039
14031142424
14031149260
14031156890
14031165252
14031173735
14031181548
14031192168
14031200896
14031208525
14031213896
14031221648
14031228972
14031236785
14031244109
14031251677
14031261504
14031269743
14031277861
14031285307
14031289458
14031297820
14031305083
14031313139
14031320525
14031329680
14031337126
14031346098
14031353728
14031362211
14031369597
14031375761
14031383574
14031391874
14031399992
14031407133
14031414641
14031422148
14031431791
14031439787
14031448271
14031458464
14031464933
14031472685
14031480680
14031490019
14031498319
14031504362
14031512724
14031522123
14031530851
14031538786
14031546232
14031552641
14031559965
14031568815
14031574125
14031582914
14031590665
14031597684
14031605070
14031613004
14031618192
14031625883
14031632841
14031641752
14031649869
14031656583
14031663846
14031670499
14031675382
14031681730
14031686368
14031692106
14031698514
14031703763
14031708585
14031714872
14031719266
14031724637
14031729459
14031735318
14031740506
14031746000
14031752042
14031757718
14031762540
14031767362
14031773221
14031776761
14031783841
14031789395
14031794522
14031800199
14031804898
14031810880
14031815640
14031820157
14031824002
14031831326
14031836392
14031842252
14031847012
14031852872
14031857510
14031862515
14031868436
14031874417
14031879422
14031884427
14031890225
14031894437
14031900052
14031912747
14031918973
14031924039
14031930142
14031934720
14031940274
14031945218
14031951321
14031957120
14031961148
14031968960
14031974637
14031979642
14031985745
14031990567
14031993985
14032000149
14032005398
14032012356
14032017178
14032023770
14032027249
14032034268
14032039395
14032044156
14032049649
14032055752
14032061795
14032068264
14032074124
14032079983
14032086026
14032093228
14032097195
14032103482
14032108914
14032115261
14032121609
14032128079
14032134792
14032141750
14032147183
14032153347
14032158047
14032163723
14032169521
14032175015
14032180141
14032185390
14032190640
14032194607
14032203274
14032209377
14032214199
14032219509
14032224270
14032229641
14032235866
14032240627
14032247646
14032253750
14032259365
14032264309
14032269985
14032274441
14032280849
14032286709
14032294094
14032299038
14032305202
14032312954
14032318874
14032324428
14032329982
14032334743
14032340908
14032346401
14032352321
14032356716
14032362331
14032367885
14032373806
14032378688
14032384426
14032392421
14032397426
14032402126
14032407009
14032413783
14032417323
14032424037
14032428554
14032434657
14032440029
14032444972
14032449855
14032455104
14032461208
14032466090
14032470363
14032476833
14032482326
14032488185
14032492702
14032498439
14032503688
14032509181
14032515651
14032524074
14032533229
14032541041
14032547633
14032555507
14032563014
14032570460
14032577540
14032584926
14032593593
14032600734
14032610804
14032615321
14032622401
14032632289
14032639125
14032644557
14032653102
14032663356
14032671351
14032677821
14032685267
14032693263
14032701563
14032709315
14032717921
14032726466
14032737330
14032743250
14032751124
14032760767
14032767359
14032777125
14032785670
14032794703
14032803919
14032811243
14032818751
14032827051
14032835047
14032842005
14032848841
14032859461
14032864588
14032874170
14032880884
14032887964
14032896570
14032903406
14032911890
14032919519
14032927088
14032934656
14032943201
14032950647
14032956568
14032964624
14032972254
14032980005
14032989038
14032996973
14033003137
14033011621
14033018884
14033026331
14033034265
14033042017
14033050012
14033057398
14033064478
14033072046
14033078943
14033086023
14033095789
14033102258
14033110498
14033117822
14033125207
14033131860
14033141870
14033148279
14033155725
14033163721
14033172143
14033179773
14033192529
14033199609
14033210473
14033217736
14033229150
14033238122
14033245385
14033253076
14033259912
14033266442
14033272851
14033279504
14033285791
14033292321
14033300195
14033307641
14033314477
14033321740
14033328027
14033334985
14033341821
14033350305
14033359765
14033367089
14033375939
14033382714
14033388818
14033395715
14033402062
14033408959
14033417931
14033425255
14033432580
14033439782
14033445702
14033452416
14033459679
14033466820
14033476220
14033486046
14033493432
14033503136
14033509728
14033519066
14033524315
14033534508
14033543297
14033551110
14033558007
14033566918
14033573937
14033580101
14033587792
14033594261
14033601586
14033608605
14033614403
14033620384
14033627892
14033634483
14033640648
14033647606
14033656151
14033663292
14033671227
14033678307
14033684593
14033690941
14033698814
14033706016
14033715172
14033722191
14033729454
14033735985
14033744285
14033750633
14033757164
14033765709
14033774742
14033781578
14033787376
14033794761
14033801048
14033810020
14033816795
14033826133
14033831871
14033839317
14033847740
14033853904
14033860679
14033868064
14033874900
14033882286
14033890403
14033896263
14033900657
14033905662
14033910606
14033915672
14033920616
14033925132
14033931541
14033937034
14033942161
14033948203
14033952598
14033957603
14033962730
14033967796
14033976585
14033982261
14033985557
14033992332
14033996970
14034002525
14034007712
14034014426
14034022483
14034029075
14034033835
14034042319
14034047446
14034053184
14034058433
14034063621
14034070090
14034075644
14034080588
14034089255
14034096824
14034102622
14034107505
14034115012
14034120383
14034126853
14034132529
14034140464
14034147177
14034152549
14034160666
14034165244
14034171347
14034175376
14034180442
14034186789
14034191794
14034197104
14034203940
14034210105
14034215048
14034219748
14034223532
14034227744
14034232932
14034236716
14034242209
14034245688
14034251425
14034255454
14034259665
14034263693
14034268393
14034273764
14034282431
14034286398
14034291891
14034297018
14034302389
14034307516
14034312765
14034316550
14034323447
14034330954
14034334677
14034339499
14034346213
14034351279
14034357199
14034363791
14034368735
14034371603
14034383627
14034389608
14034394919
14034399557
14034405050
14034410421
14034415854
14034420736
14034426229
14034432028
14034437277
14034442160
14034447531
14034452413
14034458029
14034463644
14034469198
14034474386
14034480673
14034488546
14034496298
14034500875
14034505392
14034511434
14034517355
14034521993
14034526998
14034533163
14034538839
14034545004
14034548666
14034556173
14034561178
14034566976
14034571859
14034576681
14034585653
14034590231
14034595235
14034600973
14034607198
14034612020
14034617147
14034621053
14034628011
14034632894
14034638814
14034645345
14034650350
14034655416
14034661641
14034667440
14034672811
14034678426
14034683736
14034688375
14034697103
14034702047
14034711629
14034719320
14034727254
14034734639
14034743001
14034749288
14034758748
14034764730
14034774922
14034782002
14034789144
14034796407
14034803853
14034811604
14034819112
14034825826
14034832723
14034840291
14034845296
14034856160
14034863362
14034868733
14034875813
14034883443
14034890645
14034898335
14034905537
14034912617
14034920064
14034926655
14034934041
14034941426
14034948018
14034955037
14034964009
14034972798
14034979756
14034986958
14034994832
14035001606
14035009663
14035016499
14035025471
14035032734
14035040669
14035048115
14035055683
14035063862
14035071003
14035078449
14035085713
14035091511
14035101582
14035109638
14035115193
14035123188
14035131672
14035139301
14035146442
14035151142
14035161640
14035168964
14035176228
14035184528
14035191425
14035199787
14035205891
14035211994
14035222370
14035229755
14035236835
14035244404
14035250751
14035258198
14035266559
14035274433
14035282917
14035291584
14035299518
14035306842
14035314289
14035321308
14035329059
14035335529
14035342975
14035351032
14035358905
14035367145
14035375141
14035382221
14035389728
14035397113
14035403888
14035413043
14035420123
14035433490
14035441730
14035448200
14035454791
14035462665
14035471698
14035479999
14035488971
14035498920
14035505084
14035511859
14035519427
14035529437
14035536639
14035547259
14035555255
14035559772
14035568377
14035576556
14035582599
14035589435
14035599749
14035608050
14035612872
14035621661
14035627826
14035635089
14035641680
14035651080
14035657183
14035665545
14035671771
14035680255
14035686419
14035692645
14035701312
14035706133
14035715838
14035723467
14035730364
14035738848
14035744952
14035753008
14035758990
14035766192
14035772540
14035779986
14035788775
14035796282
14035803728
14035811297
14035817461
14035825457
14035834002
14035841997
14035849993
14035858172
14035866411
14035874224
14035880205
14035887590
14035895891
14035904009
14035911028
14035918413
14035928057
14035935503
14035941423
14035948687
14035955522
14035964739
14035972429
14035980852
14035988298
14035995134
14036002702
14036010332
14036018388
14036024858
14036032243
14036041765
14036047685
14036056841
14036063066
14036071306
14036078752
14036081377
14036087724
14036095476
14036100664
14036105424
14036110918
14036117204
14036121843
14036127153
14036131547
14036138139
14036143327
14036149309
14036153703
14036158891
14036164140
14036169877
14036174638
14036179704
14036187272
14036191362
14036198503
14036204789
14036211320
14036217179
14036221940
14036227372
14036233293
14036238908
14036244584
14036250321
14036255998
14036262101
14036268083
14036272782
14036280107
14036284867
14036289567
14036295793
14036300797
14036306230
14036310929
14036316789
14036320939
14036326981
14036332780
14036338639
14036343644
14036347916
14036352921
14036358231
14036363969
14036370499
14036374711
14036380814
14036385941
14036390336
14036394791
14036401688
14036406510
14036413102
14036417679
14036424027
14036428788
14036434037
14036438614
14036445695
14036449845
14036456070
14036460831
14036467972
14036472062
14036477128
14036482438
14036488236
14036492508
14036497574
14036503922
14036509415
14036515030
14036520462
14036525345
14036529740
14036535721
14036541275
14036547257
14036552506
14036557938
14036562454
14036569535
14036574723
14036579544
14036584122
14036590225
14036595596
14036601456
14036605911
14036611038
14036616287
14036622025
14036624649
14036630570
14036636734
14036641739
14036646256
14036652359
14036659012
14036663589
14036668228
14036672317
14036678909
14036684586
14036689468
14036693863
14036698929
14036705398
14036710708
14036714798
14036720230
14036728226
14036732498
14036738846
14036743179
14036748916
14036754532
14036760269
14036764663
14036772903
14036778640
14036785782
14036792373
14036801712
14036808426
14036814834
14036820205
14036827346
14036836563
14036845108
14036850173
14036855850
14036861953
14036867446
14036872268
14036879531
14036885147
14036890579
14036894607
14036899673
14036904128
14036912002
14036917007
14036926894
14036933181
14036940749
14036947829
14036957412
14036966506
14036974380
14036983047
14036990554
14036997512
14037005385
14037013015
14037021010
14037029250
14037037124
14037044448
14037052504
14037059951
14037068252
14037076247
14037084670
14037092727
14037101149
14037108535
14037116347
14037124221
14037132704
14037141677
14037147170
14037154616
14037164992
14037173781
14037181288
14037188552
14037196608
14037203383
14037213759
14037221144
14037229262
14037236098
14037244582
14037253432
14037260146
14037269972
14037275954
14037284499
14037293410
14037300978
14037309584
14037317335
14037326308
14037333815
14037341566
14037350172
14037357252
14037367201
14037375380
14037382643
14037389113
14037397779
14037406996
14037413160
14037421095
14037431532
14037439588
14037447462
14037455335
14037463148
14037472181
14037478285
14037487501
14037495497
14037503492
14037511671
14037516309
14037526563
14037537000
14037545179
14037553663
14037560865
14037569288
14037578626
14037586500
14037594434
14037605298
14037614149
14037622083
14037630628
14037639600
14037646985
14037656324
14037661634
14037668775
14037675611
14037684278
14037689893
14037699659
14037708509
14037715467
14037723828
14037730725
14037738233
14037744519
14037750440
14037758130
14037767774
14037774488
14037780469
14037787915
14037796338
14037803235
14037808850
14037817822
14037823926
14037833081
14037838757
14037846082
14037854626
14037861584
14037868603
14037873852
14037882275
14037889722
14037896252
14037903210
14037911816
14037917981
14037927014
14037931775
14037943310
14037951123
14037955090
14037963452
14037970410
14037977917
14037985241
14037993542
14038001477
14038010510
14038017773
14038025769
14038033215
14038039929
14038047558
14038055920
14038064099
14038070935
14038079113
14038087414
14038095471
14038101452
14038108959
14038115856
14038123364
14038132702
14038140575
14038147778
14038155956
14038159863
14038169201
14038177807
14038185009
14038192577
14038201427
14038209057
14038217113
14038224071
14038229626
14038242321
14038255565
14038278148
14038287914
14038301647
14038311840
14038321849
14038332836
14038348339
14038357433
14038363658
14038370922
14038376720
14038382579
14038388317
14038393199
14038400340
14038405956
14038411876
14038417186
14038421520
14038427684
14038432872
14038439647
14038444713
14038450999
14038455455
14038461131
14038465831
14038471507
14038476268
14038481212
14038486644
14038490733
14038496532
14038500743
14038506419
14038510631
14038516429
14038523265
14038528636
14038533580
14038537852
14038542613
14038547679
14038552928
14038558970
14038564891
14038570262
14038576182
14038583140
14038589183
14038594432
14038600962
14038608531
14038615855
14038621653
14038627269
14038632518
14038638194
14038644664
14038650950
14038656077
14038661936
14038667246
14038673167
14038680003
14038684947
14038691111
14038698374
14038704844
14038710215
14038718699
14038723887
14038730540
14038735178
14038740794
14038747752
14038753855
14038759043
14038764780
14038771738
14038778025
14038782542
14038788584
14038797617
14038805063
14038810923
14038816294
14038820872
14038827341
14038834299
14038840281
14038846628
14038852305
14038858530
14038864573
14038870066
14038877634
14038883860
14038890207
14038897470
14038903574
14038910837
14038917002
14038923166
14038930490
14038936716
14038942942
14038949411
14038955515
14038962473
14038967661
14038973703
14038981516
14038987497
14038991647
14038998056
14039003305
14039008127
14039013498
14039017648
14039023996
14039031259
14039036264
14039042429
14039047678
14039053415
14039059152
14039065805
14039071359
14039076608
14039083139
14039088754
14039092844
14039097726
14039102243
14039110361
14039116403
14039122323
14039128427
14039133310
14039140878
14039145944
14039151559
14039155893
14039161508
14039166879
14039173105
14039178659
14039185312
14039194162
14039201486
14039208505
14039218759
14039226144
14039234140
14039242257
14039250497
14039257333
14039267221
14039274850
14039283212
14039291024
14039299691
14039306893
14039315316
14039324044
14039336922
14039345406
14039352853
14039360909
14039368050
14039377450
14039384591
14039391427
14039401742
14039407723
14039418831
14039427315
14039435006
14039442147
14039452034
14039458626
14039467537
14039477242
14039484810
14039492073
14039499886
14039508309
14039516121
14039523812
14039533943
14039542183
14039549874
14039557930
14039566292
14039575203
14039583992
14039592171
14039603401
14039612801
14039622261
14039627388
14039637642
14039644478
14039653694
14039662239
14039671455
14039679390
14039691780
14039699043
14039708015
14039717720
14039725105
14039731392
14039740730
14039747261
14039754158
14039761482
14039769478
14039776191
14039783394
14039790779
14039798713
14039806221
14039814155
14039821846
14039830207
14039838508
14039846748
14039854072
14039862556
14039870002
14039880256
14039885871
14039895759
14039903266
14039910774
14039919257
14039926948
14039935554
14039943061
14039949836
14039957709
14039966621
14039973395
14039982307
14039990119
14039998054
14040004890
14040013190
14040021430
14040030707
14040037238
14040044623
14040052680
14040059882
14040069892
14040076423
14040084723
14040092353
14040099738
14040108710
14040117987
14040124884
14040134040
14040141242
14040148749
14040157782
14040165839
14040173346
14040183783
14040191229
14040198615
14040207037
14040213568
14040221014
14040231085
14040239264
14040246649
14040256293
14040265082
14040272833
14040278998
14040290289
14040296637
14040303778
14040311896
14040320990
14040328619
14040335333
14040342962
14040352362
14040360235
14040367132
14040376104
14040385565
14040393866
14040401739
14040410223
14040419928
14040427130
14040436285
14040446417
14040454901
14040462774
14040470159
14040478765
14040486028
14040493292
14040502386
14040509588
14040516790
14040523138
14040530645
14040538030
14040547124
14040552496
14040561224
14040566350
14040575078
14040580816
14040590826
14040597600
14040604070
14040609502
14040615545
14040620611
14040623968
14040630803
14040637700
14040642705
14040648504
14040654424
14040659856
14040665715
14040670049
14040675664
14040681829
14040687261
14040693181
14040697332
14040702886
14040708379
14040713811
14040718877
14040726079
14040732122
14040737859
14040743047
14040750127
14040754399
14040759465
14040765813
14040771123
14040776860
14040782597
14040788579
14040793157
14040799748
14040806889
14040812199
14040817693
14040824529
14040828618
14040835210
14040838994
14040843755
14040850163
14040860051
14040866704
14040871953
14040877568
14040881718
14040886479
14040893803
14040899602
14040905156
14040911076
14040916203
14040922734
14040927189
14040933110
14040939396
14040946965
14040952214
14040958195
14040964238
14040968632
14040974186
14040979618
14040987065
14040994328
14041001103
14041007450
14041011784
14041017643
14041024723
14041030705
14041037907
14041044316
14041053044
14041062199
14041069340
14041075627
14041082096
14041087528
14041092594
14041098942
14041106022
14041111698
14041118168
14041123600
14041128239
14041135075
14041139835
14041145878
14041152653
14041158878
14041164432
14041169132
14041174808
14041180424
14041186710
14041193119
14041199833
14041205265
14041211674
14041217594
14041222782
14041228397
14041233219
14041238224
14041243900
14041250553
14041256229
14041262638
14041268314
14041275333
14041281376
14041287113
14041293277
14041299015
14041305973
14041311344
14041317569
14041323307
14041330081
14041335758
14041341861
14041348392
14041354495
14041360050
14041366886
14041373111
14041378848
14041385074
14041391239
14041398013
14041404727
14041409366
14041415591
14041422305
14041427127
14041432620
14041439822
14041445865
14041451358
14041457034
14041465518
14041470096
14041476749
14041486026
14041494327
14041501346
14041509280
14041518924
14041526858
14041534366
14041542605
14041551211
14041559207
14041567019
14041575137
14041584231
14041592532
14041600283
14041608218
14041615054
14041622744
14041631961
14041640261
14041648989
14041657107
14041665896
14041675601
14041683596
14041692996
14041699648
14041708621
14041720766
14041727663
14041735293
14041742800
14041752566
14041757815
14041769106
14041778933
14041785708
14041794253
14041801638
14041805971
14041815005
14041822390
14041831240
14041841555
14041849367
14041860476
14041867128
14041877199
14041885866
14041894533
14041903078
14041911623
14041917910
14041928163
14041936647
14041944887
14041954103
14041962770
14041968813
14041978639
14041986330
14041994692
14042003114
14042010805
14042018861
14042026796
14042034669
14042042360
14042052980
14042059755
14042068117
14042077089
14042085023
14042094301
14042101686
14042108522
14042117067
14042124757
14042133058
14042141786
14042151979
14042158632
14042164308
14042172242
14042180848
14042190187
14042197694
14042206422
14042213563
14042223756
14042228822
14042236939
14042244203
14042255128
14042264649
14042272401
14042281068
14042288880
14042296571
14042303101
14042313721
14042322144
14042330872
14042337647
14042345155
14042352662
14042359620
14042367860
14042377625
14042385132
14042391602
14042399109
14042403382
14042413086
14042422120
14042430726
14042442200
14042455811
14042466553
14042478089
14042487305
14042497132
14042507630
14042517884
14042526551
14042536194
14042542359
14042550659
14042561890
14042569580
14042576904
14042585571
14042592590
14042599915
14042606689
14042614319
14042623352
14042630188
14042637329
14042644531
14042651001
14042657898
14042664734
14042674316
14042681213
14042689514
14042696899
14042703491
14042710327
14042718750
14042726318
14042733337
14042739319
14042745971
14042754272
14042761291
14042770263
14042778625
14042785827
14042793518
14042800537
14042808166
14042815307
14042822937
14042828918
14042834472
14042839477
14042844787
14042850829
14042856140
14042862060
14042867004
14042872436
14042876342
14042883788
14042887573
14042894958
14042900756
14042906127
14042914916
14042921508
14042927306
14042932677
14042938781
14042945922
14042951781
14042956298
14042961974
14042967467
14042974608
14042979064
14042984496
14042990233
14042996947
14043001464
14043007689
14043012938
14043019530
14043023253
14043029784
14043034667
14043040221
14043045836
14043050841
14043056945
14043060485
14043068114
14043073973
14043079772
14043086425
14043092589
14043098143
14043105712
14043113890
14043119933
14043128966
14043136107
14043142394
14043146788
14043152220
14043159728
14043165038
14043168700
14043177306
14043183470
14043188414
14043193785
14043198485
14043204588
14043210143
14043216368
14043222350
14043228392
14043234679
14043240843
14043246947
14043252440
14043257567
14043263060
14043268248
14043274718
14043281248
14043285399
14043290648
14043296263
14043300718
14043305296
14043315428
14043319883
14043326231
14043332457
14043336790
14043342039
14043347410
14043350889
14043358885
14043363340
14043368406
14043373777
14043378477
14043384459
14043390623
14043394041
14043401426
14043406736
14043411802
14043418333
14043423094
14043428343
14043433836
14043440489
14043446165
14043450559
14043455198
14043461851
14043465391
14043472166
14043477476
14043485166
14043490598
14043496397
14043500425
14043506529
14043510496
14043515989
14043521665
14043529172
14043535032
14043541257
14043548093
14043554197
14043563108
14043569150
14043578550
14043583005
14043589597
14043597288
14043602109
14043609189
14043616453
14043625364
14043634824
14043646238
14043653745
14043662839
14043675351
14043685239
14043695127
14043708005
14043715268
14043721860
14043729123
14043736203
14043743833
14043750852
14043760617
14043765805
14043773923
14043782407
14043790707
14043799008
14043806516
14043813351
14043821347
14043829648
14043836911
14043843991
14043851254
14043859494
14043867489
14043874936
14043882931
14043889645
14043897153
14043904904
14043913510
14043923520
14043928891
14043938351
14043945981
14043950253
14043958859
14043966488
14043975338
14043982907
14043990597
14044000302
14044007077
14044014340
14044021420
14044029232
14044036190
14044046139
14044051449
14044061459
14044067562
14044076046
14044084469
14044092159
14044098507
14044106930
14044114498
14044123104
14044130062
14044138058
14044144710
14044152645
14044160030
14044168758
14044177486
14044185360
14044192440
14044200863
14044208797
14044214290
14044222042
14044230709
14044241146
14044249202
14044260128
14044267818
14044274654
14044282589
14044290035
14044301082
14044311092
14044318843
14044328853
14044340389
14044348262
14044357540
14044367854
14044375667
14044383418
14044393001
14044403560
14044411800
14044421687
14044429805
14044440486
14044449885
14044461665
14044469478
14044479060
14044490535
14044498530
14044505427
14044512202
14044518733
14044525874
14044533870
14044542048
14044549311
14044557368
14044565242
14044572688
14044579402
14044587825
14044595027
14044604975
14044612544
14044620783
14044627375
14044635371
14044642085
14044649592
14044656977
14044664973
14044671443
14044678767
14044687129
14044695002
14044701655
14044709528
14044717707
14044725703
14044733698
14044741389
14044747858
14044755244
14044761286
14044768549
14044776179
14044784235
14044790339
14044799616
14044806269
14044814753
14044822260
14044830011
14044836847
14044845087
14044852594
14044861078
14044868586
14044876398
14044882318
14044890070
14044898310
14044903498
14044913751
14044921015
14044930719
14044938776
14044946222
14044951715
14044961786
14044968683
14044975946
14044983820
14044991022
14044998895
14045004999
14045010919
14045015863
14045020441
14045026239
14045032953
14045037653
14045042413
14045049127
14045054620
14045058221
14045065851
14045070428
14045076593
14045082147
14045086969
14045092462
14045097040
14045102472
14045108514
14045115960
14045123468
14045130243
14045135186
14045143487
14045149469
14045157647
14045163812
14045171930
14045178521
14045186334
14045191522
14045197625
14045202447
14045208551
14045213311
14045217523
14045222222
14045227410
14045232293
14045237542
14045242486
14045248467
14045254510
14045260003
14045265862
14045271294
14045276727
14045281548
14045287103
14045294305
14045297906
14045302666
14045309563
14045314690
14045320306
14045325127
14045330987
14045338250
14045343865
14045349297
14045354729
14045360039
14045364800
14045369439
14045375420
14045382073
14045386773
14045393487
14045398369
14045403252
14045408196
14045415947
14045424248
14045430718
14045437554
14045443352
14045448601
14045454461
14045460320
14045466362
14045471856
14045477410
14045483391
14045488701
14045494072
14045498955
14045505364
14045509819
14045517266
14045522698
14045527947
14045532891
14045538384
14045543999
14045548821
14045554741
14045560356
14045566277
14045572746
14045578117
14045584099
14045589348
14045594719
14045601311
14045607964
14045614311
14045619255
14045625114
14045629875
14045637566
14045642998
14045649223
14045653618
14045660210
14045666313
14045672783
14045679436
14045685966
14045691887
14045698417
14045703544
14045709099
14045715141
14045721489
14045727348
14045734733
14045741325
14045747429
14045754325
14045759452
14045765007
14045770134
14045774894
14045779472
14045784050
14045789726
14045795036
14045801017
14045807609
14045812614
14045818046
14045823417
14045830741
14045838371
14045847282
14045854484
14045862663
14045869865
14045876823
14045884330
14045893424
14045901359
14045909232
14045917289
14045925223
14045933768
14045942496
14045947745
14045955253
14045964713
14045974357
14045981437
14045989432
14045997916
14046005485
14046012320
14046020926
14046030204
14046038382
14046047782
14046056510
14046066031
14046074210
14046082267
14046090323
14046098319
14046106314
14046114676
14046123099
14046130972
14046139273
14046147391
14046155448
14046163748
14046171805
14046179923
14046187918
14046196219
14046203787
14046210562
14046218314
14046225333
14046232779
14046243521
14046251456
14046257071
14046264578
14046271963
14046279532
14046286551
14046293081
14046303518
14046311575
14046319449
14046326834
14046334341
14046342703
14046351248
14046359549
14046367971
14046372976
14046381765
14046389273
14046398489
14046405508
14046414053
14046421194
14046433462
14046441885
14046450613
14046460134
14046468252
14046479177
14046492361
14046499258
14046508108
14046522878
14046531423
14046539297
14046547475
14046558584
14046566945
14046573781
14046582754
14046590444
14046598195
14046607534
14046615468
14046623464
14046628408
14046638234
14046646108
14046654287
14046659352
14046666555
14046675099
14046683278
14046692006
14046699147
14046705861
14046713735
14046723378
14046730641
14046736134
14046746938
14046753835
14046761769
14046769765
14046778188
14046785085
14046792714
14046800771
14046808827
14046815175
14046823109
14046830922
14046839528
14046847462
14046854054
14046867848
14046879078
14046890675
14046899647
14046910878
14046920765
14046931630
14046944020
14046954823
14046972096
14046986866
14046995350
14047006886
14047015797
14047024281
14047036244
14047047047
14047057118
14047068470
14047077503
14047084888
14047095142
14047107166
14047117176
14047130482
14047142689
14047152088
14047162464
14047170948
14047182544
14047190784
14047215381
14047226917
14047235279
14047246875
14047256641
14047265003
14047277820
14047288074
14047299365
14047313953
14047324085
14047331714
14047344409
14047352649
14047366138
14047380237
14047389331
14047397144
14047405261
14047414661
14047422473
14047430163
14047439685
14047448230
14047458118
14047466296
14047474353
14047482104
14047490100
14047500598
14047508593
14047516772
14047526477
14047534350
14047541919
14047552661
14047560473
14047569018
14047578662
14047590686
14047605578
14047623339
14047637621
14047651049
14047665331
14047681506
14047696215
14047710009
14047724108
14047738573
14047752367
14047762621
14047771227
14047782580
14047790331
14047802294
14047814440
14047826769
14047839281
14047852404
14047865587
14047875475
14047884325
14047893419
14047901720
14047910997
14047918688
14047927965
14047936754
14047943529
14047950792
14047959154
14047967455
14047975877
14047985704
14047995775
14048003160
14048010973
14048017808
14048024705
14048033861
14048041795
14048051011
14048059251
14048068712
14048076585
14048085130
14048094407
14048103318
14048111009
14048119615
14048127671
14048137376
14048146104
14048155320
14048163011
14048171373
14048181260
14048192918
14048204392
14048215013
14048229234
14048237534
14048244615
14048255235
14048262009
14048270554
14048280076
14048288316
14048296555
14048303086
14048312608
14048321274
14048329697
14048336716
14048345566
14048353135
14048361741
14048371628
14048380417
14048387253
14048396653
14048406296
14048414109
14048422715
14048432236
14048441452
14048450119
14048457566
14048466660
14048472702
14048476853
14048481125
14048486923
14048491684
14048497299
14048502854
14048509812
14048515122
14048523972
14048534653
14048541367
14048548081
14048554672
14048560715
14048567123
14048573227
14048579880
14048586166
14048592270
14048598495
14048606491
14048613327
14048619491
14048625229
14048633774
14048641647
14048647812
14048653061
14048661361
14048667587
14048673691
14048681442
14048687790
14048693588
14048699753
14048707687
14048714706
14048720443
14048726486
14048733444
14048740402
14048748214
14048755416
14048762435
14048768295
14048774337
14048783798
14048791122
14048798751
14048805465
14048811813
14048818893
14048827377
14048834518
14048841964
14048849899
14048858382
14048866073
14048876693
14048882491
14048890975
14048900252
14048908431
14048915023
14048921615
14048928451
14048936690
14048943282
14048949080
14048956710
14048964889
14048970992
14048977706
14048984176
14048991744
14048998153
14049005355
14049011580
14049019027
14049025008
14049031783
14049040389
14049046126
14049050582
14049058638
14049067794
14049072127
14049078231
14049085982
14049093245
14049099715
14049106551
14049113936
14049120711
14049127669
14049134749
14049143904
14049151106
14049158186
14049164778
14049170638
14049179427
14049188155
14049195357
14049202071
14049210066
14049216597
14049223799
14049231612
14049239363
14049247542
14049254866
14049261763
14049269758
14049277083
14049284407
14049292708
14049301191
14049308027
14049315352
14049322065
14049330061
14049337385
14049343245
14049350813
14049358442
14049367109
14049374922
14049381758
14049388960
14049395735
14049403242
14049409101
14049416364
14049423261
14049429548
14049437971
14049445600
14049453901
14049460859
14049468000
14049474714
14049485334
14049493391
14049500715
14049507551
14049515790
14049522748
14049530866
14049538557
14049546552
14049556013
14049564924
14049573285
14049582197
14049589948
14049597699
14049604779
14049612836
14049621930
14049631025
14049638715
14049646222
14049656415
14049664777
14049672834
14049680524
14049687665
14049695294
14049704389
14049711957
14049718976
14049726300
14049733746
14049741132
14049749616
14049757062
14049765241
14049772626
14049780621
14049788251
14049796246
14049803937
14049811322
14049819073
14049824933
14049830365
14049836102
14049841656
14049847577
14049853131
14049859356
14049864667
14049870221
14049875775
14049881573
14049887433
14049893109
14049899029
14049903729
14049909466
14049915020
14049920819
14049926678
14049931988
14049937298
14049942852
14049949749
14049955609
14049960797
14049966534
14049972882
14049978619
14049983685
14049989605
14049996258
14050002056
14050007672
14050013409
14050019512
14050025067
14050029522
14050034527
14050041851
14050047039
14050052776
14050058331
14050064739
14050069866
14050075237
14050080547
14050086834
14050092266
14050097210
14050102398
14050107891
14050113201
14050118450
14050124126
14050129436
14050136333
14050140972
14050146465
14050152935
14050157757
14050162822
14050169964
14050174724
14050179912
14050185894
14050191509
14050199749
14050206768
14050213421
14050219524
14050225139
14050232586
14050236797
14050243389
14050250896
14050256938
14050262676
14050271099
14050275920
14050283489
14050287456
14050294170
14050299724
14050304485
14050309062
14050315837
14050320415
14050325725
14050330547
14050337261
14050341289
14050348186
14050352092
14050360027
14050365154
14050372478
14050377727
14050383464
14050389384
14050394939
14050400188
14050406535
14050412578
14050418193
14050424296
14050429973
14050435344
14050441447
14050447734
14050453715
14050460368
14050466411
14050472026
14050477763
14050482280
14050487834
14050494120
14050499858
14050506022
14050511760
14050516276
14050521891
14050526957
14050532145
14050540019
14050543559
14050549235
14050555278
14050561930
14050566813
14050571879
14050577860
14050583110
14050589823
14050597880
14050602885
14050608012
14050613139
14050620219
14050624491
14050631693
14050635600
14050643107
14050647990
14050654948
14050659831
14050665629
14050671976
14050680155
14050688761
14050697062
14050704813
14050712931
14050720438
14050728861
14050738505
14050747660
14050756022
14050764872
14050773295
14050781839
14050790629
14050796549
14050807291
14050815958
14050824015
14050832437
14050841165
14050848551
14050860330
14050868143
14050878336
14050886026
14050894449
14050902323
14050911051
14050921549
14050928507
14050939310
14050948282
14050955362
14050965555
14050975076
14050980264
14050988016
14050997232
14051004861
14051013528
14051021280
14051028482
14051036783
14051044290
14051052469
14051062356
14051068704
14051077127
14051085183
14051092447
14051099893
14051109048
14051116189
14051123819
14051133279
14051141397
14051149453
14051156839
14051164468
14051173135
14051180886
14051189065
14051197061
14051205911
14051213174
14051221475
14051229104
14051237954
14051245767
14051253030
14051260476
14051268777
14051276284
14051285134
14051292702
14051299966
14051310830
14051315774
14051326028
14051332253
14051340920
14051349526
14051355630
14051363381
14051370888
14051378273
14051386696
14051394326
14051402749
14051410439
14051419411
14051427651
14051437600
14051446389
14051453224
14051463478
14051470497
14051478005
14051485268
14051493385
14051501015
14051509133
14051516823
14051525551
14051534096
14051543068
14051550087
14051557838
14051565407
14051573341
14051580666
14051590675
14051598244
14051606117
14051614357
14051623573
14051630043
14051638771
14051647560
14051654884
14051663124
14051670509
14051678077
14051688270
14051696693
14051703956
14051711586
14051720314
14051728065
14051736915
14051745033
14051753517
14051762123
14051771034
14051778175
14051786048
14051795020
14051803443
14051813209
14051822364
14051830726
14051838538
14051846046
14051853675
14051860267
14051868140
14051876868
14051881812
14051890479
14051897193
14051906043
14051912940
14051921363
14051928321
14051938514
14051945350
14051952369
14051961402
14051966712
14051976416
14051983436
14051990210
14051998267
14052006079
14052013892
14052020545
14052030188
14052038001
14052044104
14052053199
14052061499
14052068823
14052076331
14052083594
14052091528
14052098181
14052104956
14052112769
14052120337
14052132544
14052138159
14052148413
14052155859
14052163916
14052170874
14052180823
14052186743
14052191321
14052198157
14052203833
14052209204
14052215063
14052220801
14052226355
14052231238
14052236792
14052243139
14052248755
14052254553
14052262304
14052267859
14052273474
14052278662
14052284521
14052290747
14052297033
14052302893
14052308203
14052312475
14052319555
14052322973
14052328161
14052334692
14052340795
14052346899
14052352636
14052361242
14052366613
14052373510
14052378637
14052383215
14052391088
14052395666
14052402685
14052406835
14052414221
14052418554
14052424169
14052430090
14052436010
14052440954
14052447179
14052454687
14052462621
14052469762
14052475378
14052481847
14052491247
14052497716
14052503698
14052510351
14052515600
14052519689
14052527929
14052532689
14052538122
14052543859
14052549108
14052554296
14052560033
14052566625
14052571813
14052577306
14052582738
14052587621
14052592931
14052597509
14052602941
14052608495
14052613805
14052619115
14052624608
14052629308
14052633947
14052640050
14052644811
14052648290
14052655736
14052660436
14052664647
14052670507
14052677709
14052683324
14052687840
14052693700
14052698766
14052704442
14052710607
14052717015
14052722814
14052728368
14052732884
14052738072
14052743626
14052749425
14052754552
14052760411
14052766942
14052772130
14052777867
14052784093
14052788670
14052795079
14052800633
14052806370
14052810033
14052815709
14052822301
14052827305
14052833409
14052839146
14052844151
14052849705
14052855015
14052861424
14052866978
14052872593
14052877842
14052883763
14052889134
14052894017
14052899266
14052905247
14052911106
14052916966
14052924595
14052929539
14052935276
14052939671
14052945225
14052951084
14052957432
14052962803
14052968540
14052973057
14052978977
14052984348
14052989292
14052995152
14053001194
14053007969
14053014256
14053022068
14053028233
14053034519
14053041233
14053046726
14053053745
14053063023
14053071506
14053080479
14053089207
14053097996
14053106968
14053113743
14053124546
14053131626
14053147617
14053155369
14053163547
14053170261
14053177036
14053187534
14053192600
14053203098
14053210300
14053219944
14053224948
14053232334
14053242038
14053249362
14053256381
14053264377
14053272861
14053280490
14053289462
14053296970
14053306003
14053312839
14053319125
14053327548
14053335361
14053343478
14053350803
14053358371
14053366244
14053373691
14053381381
14053386935
14053395602
14053403720
14053410678
14053418429
14053426608
14053436679
14053446322
14053452121
14053461215
14053469455
14053476230
14053484835
14053491916
14053498690
14053505709
14053514865
14053523776
14053529391
14053537142
14053546115
14053553195
14053559359
14053568820
14053575656
14053583956
14053592562
14053601534
14053608859
14053617159
14053623507
14053631136
14053638888
14053644015
14053656039
14053664706
14053671297
14053678561
14053686007
14053693758
14053700777
14053707552
14053716280
14053724520
14053733065
14053739473
14053747225
14053756319
14053763094
14053771517
14053779879
14053788057
14053794161
14053801424
14053812044
14053818758
14053827120
14053835054
14053843294
14053852877
14053862703
14053872042
14053880586
14053889375
14053899263
14053904817
