13659120916
13659125493
13659132207
13659137517
13659142827
13659147405
13659152898
13659158269
13659163701
13659170659
13659175786
13659182317
13659187383
13659192693
13659198858
13659205755
13659211675
13659217351
13659222783
13659230107
13659237554
13659245061
13659254705
13659263921
13659274419
13659284246
13659290959
13659296391
13659303227
13659309819
13659317265
13659324834
13659331731
13659338811
13659343205
13659354314
13659361272
13659367314
13659374516
13659379277
13659393742
13659406621
13659414555
13659422307
13659428715
13659435246
13659440495
13659446782
13659453679
13659459416
13659465092
13659470280
13659476689
13659480900
13659488835
13659494938
13659500859
13659506169
13659510685
13659517338
13659522038
13659530705
13659536442
13659541569
13659547795
13659552922
13659559208
13659564396
13659570866
13659577641
13659586491
13659593754
13659599003
13659605656
13659611393
13659617497
13659622868
13659630924
13659638371
13659644474
13659651737
13659659061
13659664188
13659672184
13659677677
13659684513
13659690372
13659696720
13659701847
13659708073
13659713871
13659721561
13659728031
13659734012
13659740299
13659747196
13659753483
13659761539
13659766849
13659772403
13659780338
13659787418
13659794498
13659805118
13659813541
13659820865
13659829898
13659837711
13659845401
13659853824
13659859867
13659866764
13659872501
13659878116
13659886478
13659893009
13659898441
13659905765
13659911990
13659917728
13659923953
13659929630
13659935550
13659943179
13659947086
13659956058
13659964481
13659971622
13659978885
13659985232
13659992374
13659999820
13660005801
13660012271
13660017764
13660025821
13660029422
13660037967
13660043643
13660050113
13660056338
13660061038
13660068301
13660074222
13660081485
13660088015
13660095584
13660103335
13660107425
13660118899
13660124270
13660131839
13660141421
13660149234
13660158328
13660165042
13660172122
13660179019
13660185916
13660192141
13660201235
13660209719
13660215823
13660223818
13660228274
13660236514
13660243105
13660250674
13660256655
13660264101
13660270266
13660278811
13660285708
13660293154
13660297793
13660306093
13660313235
13660319948
13660324099
13660332461
13660339358
13660344851
13660352236
13660359804
13660364565
13660373598
13660377932
13660388002
13660392824
13660402895
13660408510
13660418642
13660425905
13660433901
13660441774
13660453188
13660461916
13660473696
13660482179
13660491152
13660500551
13660507692
13660515444
13660521547
13660530275
13660537233
13660545107
13660553163
13660559694
13660565309
13660573061
13660578920
13660587099
13660596925
13660603517
13660610048
13660615419
13660619447
13660624330
13660629457
13660635988
13660641237
13660646791
13660651002
13660657106
13660661928
13660666871
13660672365
13660677491
13660682618
13660686219
13660693483
13660699037
13660703187
13660708436
13660712098
13660716676
13660722474
13660727662
13660731385
13660735841
13660740968
13660745362
13660752381
13660756105
13660762391
13660768128
13660773805
13660778260
13660783326
13660788331
13660793031
13660798707
13660803651
13660808717
13660815980
13660820557
13660825990
13660830567
13660836488
13660841615
13660847169
13660851258
13660857911
13660864075
13660866029
13660873597
13660877137
13660883424
13660888245
13660894776
13660900635
13660906617
13660911927
13660919007
13660924256
13660928589
13660933350
13660939271
13660948060
13660954468
13660960389
13660962586
13660970398
13660973694
13660981202
13660984925
13660990906
13660996643
13661003113
13661007996
13661014405
13661020386
13661025147
13661029724
13661038147
13661044983
13661052613
13661056763
13661063599
13661070008
13661076477
13661083374
13661089600
13661094116
13661099732
13661104004
13661109863
13661115540
13661120117
13661123596
13661130676
13661135010
13661142090
13661149658
13661157227
13661163452
13661174438
13661178711
13661189697
13661198608
13661208984
13661218384
13661227478
13661238220
13661246399
13661254028
13661261535
13661268799
13661276977
13661283081
13661292724
13661302246
13661310669
13661316467
13661323303
13661332275
13661339233
13661347717
13661355957
13661363952
13661371337
13661379150
13661387267
13661395995
13661403625
13661411743
13661420471
13661427795
13661435668
13661444579
13661448730
13661459411
13661469604
13661475524
13661485473
13661491698
13661500426
13661510985
13661520141
13661530883
13661540954
13661549010
13661560729
13661571166
13661581908
13661592467
13661604064
13661612304
13661622618
13661634215
13661643614
13661654906
13661663634
13661671752
13661682067
13661690917
13661701720
13661710204
13661721861
13661729918
13661740416
13661748961
13661758726
13661767271
13661779295
13661787779
13661798582
13661806273
13661818358
13661825499
13661836180
13661847166
13661855711
13661865965
13661873594
13661886839
13661895811
13661911680
13661933836
13661951841
13661970091
13661989073
13662007932
13662027525
13662044126
13662062864
13662081419
13662102048
13662112363
13662121030
13662136838
13662154050
13662172910
13662191282
13662207456
13662216367
13662225339
13662234189
13662243589
13662251523
13662259275
13662267941
13662275571
13662284543
13662293149
13662302670
13662312802
13662325986
13662335080
13662347043
13662355405
13662364804
13662374936
13662383420
13662393246
13662403195
13662413693
13662422604
13662431393
13662440060
13662449032
13662458249
13662468197
13662477658
13662487118
13662495053
13662505551
13662514706
13662524227
13662533810
13662543453
13662553463
13662562802
13662570858
13662580319
13662589718
13662598995
13662608395
13662621151
13662631100
13662638973
13662651302
13662656795
13662669186
13662679439
13662688839
13662698055
13662707577
13662717525
13662727352
13662736568
13662747249
13662758785
13662774227
13662790096
13662802486
13662817318
13662829158
13662837825
13662850032
13662857967
13662868221
13662878353
13662887813
13662897518
13662905208
13662911861
13662918453
13662923579
13662929866
13662934993
13662941524
13662947444
13662952693
13662960078
13662968013
13662974788
13662983089
13662987849
13662994502
13663002498
13663008540
13663013911
13663021602
13663026729
13663034114
13663040706
13663047358
13663054561
13663061091
13663067134
13663073115
13663079097
13663085322
13663091670
13663100032
13663105891
13663110286
13663117793
13663122737
13663129389
13663134455
13663140864
13663146968
13663155573
13663159175
13663167231
13663170832
13663178889
13663183283
13663189387
13663194636
13663198237
13663202265
13663207942
13663212458
13663217280
13663220210
13663227107
13663232294
13663235957
13663240351
13663246516
13663250971
13663256281
13663260432
13663265681
13663270136
13663274592
13663278986
13663283869
13663289728
13663294001
13663299433
13663303522
13663310419
13663315241
13663319208
13663324152
13663328974
13663334284
13663338678
13663344660
13663350519
13663355158
13663360346
13663364191
13663372004
13663378717
13663383722
13663390802
13663397821
13663402948
13663408197
13663415216
13663418390
13663425775
13663430414
13663434503
13663440973
13663446710
13663451715
13663457086
13663462030
13663467218
13663471185
13663476679
13663482416
13663486505
13663491937
13663495905
13663501886
13663506220
13663512079
13663519281
13663526971
13663531122
13663536737
13663541010
13663546442
13663551141
13663556940
13663561456
13663566400
13663571771
13663576593
13663582452
13663584344
13663592706
13663596002
13663603509
13663610650
13663616266
13663619317
13663625604
13663629510
13663636834
13663641534
13663646295
13663651422
13663657159
13663662286
13663667291
13663672662
13663677545
13663682367
13663690057
13663695855
13663702691
13663707391
13663710931
13663718011
13663723504
13663727655
13663732659
13663739068
13663744561
13663751214
13663754571
13663760919
13663766351
13663772454
13663777642
13663782708
13663787713
13663792230
13663798333
13663804376
13663808587
13663813470
13663819207
13663821099
13663831048
13663836175
13663843621
13663847588
13663852898
13663859185
13663865288
13663870721
13663876580
13663883294
13663888482
13663892815
13663898003
13663902642
13663907952
13663913628
13663915398
13663925530
13663932183
13663938225
13663945611
13663953667
13663958550
13663965386
13663973442
13663981987
13663986565
13663996514
13664004570
13664012139
13664018914
13664028008
13664036858
13664044182
13664051445
13664058281
13664067558
13664074577
13664083367
13664091362
13664099907
13664106255
13664115288
13664124870
13664131157
13664138420
13664147209
13664156486
13664163261
13664171135
13664177421
13664184563
13664192802
13664200004
13664207817
13664215690
13664222526
13664231315
13664235893
13664245414
13664251640
13664260673
13664266105
13664276176
13664280998
13664291374
13664299736
13664307182
13664312431
13664320976
13664330131
13664338310
13664347099
13664352958
13664365165
13664374137
13664380912
13664390006
13664398795
13664405937
13664413810
13664421684
13664428886
13664438712
13664444083
13664454093
13664458549
13664467948
13664472221
13664482047
13664488517
13664496390
13664503959
13664510184
13664517936
13664525748
13664533317
13664538993
13664546439
13664555961
13664563529
13664571891
13664578482
13664584830
13664593375
13664599601
13664606620
13664614188
13664622000
13664628653
13664638663
13664647757
13664658194
13664667044
13664675894
13664684378
13664692008
13664702445
13664707633
13664718192
13664722708
13664733572
13664744376
13664750357
13664758169
13664765860
13664770376
13664780752
13664785269
13664795767
13664806021
13664812674
13664817129
13664827200
13664831778
13664842154
13664846670
13664859304
13664868277
13664876150
13664882254
13664889944
13664896963
13664904776
13664912649
13664920828
13664929006
13664935110
13664944876
13664950796
13664960256
13664966177
13664974111
13664983877
13664991140
13664999868
13665007925
13665014028
13665022634
13665031789
13665039053
13665048086
13665057668
13665063894
13665072683
13665079702
13665088857
13665093618
13665102712
13665111135
13665120351
13665127492
13665135183
13665143117
13665148977
13665155507
13665164968
13665177175
13665184438
13665192617
13665200490
13665208608
13665216909
13665222829
13665230825
13665239736
13665247853
13665255788
13665263661
13665270070
13665277821
13665285207
13665294118
13665305470
13665312123
13665321400
13665328358
13665336537
13665343190
13665348805
13665353566
13665359853
13665364186
13665370473
13665374745
13665380971
13665387013
13665392567
13665398915
13665408009
13665412221
13665420338
13665427662
13665432240
13665435902
13665444630
13665451222
13665456715
13665461598
13665467030
13665472340
13665476918
13665482228
13665486866
13665493824
13665499562
13665504750
13665510670
13665515858
13665520558
13665525807
13665531422
13665538258
13665542774
13665547901
13665553272
13665559376
13665563160
13665569203
13665574818
13665581043
13665586414
13665591724
13665594715
13665600758
13665606251
13665613636
13665619434
13665625050
13665630421
13665636402
13665641285
13665646595
13665654102
13665658741
13665665699
13665671863
13665677906
13665682117
13665688099
13665693836
13665700367
13665706531
13665711963
13665716236
13665719715
13665728382
13665731800
13665739063
13665744617
13665749256
13665754993
13665761646
13665766407
13665771839
13665776172
13665783619
13665788379
13665793872
13665798694
13665805835
13665811389
13665816272
13665821887
13665826648
13665832874
13665836231
13665843921
13665847522
13665854602
13665859912
13665866016
13665870899
13665875903
13665882617
13665887805
13665895618
13665901050
13665905933
13665910571
13665916187
13665921436
13665927051
13665932422
13665939319
13665944690
13665950488
13665953967
13665960986
13665967212
13665974658
13665980762
13665987659
13665995959
13666000720
13666008471
13666015124
13666021045
13666025561
13666031726
13666037646
13666042041
13666048449
13666052356
13666059314
13666062671
13666069812
13666073108
13666079150
13666083850
13666089099
13666093737
13666099963
13666104541
13666111071
13666115893
13666121874
13666130541
13666134631
13666140673
13666145068
13666151354
13666157214
13666160998
13666168322
13666177233
13666185168
13666192675
13666198779
13666207323
13666215624
13666220812
13666230639
13666238329
13666247179
13666254565
13666264208
13666271166
13666279894
13666287585
13666296374
13666303454
13666312731
13666319018
13666327990
13666334887
13666339708
13666350939
13666358934
13666368029
13666373339
13666382372
13666389452
13666398302
13666405199
13666413378
13666420458
13666428697
13666439012
13666446398
13666455309
13666461168
13666469469
13666477648
13666486559
13666493578
13666502123
13666510179
13666518785
13666525804
13666534410
13666539476
13666549181
13666555955
13666563158
13666572191
13666579759
13666587388
13666597337
13666604478
13666611925
13666620897
13666628770
13666635545
13666644456
13666652757
13666661241
13666667833
13666677415
13666687059
13666695237
13666703111
13666715989
13666723435
13666732347
13666739182
13666748521
13666756028
13666765672
13666772019
13666781602
13666785874
13666795640
13666804246
13666810105
13666818467
13666826340
13666835496
13666843064
13666849412
13666856675
13666864243
13666871628
13666879258
13666887986
13666894150
13666901841
13666909226
13666918625
13666927598
13666933396
13666942795
13666949875
13666957688
13666964280
13666973618
13666980271
13666989548
13666994248
13667003525
13667011032
13667019516
13667028366
13667033798
13667041672
13667048752
13667054917
13667062607
13667070541
13667076340
13667085068
13667091110
13667099960
13667108994
13667115341
13667123459
13667130051
13667138840
13667145615
13667154282
13667163010
13667168442
13667179062
13667186447
13667195846
13667201034
13667212509
13667221237
13667228073
13667235763
13667244308
13667255600
13667263717
13667276290
13667282516
13667292099
13667300094
13667312606
13667319076
13667327133
13667335555
13667342391
13667352645
13667359298
13667369186
13667377120
13667385421
13667391830
13667400680
13667409042
13667417403
13667422652
13667434188
13667443465
13667449691
13667458114
13667470016
13667477950
13667485091
13667497481
13667505904
13667515059
13667523909
13667531417
13667539229
13667547530
13667555220
13667562056
13667569503
13667575911
13667583358
13667590255
13667597701
13667604109
13667610152
13667616255
13667620650
13667627120
13667632308
13667639510
13667644148
13667651595
13667656722
13667662886
13667668562
13667676253
13667681197
13667686934
13667692061
13667698225
13667703658
13667710677
13667715071
13667722029
13667726241
13667733748
13667739790
13667746138
13667753523
13667759321
13667765303
13667771101
13667775801
13667779768
13667787337
13667793196
13667799177
13667805342
13667810713
13667816389
13667822554
13667827131
13667834272
13667839155
13667844465
13667853132
13667860212
13667864973
13667871077
13667877302
13667882673
13667889265
13667893110
13667901167
13667907331
13667914228
13667921125
13667925520
13667930403
13667936201
13667941694
13667947859
13667954267
13667961530
13667966657
13667971357
13667977705
13667983137
13667987287
13667994489
13668000654
13668006269
13668012800
13668019270
13668023542
13668027082
13668035322
13668038862
13668045393
13668049360
13668057538
13668061201
13668069318
13668074201
13668079633
13668085065
13668090497
13668099347
13668105329
13668112043
13668120405
13668124494
13668132306
13668137067
13668146405
13668152082
13668157575
13668163007
13668169110
13668171064
13668178937
13668182172
13668188764
13668193097
13668201215
13668204572
13668211896
13668215558
13668223615
13668227399
13668234723
13668239362
13668245770
13668250836
13668256024
13668264203
13668270001
13668275311
13668281964
13668286664
13668293012
13668297711
13668303632
13668309186
13668314069
13668320416
13668326886
13668332257
13668339398
13668343915
13668347638
13668355755
13668359723
13668366437
13668371503
13668378216
13668384564
13668389996
13668395062
13668400921
13668406659
13668411603
13668418072
13668423016
13668429547
13668434918
13668440045
13668444134
13668451641
13668457562
13668462384
13668468060
13668474652
13668480877
13668489178
13668496014
13668502239
13668510662
13668518292
13668525128
13668532025
13668540447
13668549175
13668556317
13668564495
13668571392
13668579876
13668586346
13668593792
13668601299
13668612286
13668622539
13668629436
13668637920
13668646221
13668653301
13668662212
13668669353
13668676800
13668685528
13668692730
13668703472
13668710369
13668719768
13668729351
13668735088
13668744060
13668750896
13668761211
13668768291
13668778850
13668788372
13668795574
13668805828
13668815532
13668823711
13668833721
13668840618
13668848613
13668857646
13668865032
13668871318
13668880351
13668889384
13668897380
13668903789
13668914287
13668921367
13668930583
13668937541
13668947551
13668954692
13668962443
13668971599
13668978984
13668987956
13668997661
13669007548
13669015422
13669022075
13669032084
13669038676
13669047282
13669054362
13669063517
13669070781
13669080607
13669085490
13669096171
13669104472
13669112223
13669118754
13669129252
13669136454
13669143046
13669150004
13669158549
13669167216
13669176493
13669183085
13669191081
13669198893
13669207316
13669215311
13669221598
13669229899
13669237284
13669246989
13669251932
13669261332
13669266459
13669276102
13669283976
13669292521
13669301127
13669307963
13669320353
13669330668
13669336649
13669344889
13669352823
13669360941
13669369974
13669377359
13669385233
13669390970
13669398722
13669406412
13669414347
13669420389
13669428385
13669433267
13669445535
13669453409
13669462137
13669469644
13669477579
13669484415
13669492471
13669500223
13669506387
13669514749
13669523477
13669532815
13669539529
13669549722
13669558938
13669565774
13669574991
13669582315
13669594400
13669600625
13669610025
13669617959
13669625222
13669633157
13669639993
13669647989
13669655679
13669661416
13669670999
13669677529
13669686746
13669693582
13669701882
13669708962
13669717996
13669724710
13669732461
13669740579
13669751443
13669760171
13669769143
13669778359
13669784707
13669795266
13669801614
13669809914
13669818581
13669826455
13669835366
13669843362
13669851784
13669859719
13669868203
13669875100
13669881814
13669890236
13669895424
13669902016
13669909401
13669915261
13669920022
13669925942
13669930397
13669937233
13669941872
13669947182
13669952065
13669958535
13669965371
13669970864
13669975685
13669983376
13669988686
13669994057
13669998879
13670005776
13670010597
13670016945
13670022377
13670029335
13670034157
13670038307
13670045754
13670049599
13670056679
13670060707
13670067726
13670072792
13670078835
13670085365
13670091042
13670097633
13670104530
13670109840
13670115578
13670121742
13670127724
13670133156
13670140968
13670147011
13670151771
13670156349
13670163063
13670170387
13670172706
13670180397
13670188942
13670194801
13670198768
13670206154
13670212440
13670220436
13670227699
13670233986
13670241676
13670247108
13670252296
13670258522
13670265907
13670270607
13670277687
13670282508
13670289100
13670294715
13670301002
13670305946
13670311805
13670317909
13670323158
13670329688
13670334388
13670338355
13670345985
13670350074
13670356239
13670361121
13670366370
13670370887
13670377357
13670382545
13670389198
13670394508
13670401588
13670406409
13670411842
13670416358
13670421607
13670428138
13670434180
13670439002
13670445350
13670450477
13670453712
13670461280
13670466041
13670470557
13670478919
13670484412
13670487952
13670494605
13670500525
13670504187
13670510047
13670515357
13670521277
13670529273
13670534888
13670540931
13670545691
13670550818
13670555518
13670561866
13670566748
13670572303
13670577063
13670582984
13670587805
13670593604
13670598364
13670604407
13670608863
13670615149
13670620703
13670625403
13670631384
13670637427
13670642066
13670646643
13670652991
13670660010
13670665503
13670670813
13670677649
13670682166
13670688940
13670693701
13670698035
13670706274
13670711584
13670718603
13670722510
13670729040
13670735632
13670740332
13670745520
13670751990
13670756933
13670765661
13670774756
13670782019
13670789892
13670794531
13670803869
13670808508
13670819677
13670824987
13670836767
13670842077
13670853430
13670858862
13670868505
13670875647
13670883154
13670895971
13670904760
13670908056
13670919714
13670926245
13670933569
13670939733
13670948339
13670956579
13670963720
13670970190
13670979223
13670986181
13670992162
13670998205
13671007055
13671015234
13671022802
13671027257
13671037939
13671042394
13671052160
13671059301
13671066137
13671073766
13671081334
13671085546
13671094640
13671100805
13671109838
13671114232
13671122655
13671129735
13671138768
13671143102
13671151891
13671158605
13671166112
13671173864
13671180760
13671188146
13671196385
13671204930
13671212316
13671219518
13671227086
13671233128
13671241795
13671248143
13671256627
13671264867
13671272252
13671278478
13671286656
13671294530
13671300145
13671308751
13671316869
13671325108
13671329930
13671339574
13671346959
13671352940
13671359532
13671368748
13671377171
13671384678
13671391636
13671399937
13671407139
13671414341
13671420445
13671428807
13671436863
13671446263
13671452549
13671457432
13671468113
13671473179
13671482640
13671489353
13671497715
13671505406
13671514073
13671523716
13671529087
13671538670
13671544956
13671551060
13671559300
13671568943
13671576756
13671582859
13671590549
13671597752
13671607700
13671615696
13671621189
13671633213
13671638645
13671650364
13671655735
13671665867
13671673984
13671682895
13671691013
13671700840
13671709079
13671716648
13671722812
13671731723
13671738865
13671747654
13671753879
13671761203
13671767856
13671777683
13671784519
13671793552
13671800632
13671805881
13671815952
13671821018
13671832309
13671837680
13671848300
13671853488
13671862460
13671870334
13671878696
13671885471
13671892978
13671900668
13671910068
13671916293
13671924533
13671931369
13671939242
13671947970
13671955356
13671964450
13671972812
13671979587
13671985202
13671994235
13672001315
13672007846
13672016208
13672022372
13672032016
13672039401
13672046603
13672054476
13672061373
13672070285
13672078036
13672084140
13672090304
13672099764
13672107028
13672114291
13672122408
13672129183
13672135470
13672143588
13672151034
13672160311
13672166659
13672172335
13672179171
13672184542
13672192171
13672195773
13672203585
13672210238
13672215060
13672218478
13672226717
13672231661
13672238436
13672243624
13672248812
13672255160
13672261629
13672265963
13672270907
13672278170
13672283602
13672288668
13672294466
13672302218
13672305941
13672312838
13672317965
13672324801
13672328157
13672334627
13672340487
13672348482
13672355440
13672363558
13672367647
13672377230
13672384859
13672391085
13672399141
13672405489
13672411043
13672415682
13672421968
13672426668
13672432649
13672436861
13672444246
13672447481
13672454927
13672458589
13672464876
13672469881
13672474764
13672480501
13672487215
13672491792
13672496492
13672501070
13672509126
13672514986
13672520296
13672527193
13672534273
13672537935
13672544588
13672548067
13672555818
13672559419
13672566560
13672572542
13672580415
13672584138
13672590547
13672594148
13672601167
13672605806
13672612214
13672616914
13672621614
13672626802
13672632783
13672638093
13672643891
13672648408
13672654695
13672659333
13672664765
13672669648
13672674958
13672680696
13672686433
13672690888
13672694367
13672700532
13672708283
13672712739
13672716218
13672725129
13672728608
13672734406
13672739716
13672746247
13672752534
13672758576
13672763276
13672768769
13672774079
13672780244
13672784516
13672790253
13672795686
13672802949
13672808747
13672814912
13672820405
13672826752
13672832612
13672837922
13672843659
13672849518
13672855561
13672860322
13672864838
13672872101
13672876923
13672881562
13672886384
13672891938
13672897187
13672903595
13672908234
13672914826
13672920136
13672925812
13672931000
13672937836
13672942902
13672949982
13672957001
13672963288
13672967255
13672974335
13672979218
13672984345
13672990021
13672994293
13673003876
13673010346
13673019013
13673028107
13673035614
13673043549
13673050751
13673056915
13673065521
13673072601
13673079498
13673088715
13673091705
13673104217
13673113861
13673120270
13673125213
13673137237
13673142547
13673153412
13673161957
13673170685
13673177643
13673185211
13673193268
13673199676
13673205536
13673214508
13673221283
13673230560
13673237030
13673246429
13673252716
13673261322
13673268157
13673276397
13673282440
13673292877
13673301055
13673308074
13673314483
13673318939
13673329864
13673334564
13673344268
13673349517
13673360503
13673365081
13673375396
13673382293
13673390777
13673397613
13673404754
13673412017
13673421722
13673428496
13673436065
13673441985
13673451324
13673457244
13673466765
13673473357
13673484221
13673491362
13673499114
13673504912
13673513396
13673519316
13673528472
13673534819
13673543486
13673549834
13673558074
13673566191
13673572173
13673579863
13673587432
13673593352
13673601409
13673611846
13673616789
13673626982
13673631499
13673640288
13673647856
13673657683
13673663542
13673676299
13673681731
13673691130
13673696257
13673705717
13673711455
13673722746
13673731596
13673740019
13673747832
13673754057
13673762663
13673769011
13673775419
13673784269
13673789091
13673797270
13673804594
13673812407
13673817167
13673825895
13673832121
13673839750
13673846952
13673854521
13673861540
13673868132
13673876371
13673884184
13673891508
13673898832
13673907682
13673913725
13673922331
13673930143
13673937162
13673945280
13673951933
13673960477
13673967069
13673975736
13673982145
13673990324
13673997160
13674005888
13674012052
13674019132
13674028348
13674037015
13674044462
13674051237
13674057706
13674066800
13674073453
13674079618
13674088529
13674095426
13674103727
13674109647
13674118070
13674126981
13674134061
13674140226
13674148709
13674155606
13674165067
13674171964
13674179227
13674190091
13674195340
13674207181
13674212552
13674220609
13674228116
13674237637
13674245145
13674252164
13674258756
13674266995
13674274930
13674282071
13674291592
13674297513
13674305569
13674313931
13674321072
13674329861
13674336148
13674344266
13674353421
13674360989
13674368191
13674377041
13674383023
13674389676
13674394192
13674399014
13674404385
13674409817
13674417874
13674423855
13674429226
13674435757
13674442898
13674448330
13674456509
13674463589
13674470486
13674476650
13674481655
13674486111
13674491116
13674497280
13674502407
13674508572
13674513333
13674519558
13674523159
13674530178
13674533596
13674541042
13674545315
13674552029
13674555264
13674561733
13674566128
13674570583
13674574917
13674583767
13674587429
13674594265
13674602383
13674607876
13674612209
13674617519
13674620571
13674626674
13674634121
13674638332
13674644192
13674648708
13674652004
13674661709
13674669521
13674676174
13674681179
13674689052
13674692592
13674700283
13674703762
13674710781
13674714626
13674720790
13674725978
13674732326
13674737880
13674744228
13674749660
13674755702
13674760036
13674767177
13674772182
13674776821
13674782680
13674787258
13674793849
13674798732
13674803615
13674810573
13674816249
13674821193
13674827236
13674832546
13674837672
13674844264
13674850429
13674854152
13674860744
13674866725
13674872401
13674877650
13674883021
13674887782
13674894313
13674901332
13674907558
13674912623
13674920070
13674924953
13674930141
13674936061
13674941554
13674948451
13674953029
13674959498
13674964259
13674971888
13674977076
13674982814
13674987269
13674993190
13674996913
13675004664
13675012172
13675019374
13675026027
13675031276
13675037562
13675044154
13675050929
13675056727
13675063868
13675069056
13675074122
13675080531
13675084925
13675089442
13675096400
13675102809
13675108668
13675112940
13675118922
13675125147
13675130946
13675135767
13675140772
13675146693
13675151453
13675156947
13675161463
13675168909
13675175196
13675180201
13675184351
13675192347
13675195887
13675202601
13675208033
13675214381
13675219507
13675224695
13675231653
13675239771
13675248560
13675256189
13675265040
13675272791
13675279810
13675287561
13675293848
13675303431
13675310083
13675318689
13675327478
13675330286
13675341700
13675346765
13675357263
13675362085
13675373194
13675380762
13675387476
13675396570
13675404444
13675411890
13675418421
13675426721
13675434473
13675441431
13675451196
13675457544
13675462610
13675473474
13675482019
13675488428
13675495630
13675505273
13675512598
13675520776
13675528100
13675535486
13675544458
13675550866
13675559167
13675567163
13675576318
13675584253
13675592492
13675598474
13675607141
13675612146
13675622094
13675630090
13675637292
13675644494
13675654748
13675661645
13675669457
13675676415
13675684594
13675691125
13675700280
13675708398
13675714501
13675722924
13675732018
13675738610
13675747155
13675757226
13675764916
13675774010
13675784936
13675792321
13675802575
13675810631
13675821007
13675828698
13675838280
13675845543
13675853112
13675862206
13675868432
13675877587
13675884545
13675893090
13675901757
13675908532
13675918297
13675924767
13675933983
13675942467
13675949547
13675957909
13675965966
13675972679
13675981224
13675989281
13675994652
13676005028
13676012169
13676020836
13676027855
13676037926
13676045555
13676054893
13676062340
13676068993
13676078026
13676085655
13676092491
13676101890
13676108299
13676117760
13676125999
13676133140
13676141441
13676146629
13676157127
13676165611
13676174156
13676179161
13676189354
13676196983
13676205406
13676212364
13676221092
13676227378
13676236412
13676242820
13676252037
13676260276
13676266319
13676275291
13676283348
13676291953
13676298362
13676307212
13676316673
13676322837
13676329917
13676339561
13676344871
13676355247
13676362144
13676370567
13676379783
13676386741
13676393333
13676402854
13676409263
13676418357
13676427329
13676434104
13676443198
13676450217
13676459128
13676467124
13676475425
13676481467
13676489951
13676494956
13676505210
13676512656
13676522361
13676529868
13676538291
13676542685
13676551718
13676559287
13676568625
13676576743
13676583518
13676593527
13676600791
13676608969
13676617331
13676624594
13676634116
13676641928
13676652670
13676659811
13676668784
13676673361
13676681906
13676687338
13676693869
13676699362
13676703329
13676707724
13676714010
13676717306
13676724264
13676728598
13676734274
13676738974
13676745505
13676750876
13676756491
13676761496
13676767111
13676772421
13676778341
13676783041
13676789450
13676793905
13676798544
13676805014
13676810324
13676814718
13676821127
13676826254
13676832113
13676837850
13676843771
13676848226
13676855306
13676859945
13676863302
13676871176
13676878317
13676883993
13676887533
13676894613
13676897909
13676906027
13676910909
13676917257
13676922384
13676927389
13676931844
13676938741
13676943075
13676949728
13676954061
13676959798
13676966390
13676973592
13676977987
13676983846
13676989583
13676994222
13677001119
13677004598
13677011312
13677017110
13677022603
13677029256
13677035848
13677041097
13677046895
13677052022
13677058187
13677064840
13677071004
13677075399
13677078817
13677087545
13677091085
13677097982
13677103780
13677110128
13677115071
13677122884
13677126485
13677134114
13677139669
13677146321
13677151631
13677157857
13677163899
13677168843
13677175069
13677180501
13677185811
13677192586
13677197591
13677205708
13677211690
13677220296
13677224873
13677233907
13677239156
13677245259
13677251729
13677257466
13677262654
13677269490
13677275044
13677278706
13677285054
13677290425
13677297017
13677301839
13677307637
13677313618
13677321126
13677326069
13677331746
13677337117
13677343525
13677348225
13677353962
13677359089
13677364338
13677372334
13677378804
13677383625
13677388630
13677395344
13677400959
13677407368
13677412800
13677417317
13677424214
13677428852
13677434834
13677440937
13677445759
13677451741
13677458149
13677463581
13677465595
13677474323
13677478291
13677486042
13677489582
13677497578
13677503742
13677509297
13677512776
13677519123
13677524494
13677531330
13677536274
13677540913
13677548603
13677556782
13677562885
13677571247
13677579426
13677586872
13677595295
13677598225
13677610370
13677619343
13677627826
13677634784
13677641132
13677648212
13677659015
13677664020
13677673786
13677681903
13677690448
13677697589
13677706745
13677713398
13677723468
13677730426
13677740375
13677747455
13677755512
13677763935
13677771991
13677781268
13677789996
13677796649
13677805499
13677814594
13677821613
13677830158
13677835162
13677846454
13677853412
13677861896
13677869037
13677878436
13677885150
13677893085
13677900226
13677911334
13677921405
13677928119
13677934955
13677944659
13677954669
13677964557
13677971515
13677980182
13677986529
13677995868
13678002826
13678011920
13678020526
13678029437
13678035601
13678044757
13678051165
13678058245
13678068011
13678075701
13678083331
13678092486
13678100237
13678106707
13678115374
13678122088
13678130999
13678140459
13678149371
13678158770
13678167132
13678173601
13678178606
13678190081
13678195025
13678204424
13678211504
13678221514
13678229204
13678237383
13678246416
13678253435
13678262468
13678269304
13678276140
13678286699
13678293657
13678302446
13678311052
13678318743
13678327471
13678334429
13678342852
13678347673
13678358110
13678368974
13678375444
13678383867
13678393572
13678402788
13678409807
13678414812
13678425981
13678437944
13678446306
13678453386
13678460649
13678469133
13678477800
13678482866
13678493242
13678500322
13678508745
13678515825
13678523576
13678533342
13678540849
13678547319
13678555253
13678564409
13678573014
13678581926
13678589921
13678598344
13678605790
13678612077
13678621842
13678629106
13678638749
13678645158
13678650163
13678661820
13678666947
13678678056
13678685746
13678694230
13678701432
13678709855
13678716996
13678725114
13678731583
13678740311
13678749345
13678758317
13678768937
13678779618
13678786576
13678796525
13678804642
13678812882
13678820572
13678831070
13678837479
13678846634
13678853104
13678862381
13678868912
13678877579
13678886124
13678891312
13678901749
13678910782
13678918656
13678925675
13678933121
13678942887
13678949906
13678956192
13678965958
13678972672
13678981705
13678992203
13679003067
13679008133
13679018692
13679025650
13679033096
13679043106
13679048965
13679053970
13679059219
13679065750
13679070877
13679077103
13679082168
13679087295
13679092605
13679099014
13679104812
13679109207
13679114761
13679120559
13679127334
13679132217
13679139297
13679143814
13679149673
13679156448
13679162246
13679168106
13679173172
13679179458
13679185257
13679191421
13679196548
13679202529
13679204483
13679213211
13679216751
13679225662
13679233169
13679240432
13679245986
13679252334
13679258132
13679262588
13679267471
13679273269
13679279495
13679285964
13679290969
13679297744
13679302871
13679309158
13679314346
13679320815
13679326308
13679333450
13679338699
13679344436
13679349441
13679355605
13679360366
13679366775
13679372878
13679378493
13679384963
13679389968
13679396377
13679401504
13679406020
13679412124
13679419448
13679424819
13679429702
13679435744
13679443007
13679448745
13679454909
13679462050
13679470839
13679475234
13679482070
13679487685
13679492202
13679498427
13679504348
13679509169
13679513564
13679519545
13679525710
13679530226
13679535842
13679540785
13679544814
13679551650
13679562941
13679577529
13679585951
13679595534
13679604018
13679614150
13679623732
13679632521
13679640211
13679646864
13679651503
13679656508
13679660963
13679666212
13679670851
13679675673
13679679945
13679684828
13679689955
13679694716
13679699354
13679704664
13679711012
13679715956
13679720472
13679725294
13679730055
13679733717
13679739943
13679745436
13679750197
13679756727
13679760939
13679766066
13679771864
13679776503
13679782911
13679787611
13679793837
13679797438
13679804151
13679809584
13679814344
13679820448
13679825086
13679830091
13679837049
13679844129
13679849195
13679854383
13679859632
13679864332
13679870191
13679875379
13679881483
13679887769
13679893568
13679898756
13679906507
13679912733
13679920667
13679927015
13679935926
13679944715
13679953382
13679959730
13679970533
13679977003
13679987012
13679993970
13680001844
13680010328
13680018201
13680024854
13680033765
13680042005
13680047071
13680056775
13680062085
13680072583
13680085218
13680094495
13680102124
13680109388
13680119702
13680126782
13680132093
13680143323
13680148084
13680158154
13680165479
13680172986
13680177625
13680189282
13680194226
13680203259
13680213818
13680222791
13680229871
13680237866
13680245373
13680254346
13680261487
13680271558
13680279187
13680287121
13680297864
13680306958
13680315075
13680325207
13680330334
13680338574
13680348217
13680356457
13680363720
13680371594
13680378064
13680387280
13680395947
13680403027
13680412548
13680415417
13680426037
13680431042
13680442883
13680448010
13680459301
13680464428
13680474560
13680482067
13680489575
13680496288
13680505261
13680512402
13680521252
13680527599
13680536510
13680546154
13680553600
13680560558
13680568859
13680577282
13680585277
13680591808
13680601208
13680607433
13680615612
13680624096
13680629223
13680639660
13680646618
13680654369
13680663402
13680671947
13680680248
13680688121
13680694469
13680703441
13680709545
13680718151
13680724987
13680734386
13680743175
13680752269
13680758800
13680767040
13680775401
13680780650
13680789562
13680796520
13680806529
13680811839
13680821422
13680828868
13680838939
13680845897
13680853343
13680863353
13680871715
13680878917
13680889354
13680895946
13680911509
13680920604
13680927012
13680934276
13680943126
13680954722
13680962901
13680970836
13680977427
13680986705
13680992686
13681000193
13681008250
13681016429
13681024546
13681031993
13681039805
13681046275
13681053904
13681059336
13681069285
13681076121
13681084422
13681092600
13681100108
13681104746
13681112925
13681119395
13681131663
13681138377
13681146372
13681154368
13681160654
13681165720
13681177866
13681182932
13681193308
13681197947
13681207834
13681212656
13681223032
13681227610
13681236582
13681243052
13681251535
13681258493
13681266977
13681274729
13681283091
13681289377
13681298044
13681304270
13681312021
13681320383
13681327585
13681335275
13681342111
13681350534
13681357370
13681362497
13681365671
13681373911
13681379648
13681384958
13681389230
13681395944
13681399179
13681407175
13681410715
13681417612
13681423715
13681429330
13681434824
13681441049
13681445810
13681450754
13681455698
13681462167
13681468332
13681475107
13681480783
13681482797
13681490671
13681496774
13681501413
13681507211
13681513315
13681516916
13681523080
13681527902
13681535226
13681540536
13681545907
13681550241
13681556100
13681563119
13681569040
13681574411
13681580819
13681586373
13681590768
13681596444
13681603036
13681608773
13681615731
13681622567
13681629647
13681635079
13681642526
13681647714
13681654366
13681659066
13681666024
13681670113
13681676339
13681680428
13681685494
13681690804
13681697274
13681702706
13681709481
13681713937
13681719674
13681725472
13681730782
13681736520
13681741341
13681751656
13681759041
13681764657
13681771248
13681775826
13681782479
13681786996
13681792794
13681798592
13681803536
13681808968
13681814278
13681819710
13681824654
13681828927
13681834847
13681841622
13681848336
13681852486
13681857979
13681863289
13681867867
13681873848
13681877022
13681885872
13681891243
13681896736
13681900276
13681906990
13681910408
13681916939
13681921761
13681927925
13681933846
13681942940
13681949043
13681956917
13681962654
13681971077
13681977608
13681982735
13681987373
13681991768
13681996590
13682000496
13682005318
13682009163
13682013741
13682019417
13682023994
13682028084
13682033150
13682038094
13682043281
13682047981
13682052803
13682058357
13682062874
13682067268
13682071358
13682078071
13682083198
13682087471
13682092476
13682097847
13682103828
13682106880
13682113167
13682116340
13682122810
13682128425
13682133003
13682140144
13682146003
13682150581
13682157600
13682161079
13682168525
13682174873
13682182502
13682190620
13682198799
13682201728
13682212043
13682216194
13682227241
13682234382
13682242011
13682248481
13682255561
13682262519
13682269721
13682276679
13682283759
13682290351
13682297675
13682306037
13682314338
13682321540
13682327277
13682336982
13682343452
13682352546
13682360419
13682369453
13682376349
13682384650
13682391059
13682399116
13682405463
13682414191
13682421393
13682429816
13682436408
13682445685
13682452338
13682460212
13682466132
13682475409
13682484442
13682491767
13682495978
13682504279
13682513129
13682519049
13682527655
13682535895
13682544135
13682552435
13682558539
13682566290
13682574347
13682580206
13682586859
13682596808
13682606940
13682614935
13682621954
13682629889
13682634528
13682644110
13682652350
13682658575
13682666876
13682677435
13682682196
13682692511
13682697088
13682706549
13682713019
13682720709
13682727911
13682738714
13682743475
13682752142
13682758551
13682767767
13682774298
13682782537
13682789923
13682799688
13682804388
13682814031
13682820562
13682829840
13682837042
13682844427
13682852361
13682862676
13682869390
13682878423
13682884954
13682891790
13682900335
13682909917
13682922063
13682929815
13682940252
13682947881
13682955450
13682964605
13682978033
13682985296
13682993169
13683000554
13683008916
13683017400
13683024114
13683029241
13683040349
13683045293
13683055791
13683063604
13683069890
13683074651
13683084722
13683089727
13683100835
13683106206
13683114873
13683125737
13683135747
13683142888
13683150639
13683158513
13683168462
13683176701
13683183598
13683191228
13683197514
13683205266
13683211552
13683219914
13683228825
13683235234
13683243169
13683250310
13683256474
13683264226
13683270512
13683279912
13683289433
13683298161
13683305180
13683311894
13683318181
13683325139
13683333134
13683338994
13683346196
13683354496
13683360966
13683368901
13683376591
13683386051
13683393071
13683400700
13683408085
13683418156
13683427616
13683437321
13683446049
13683452458
13683460697
13683469181
13683477848
13683485661
13683492985
13683499760
13683507816
13683514042
13683522465
13683531559
13683540348
13683546451
13683552250
13683558903
13683561222
13683568546
13683575016
13683580143
13683585209
13683592472
13683596988
13683602054
13683607059
13683613285
13683618290
13683623172
13683627994
13683634647
13683640628
13683646549
13683655338
13683662235
13683669620
13683676822
13683682437
13683689518
13683694583
13683700687
13683705448
13683712039
13683716678
13683723514
13683728153
13683734317
13683737674
13683743717
13683748966
13683755557
13683761051
13683767581
13683773013
13683778873
13683783572
13683788333
13683793399
13683800113
13683809573
13683814334
13683819095
13683825687
13683830752
13683837100
13683842776
13683844668
13683852786
13683857669
13683863650
13683869876
13683874698
13683880069
13683886050
13683889468
13683896243
13683900821
13683908938
13683912845
13683919619
13683923709
13683931826
13683937686
13683942630
13683948977
13683955874
13683961245
13683967288
13683973208
13683977847
13683982669
13683989260
13683996157
13684002200
13684006900
13684013003
13684018069
13684025027
13684029910
13684033877
13684042910
13684049197
13684056643
13684060305
13684067141
13684072817
13684079287
13684084414
13684088931
13684094057
13684101687
13684106753
13684113589
13684118838
13684124392
13684130801
13684136782
13684141970
13684146242
13684153994
13684158083
13684166079
13684169863
13684176821
13684180727
13684187868
13684194155
13684200136
13684205385
13684210634
13684217592
13684223208
13684228029
13684234377
13684240114
13684250551
13684257143
13684263369
13684269228
13684275881
13684281435
13684288393
13684295900
13684301271
13684307680
13684312807
13684319277
13684323671
13684327883
13684333742
13684340212
13684344423
13684349733
13684354921
13684360414
13684365419
13684369997
13684376222
13684383669
13684389406
13684395204
13684400148
13684405824
13684413515
13684421144
13684427553
13684435548
13684440248
13684451723
13684457460
13684466127
13684470521
13684481202
13684486390
13684497682
13684502992
13684515138
13684520082
13684529542
13684537477
13684545045
13684554200
13684562196
13684569459
13684577455
13684583802
13684592591
13684600892
13684609681
13684616212
13684621278
13684632752
13684637757
13684649232
13684654298
13684664491
13684671998
13684679810
13684686890
13684695252
13684702332
13684711365
13684717591
13684727174
13684733704
13684742676
13684749024
13684757691
13684766724
13684772950
13684783448
13684789002
13684798401
13684805665
13684814087
13684823182
13684829895
13684839966
13684848084
13684855042
13684863282
13684873047
13684881897
13684888855
13684898804
13684906372
13684911865
13684923889
13684932068
13684940979
13684948242
13684956299
13684963196
13684972961
13684983154
13684992065
13684999084
13685009705
13685016785
13685022888
13685036865
13685042419
13685054138
13685060913
13685072937
13685080993
13685089782
13685097351
13685106201
13685112976
13685120605
13685129882
13685138977
13685146118
13685154052
13685162353
13685169006
13685176757
13685181213
13685192016
13685196411
13685206909
13685211547
13685221435
13685226074
13685236572
13685241577
13685256103
13685263732
13685269531
13685277709
13685285888
13685290405
13685299621
13685307250
13685315063
13685319579
13685329284
13685333922
13685344359
13685351134
13685359252
13685365600
13685375121
13685383483
13685389281
13685396178
13685405761
13685412047
13685420470
13685427550
13685436095
13685443908
13685453429
13685459655
13685468749
13685474974
13685484862
13685493529
13685500731
13685509276
13685517638
13685523985
13685528807
13685541564
13685547423
13685556517
13685561583
13685573363
13685578795
13685589049
13685596739
13685604735
13685610960
13685619627
13685629210
13685637327
13685644163
13685653013
13685659422
13685667479
13685676207
13685685667
13685692442
13685700987
13685708006
13685717772
13685726500
13685735167
13685743467
13685748960
13685757200
13685765196
13685773191
13685781858
13685790342
13685793150
13685805723
13685814268
13685822569
13685829588
13685836973
13685850462
13685859983
13685867124
13685877256
13685885862
13685893064
13685902341
13685908201
13685914976
13685919675
13685925779
13685930967
13685937864
13685942441
13685946226
13685953123
13685959653
13685967588
13685971921
13685979795
13685983823
13685990598
13685996213
13686001584
13686009824
13686015317
13686020200
13686026853
13686034848
13686040708
13686045957
13686052060
13686058591
13686064328
13686068906
13686072568
13686080136
13686087277
13686092893
13686098813
13686105771
13686114743
13686120297
13686124448
13686132688
13686136228
13686143552
13686149533
13686155698
13686160581
13686166867
13686171933
13686177853
13686184811
13686189633
13686195615
13686197629
13686207028
13686212460
13686217038
13686220944
13686229733
13686233578
13686239682
13686245297
13686252194
13686258298
13686263974
13686269040
13686274655
13686280087
13686289364
13686295468
13686301632
13686307614
13686313839
13686318844
13686324215
13686330258
13686335690
13686342526
13686347103
13686353512
13686361264
13686366024
13686369747
13686377743
13686381649
13686388790
13686394100
13686400326
13686404782
13686412167
13686417965
13686423580
13686428951
13686436215
13686440853
13686447201
13686452938
13686459042
13686465145
13686469967
13686477718
13686483456
13686489437
13686495174
13686501400
13686507381
13686514889
13686521358
13686526852
13686532345
13686537044
13686542232
13686548824
13686555721
13686562252
13686566891
13686572628
13686577389
13686583797
13686589046
13686592830
13686601497
13686605343
13686611019
13686616512
13686624202
13686627926
13686635006
13686640560
13686646724
13686653194
13686661190
13686665767
13686672115
13686677303
13686684688
13686689449
13686694820
13686702327
13686708370
13686713436
13686717220
13686725215
13686729305
13686737727
13686741390
13686749446
13686755183
13686761775
13686767146
13686773128
13686780330
13686785396
13686791682
13686793880
13686804195
13686811946
13686820247
13686823176
13686834834
13686839839
13686850886
13686858943
13686866389
13686873958
13686883296
13686890254
13686898005
13686904597
13686912715
13686920955
13686929255
13686938472
13686946589
13686955561
13686964656
13686970942
13686980036
13686986384
13686995234
13687004511
13687009638
13687020136
13687025508
13687035090
13687042597
13687051936
13687059443
13687067500
13687077876
13687085078
13687091547
13687100642
13687107416
13687116633
13687125056
13687132807
13687141840
13687148615
13687156977
13687161982
13687171259
13687178400
13687187861
13687194941
13687204462
13687212458
13687221796
13687232477
13687242914
13687252436
13687259638
13687268000
13687278559
13687286737
13687294000
13687303583
13687310602
13687317011
13687326044
13687332514
13687338251
13687349603
13687356805
13687365167
13687369928
13687381219
13687386468
13687396356
13687403375
13687411249
13687418634
13687427362
13687436944
13687443902
13687450616
13687460809
13687468377
13687477594
13687486932
13687494928
13687501336
13687511041
13687517450
13687522271
13687532525
13687537652
13687549859
13687555291
13687564752
13687571832
13687580438
13687588067
13687595758
13687604913
13687611566
13687621087
13687628594
13687635125
13687644463
13687652947
13687660638
13687668206
13687678155
13687685723
13687691155
13687702691
13687710931
13687720696
13687728509
13687735833
13687742425
13687752434
13687761651
13687769890
13687777398
13687785271
13687791680
13687801140
13687807549
13687817192
13687826165
13687833794
13687840813
13687845818
13687857048
13687862236
13687872734
13687877983
13687889519
13687897026
13687904961
13687911980
13687921257
13687928703
13687935967
13687945061
13687951714
13687960930
13687968010
13687976982
13687984550
13687993584
13688002068
13688008415
13688019401
13688028313
13688035698
13688045952
13688053642
13688062919
13688070854
13688080131
13688088859
13688098381
13688106865
13688116691
13688124748
13688134269
13688139457
13688149284
13688158012
13688166618
13688171745
13688181510
13688188590
13688197441
13688205070
13688213249
13688219718
13688227348
13688236808
13688244132
13688250846
13688260673
13688267081
13688274955
13688281486
13688290397
13688297355
13688303825
13688308646
13688314078
13688318656
13688323844
13688329520
13688334464
13688340201
13688346976
13688352469
13688358024
13688362479
13688369498
13688374137
13688380668
13688387137
13688392447
13688398307
13688400199
13688408805
13688412345
13688420340
13688424063
13688430411
13688436942
13688442313
13688448783
13688454703
13688459525
13688464225
13688470511
13688476248
13688481314
13688488577
13688493216
13688499930
13688507193
13688512015
13688518424
13688523856
13688529349
13688536002
13688541739
13688546744
13688552176
13688556693
13688562369
13688565298
13688572501
13688575980
13688582877
13688587942
13688593497
13688596670
13688608389
13688612662
13688618521
13688624808
13688631460
13688635000
13688641592
13688645865
13688651053
13688654959
13688660879
13688667227
13688671805
13688676260
13688682608
13688686575
13688692190
13688697989
13688702444
13688712637
13688719168
13688725698
13688733877
13688740591
13688746389
13688756155
13688759878
13688767630
13688773306
13688779226
13688783682
13688788870
13688793203
13688798391
13688804678
13688809988
13688814443
13688820425
13688825796
13688831228
13688833120
13688840078
13688844289
13688851492
13688855886
13688862905
13688869375
13688871084
13688880239
13688885976
13688891897
13688893606
13688901968
13688905019
13688912588
13688916067
13688921865
13688925710
13688933401
13688941945
13688948293
13688954275
13688959829
13688965627
13688970388
13688975881
13688982412
13688987966
13688992849
13688998098
13689002797
13689008046
13689013723
13689019948
13689025014
13689032582
13689036367
13689044545
13689051137
13689059743
13689064992
13689069753
13689077016
13689082875
13689088307
13689093556
13689100087
13689105824
13689111867
13689118215
13689127553
13689133534
13689144154
13689151234
13689160085
13689168690
13689176137
13689182362
13689190541
13689199269
13689205434
13689211781
13689221974
13689229359
13689237660
13689246449
13689249257
13689261464
13689268300
13689274708
13689280018
13689291066
13689296681
13689305653
13689313343
13689323231
13689328358
13689343495
13689353932
13689363758
13689370594
13689380177
13689391651
13689400685
13689409657
13689417896
13689426808
13689435780
13689442066
13689448292
13689456898
13689462086
13689471302
13689479420
13689486317
13689495472
13689502674
13689509449
13689516041
13689522816
13689531421
13689537769
13689546497
13689552845
13689562183
13689570667
13689579883
13689586780
13689596119
13689602405
13689611194
13689619007
13689627918
13689636463
13689643238
13689649646
13689658985
13689665576
13689672473
13689681384
13689686634
13689698169
13689704028
13689712879
13689719837
13689728259
13689735828
13689744128
13689751270
13689758777
13689765369
13689774341
13689781116
13689787952
13689796130
13689804553
13689810962
13689818896
13689827991
13689834643
13689842883
13689848865
13689856677
13689863452
13689873523
13689879321
13689888842
13689896777
13689904040
13689910876
13689918567
13689925952
13689934863
13689941210
13689952075
13689959521
13689968676
13689975939
13689984606
13689991931
13689999987
13690007617
13690017748
13690024218
13690030383
13690038622
13690045824
13690051684
13690060595
13690066943
13690075732
13690084032
13690091296
13690099352
13690105944
13690113756
13690118517
13690129137
13690140185
13690150377
13690159166
13690170092
13690180529
13690188280
13690197985
13690208483
13690217882
13690220751
13690233446
13690240526
13690248400
13690256334
13690263536
13690268724
13690278551
13690286669
13690295213
13690301927
13690308580
13690315233
13690324510
13690332628
13690340685
13690348070
13690356615
13690369676
13690376390
13690384019
13690392503
13690399644
13690406663
13690415391
13690421190
13690428880
13690437364
13690443406
13690451341
13690458665
13690466173
13690471666
13690480089
13690487535
13690496080
13690501146
13690510179
13690515977
13690527635
13690532212
13690543199
13690547288
13690554246
13690559312
13690564744
13690569505
13690573960
13690578233
13690584947
13690591844
13690596482
13690602159
13690606553
13690613633
13690619126
13690625657
13690629990
13690634141
13690640611
13690645921
13690651231
13690655991
13690659470
13690666184
13690671922
13690678147
13690682725
13690687669
13690693406
13690699387
13690705002
13690710313
13690714646
13690719895
13690726670
13690728562
13690736924
13690738877
13690748154
13690751389
13690758408
13690764878
13690769822
13690776535
13690781357
13690786301
13690792893
13690799607
13690805893
13690810776
13690816574
13690823227
13690832749
13690840317
13690849533
13690858200
13690864121
13690869126
13690876145
13690880844
13690886765
13690893356
13690898178
13690902878
13690907883
13690912094
13690917343
13690922958
13690927475
13690932358
13690937302
13690942795
13690946884
13690952744
13690957382
13690962021
13690967697
13690975449
13690980576
13690987778
13690992905
13690999252
13691006149
13691011947
13691018234
13691024460
13691033249
13691041305
13691049545
13691056625
13691063156
13691074325
13691079696
13691088852
13691093307
13691103744
13691108566
13691123214
13691130538
13691137985
13691145492
13691152023
13691159286
13691165145
13691173629
13691182723
13691190475
13691197128
13691203170
13691210433
13691218429
13691225692
13691233993
13691241012
13691249984
13691257247
13691265487
13691273360
13691282516
13691290877
13691299483
13691306747
13691314498
13691322494
13691329329
13691337691
13691343917
13691354171
13691362471
13691369857
13691378646
13691386580
13691393843
13691399886
13691409529
13691416060
13691425215
13691433699
13691441878
13691450667
13691457076
13691469832
13691480879
13691488448
13691500777
13691516646
13691525618
13691536971
13691549300
13691560530
13691572127
13691579207
13691591170
13691600691
13691610029
13691618880
13691631819
13691641279
13691651289
13691663313
13691673689
13691683271
13691688765
13691701948
13691711958
13691722090
13691732832
13691743513
13691754682
13691766401
13691775923
13691787763
13691796919
13691805219
13691814436
13691824201
13691834638
13691844221
13691853071
13691868391
13691879621
13691887556
13691897321
13691904706
13691917341
13691926435
13691939130
13691950727
13691960431
13691969587
13691980634
13691989972
13692000348
13692009748
13692019818
13692029096
13692038556
13692048139
13692059674
13692068341
13692082440
13692090802
13692100324
13692110944
13692121381
13692132855
13692141400
13692153119
13692162152
13692171796
13692182721
13692192059
13692202496
13692214032
13692223187
13692231061
13692243390
13692254864
13692264142
13692274579
13692284161
13692296795
13692304608
13692316754
13692322430
13692337628
13692347393
13692356915
13692366986
13692377361
13692388775
13692396710
13692409466
13692420086
13692433147
13692447613
13692456951
13692463604
13692472027
13692477886
13692486187
13692490398
13692499615
13692503521
13692513042
13692516949
13692525921
13692531902
13692538799
13692547161
13692551922
13692558757
13692563518
13692573040
13692580974
13692587871
13692598919
13692604839
13692611980
13692618572
13692625835
13692632366
13692639324
13692646160
13692652996
13692658672
13692666118
13692673564
13692678935
13692684673
13692691326
13692699748
13692706218
13692712444
13692719219
13692726054
13692732463
13692739726
13692746501
13692751933
13692761333
13692771220
13692777324
13692785503
13692793681
13692799235
13692806743
13692814006
13692821574
13692827800
13692835185
13692841472
13692850932
13692855266
13692865641
13692869731
13692878947
13692886699
13692892070
13692900004
13692908366
13692915324
13692923686
13692931437
13692937297
13692945475
13692953715
13692961527
13692968241
13692975321
13692981669
13692989176
13692994547
13692999613
13693006876
13693012736
13693018900
13693023173
13693027873
13693034892
13693038493
13693046183
13693053995
13693061625
13693068400
13693078837
13693085612
13693092509
13693098856
13693106547
13693109232
13693115946
13693121439
13693126261
13693130778
13693135721
13693140055
13693144999
13693150797
13693154398
13693160013
13693163614
13693169291
13693174967
13693179422
13693185221
13693191019
13693195536
13693201944
13693206461
13693213053
13693218424
13693223795
13693229044
13693234537
13693237772
13693245279
13693248514
13693256143
13693259317
13693266702
13693272318
13693277689
13693281351
13693288065
13693294473
13693300760
13693305338
13693310831
13693316141
13693322611
13693328348
13693333963
13693338419
13693344034
13693349832
13693355203
13693361063
13693365579
13693371255
13693377054
13693382791
13693390115
13693400247
13693403604
13693412332
13693416421
13693424112
13693430398
13693434671
13693441263
13693446634
13693452493
13693457742
13693474527
13693480447
13693485086
13693490640
13693497659
13693502114
13693508157
13693513589
13693518594
13693524392
13693530007
13693535928
13693540994
13693546853
13693551858
13693555764
13693561685
13693565957
13693572793
13693577554
13693583047
13693587624
13693595986
13693602029
13693608071
13693613198
13693620828
13693627480
13693632180
13693637124
13693643960
13693649636
13693655007
13693660134
13693665017
13693670144
13693674966
13693679848
13693683816
13693689309
13693696267
13693702675
13693707009
13693712929
13693718972
13693724831
13693730752
13693735146
13693741738
13693751320
13693754799
13693762551
13693767556
13693773720
13693778603
13693783913
13693792275
13693800759
13693807900
13693815834
13693825234
13693832863
13693839150
13693847206
13693856423
13693864784
13693873146
13693880470
13693886879
13693895729
13693905006
13693913185
13693920631
13693929909
13693936501
13693945839
13693953285
13693961586
13693968788
13693977150
13693986183
13693993873
13694000221
13694010170
13694016578
13694025490
13694031959
13694040870
13694049782
13694058021
13694066810
13694075721
13694082313
13694091407
13694097938
13694106483
13694115272
13694125221
13694131629
13694139808
13694148475
13694155311
13694163795
13694172889
13694181190
13694189369
13694195777
13694204810
13694212867
13694222022
13694228431
13694237220
13694246558
13694254127
13694260657
13694270179
13694276710
13694286964
13694293128
13694301429
13694312110
13694323096
13694331641
13694340613
13694348243
13694358924
13694369483
13694386573
13694396399
13694402991
13694413245
13694423011
13694430335
13694436804
13694445655
13694454871
