13819292686
13819300376
13819305015
13819311119
13819316734
13819322898
13819328269
13819334007
13819339805
13819345115
13819351341
13819356651
13819363242
13819368919
13819373679
13819379722
13819384910
13819390220
13819395530
13819401084
13819407371
13819413657
13819419639
13819428062
13819436973
13819444175
13819450522
13819455710
13819462913
13819470481
13819475364
13819483298
13819490684
13819496543
13819504355
13819511924
13819520469
13819528403
13819535300
13819541465
13819548301
13819555014
13819563864
13819571250
13819579978
13819587058
13819592795
13819598777
13819604636
13819610861
13819617880
13819623496
13819630332
13819636313
13819641867
13819644980
13819652487
13819659201
13819665549
13819671042
13819677329
13819683310
13819688315
13819695090
13819700095
13819707358
13819713034
13819719199
13819724753
13819731039
13819737265
13819744101
13819751364
13819758322
13819763815
13819770773
13819776816
13819783163
13819789084
13819794882
13819802389
13819807821
13819815207
13819820883
13819827841
13819834677
13819841818
13819848288
13819854696
13819861044
13819865499
13819873251
13819877767
13819884848
13819889730
13819896994
13819904562
13819910360
13819915670
13819922506
13819927816
13819936727
13819944967
13819951864
13819963827
13819973287
13819983053
13819991842
13820000204
13820007406
13820014974
13820022359
13820029867
13820037069
13820044088
13820052450
13820059713
13820065267
13820072103
13820080037
13820088460
13820093709
13820103231
13820110860
13820118429
13820125081
13820131917
13820139180
13820144674
13820151265
13820158773
13820164876
13820170308
13820178548
13820185628
13820192159
13820198873
13820205709
13820212850
13820219319
13820226216
13820233357
13820239888
13820246907
13820253682
13820259053
13820266316
13820274312
13820281453
13820287679
13820294392
13820301472
13820308430
13820315816
13820321980
13820329304
13820334126
13820342732
13820349080
13820357930
13820363606
13820370808
13820379109
13820385457
13820391804
13820398030
13820405354
13820412739
13820419209
13820425496
13820432454
13820438435
13820445393
13820452778
13820458332
13820466511
13820473103
13820479573
13820487934
13820493000
13820502400
13820510151
13820516133
13820523518
13820532185
13820537861
13820544453
13820553181
13820560627
13820568012
13820575703
13820582478
13820590351
13820597675
13820606037
13820618427
13820625812
13820634785
13820643940
13820650715
13820658832
13820667805
13820678913
13820685871
13820694782
13820702045
13820709247
13820714374
13820722797
13820731891
13820737262
13820748737
13820754352
13820762592
13820768756
13820777607
13820786090
13820791339
13820797443
13820803119
13820807636
13820812702
13820817829
13820821674
13820826618
13820832111
13820837421
13820842182
13820847492
13820853656
13820858600
13820863239
13820868610
13820873248
13820880084
13820885333
13820890521
13820897784
13820904010
13820910297
13820915912
13820920917
13820926898
13820931842
13820938006
13820943622
13820951495
13820957782
13820964252
13820969378
13820977130
13820982867
13820988421
13820994769
13821001544
13821006732
13821012591
13821018084
13821022052
13821027789
13821032122
13821037432
13821044024
13821049395
13821055438
13821060870
13821066180
13821067950
13821074481
13821080340
13821085406
13821092486
13821097552
13821102496
13821108660
13821113421
13821117449
13821122881
13821129412
13821134417
13821140521
13821145098
13821149371
13821155962
13821160418
13821166949
13821172564
13821178973
13821184710
13821190752
13821196123
13821203753
13821208453
13821219744
13821225725
13821232500
13821240252
13821245196
13821252764
13821256914
13821264422
13821270769
13821276201
13821280047
13821287798
13821292986
13821299212
13821305559
13821310198
13821316485
13821320879
13821325213
13821330889
13821335344
13821342058
13821345842
13821353655
13821360186
13821365190
13821370439
13821377458
13821385271
13821389421
13821395281
13821401384
13821406755
13821412065
13821417070
13821423479
13821429827
13821434404
13821439165
13821444231
13821448992
13821454363
13821459917
13821466753
13821471574
13821477373
13821482195
13821487932
13821494157
13821499040
13821504594
13821510576
13821515825
13821519914
13821526872
13821530962
13821537248
13821541582
13821549699
13821553483
13821560808
13821566972
13821572770
13821577958
13821583391
13821589738
13821595903
13821602067
13821606584
13821616288
13821623796
13821631181
13821642839
13821648393
13821659745
13821666764
13821674699
13821682572
13821691545
13821698808
13821709428
13821720292
13821724992
13821736222
13821741776
13821749955
13821754411
13821765031
13821774247
13821782121
13821789628
13821798417
13821806901
13821813920
13821823319
13821831132
13821841263
13821850114
13821859879
13821868912
13821876603
13821886796
13821899003
13821907364
13821914505
13821923966
13821931595
13821937272
13821945816
13821952652
13821958756
13821964493
13821971085
13821978958
13821983780
13821991471
13822000260
13822007401
13822016617
13822029129
13822040787
13822048782
13822055618
13822064774
13822071671
13822078201
13822086563
13822094986
13822100601
13822106522
13822115799
13822122635
13822130508
13822137466
13822144241
13822149185
13822157547
13822161697
13822171951
13822181778
13822187515
13822195450
13822203079
13822209976
13822215225
13822222793
13822230972
13822238784
13822244949
13822251602
13822259353
13822266555
13822272537
13822280410
13822287368
13822295608
13822301589
13822310684
13822317459
13822323318
13822331863
13822337173
13822343826
13822354507
13822358962
13822368240
13822375320
13822383010
13822390701
13822399490
13822409194
13822415176
13822419692
13822429702
13822437148
13822444839
13822450393
13822459609
13822470229
13822478225
13822484267
13822492202
13822497573
13822506972
13822512221
13822522170
13822531325
13822536879
13822544875
13822552565
13822560683
13822567275
13822576308
13822586501
13822594863
13822602004
13822610976
13822619582
13822627150
13822635756
13822643080
13822649489
13822658217
13822664015
13822671034
13822676772
13822684889
13822690749
13822698866
13822706068
13822713637
13822720351
13822728285
13822732558
13822741469
13822748183
13822757094
13822765272
13822770643
13822779188
13822784437
13822792128
13822799757
13822805372
13822814344
13822822279
13822828505
13822835035
13822842726
13822849318
13822855360
13822864210
13822871473
13822879835
13822886244
13822894728
13822900953
13822909620
13822916090
13822924635
13822932203
13822942152
13822949293
13822956007
13822961561
13822966383
13822970838
13822976820
13822983656
13822989698
13822994154
13823000867
13823008192
13823016431
13823021619
13823028821
13823034498
13823040357
13823044507
13823050550
13823056226
13823061048
13823067090
13823072706
13823078809
13823085279
13823088941
13823095655
13823099805
13823106031
13823109876
13823118055
13823123914
13823129895
13823134778
13823140577
13823145093
13823151929
13823155469
13823162305
13823169446
13823174939
13823180310
13823185559
13823191419
13823197400
13823201428
13823209363
13823214368
13823222058
13823227429
13823234509
13823238538
13823245862
13823254163
13823261853
13823268323
13823273572
13823279736
13823287183
13823292981
13823297375
13823303052
13823308484
13823313428
13823318005
13823324414
13823329297
13823334668
13823338696
13823344800
13823349316
13823355481
13823359509
13823365429
13823371411
13823377331
13823381665
13823385937
13823392407
13823399426
13823404492
13823410290
13823417065
13823420727
13823427685
13823432507
13823438916
13823444592
13823450268
13823455517
13823461254
13823465710
13823472241
13823477001
13823483715
13823488903
13823495922
13823500561
13823504528
13823511791
13823515881
13823523510
13823527783
13823536022
13823540722
13823548657
13823553112
13823558666
13823564220
13823570324
13823575451
13823580395
13823586864
13823593090
13823597546
13823604809
13823609081
13823615002
13823619457
13823623485
13823631481
13823637829
13823642711
13823649547
13823654308
13823660229
13823664562
13823670116
13823677013
13823683422
13823689281
13823694652
13823700939
13823705700
13823712658
13823718212
13823725170
13823730846
13823737316
13823745555
13823749889
13823756847
13823762401
13823769786
13823776317
13823782604
13823788524
13823794689
13823800304
13823805736
13823810619
13823816844
13823825084
13823834300
13823842540
13823851451
13823859447
13823867381
13823873851
13823883006
13823889598
13823898997
13823906139
13823916453
13823922984
13823930491
13823937266
13823944407
13823953929
13823963328
13823970897
13823978099
13823982921
13823991588
13823998301
13824004771
13824009532
13824016673
13824024241
13824031749
13824036998
13824044627
13824052012
13824059275
13824066783
13824074656
13824083201
13824090708
13824097544
13824105662
13824112193
13824119700
13824125681
13824135630
13824143015
13824152415
13824159068
13824166392
13824172373
13824177866
13824187327
13824193003
13824202097
13824210093
13824218149
13824223398
13824231028
13824239084
13824248179
13824256296
13824262400
13824270640
13824279001
13824287485
13824295786
13824303232
13824310129
13824319101
13824325571
13824333628
13824343027
13824349863
13824357248
13824364145
13824370981
13824378672
13824386362
13824395395
13824401926
13824409311
13824417673
13824423898
13824430612
13824439951
13824446603
13824452951
13824463510
13824471689
13824478281
13824487253
13824493845
13824501047
13824509225
13824516794
13824525400
13824532663
13824540841
13824550729
13824558664
13824565194
13824573617
13824580636
13824586679
13824597360
13824604440
13824614999
13824620797
13824631906
13824641122
13824648629
13824659921
13824669686
13824676461
13824685617
13824692758
13824698861
13824706857
13824713082
13824722176
13824728280
13824737313
13824745126
13824751901
13824759652
13824762276
13824774239
13824782845
13824788705
13824796212
13824804818
13824809945
13824820077
13824827523
13824834603
13824842721
13824850594
13824857979
13824864083
13824870797
13824879708
13824886239
13824894478
13824901070
13824908883
13824917305
13824923409
13824931771
13824937691
13824946297
13824953377
13824962593
13824969551
13824975472
13824984444
13824990425
13824995979
13825005867
13825011360
13825020638
13825025276
13825035286
13825043526
13825050118
13825058235
13825065254
13825072762
13825084053
13825092354
13825099434
13825106514
13825114632
13825122078
13825132454
13825139656
13825147774
13825154487
13825163948
13825170601
13825178291
13825187202
13825195686
13825202278
13825207466
13825219246
13825224678
13825235664
13825240913
13825248298
13825254219
13825261360
13825264961
13825272163
13825278388
13825284736
13825290534
13825296272
13825302375
13825307685
13825313239
13825319892
13825324836
13825330879
13825335395
13825344489
13825351569
13825357307
13825363898
13825368293
13825375434
13825382575
13825391181
13825397773
13825403022
13825409247
13825415595
13825421332
13825428046
13825434089
13825438727
13825444831
13825449531
13825456550
13825462409
13825466620
13825471686
13825478278
13825483893
13825488105
13825493354
13825499152
13825502753
13825509955
13825515265
13825519294
13825522284
13825529059
13825532660
13825538275
13825543769
13825549628
13825553900
13825559088
13825562567
13825569953
13825573310
13825581061
13825585944
13825592902
13825597235
13825603949
13825609320
13825615546
13825621649
13825626837
13825630438
13825637152
13825642889
13825648810
13825654242
13825659857
13825664435
13825670050
13825674750
13825680548
13825686285
13825692511
13825698309
13825703009
13825709235
13825713385
13825719366
13825722784
13825729803
13825733710
13825740423
13825745428
13825751959
13825757513
13825762762
13825767340
13825773016
13825780218
13825786200
13825791082
13825797186
13825801336
13825806585
13825812750
13825818548
13825823309
13825829168
13825835211
13825837164
13825845098
13825849676
13825854498
13825859869
13825865850
13825871893
13825877386
13825881964
13825886602
13825891729
13825897466
13825903509
13825908331
13825913824
13825919866
13825925420
13825931951
13825936407
13825944097
13825953008
13825957525
13825967107
13825973089
13825979925
13825986333
13825992925
13825998418
13826004827
13826011602
13826016057
13826021001
13826025274
13826030462
13826035100
13826040532
13826045232
13826052373
13826056157
13826062200
13826066778
13826073674
13826079168
13826086919
13826093267
13826102605
13826108525
13826116277
13826123479
13826130559
13826138372
13826145757
13826151982
13826161077
13826167302
13826175725
13826181829
13826189885
13826197453
13826205388
13826211736
13826219182
13826227300
13826233891
13826241643
13826250615
13826257390
13826263310
13826272832
13826282231
13826289311
13826295354
13826304387
13826310368
13826318669
13826324101
13826329289
13826339177
13826347661
13826356022
13826363286
13826369328
13826376713
13826383854
13826389714
13826397709
13826405400
13826413151
13826420475
13826426274
13826435002
13826441349
13826448796
13826455509
13826464298
13826473942
13826478520
13826487309
13826494328
13826503666
13826510563
13826517582
13826529606
13826536259
13826542728
13826550175
13826558659
13826566105
13826571964
13826579166
13826587406
13826595951
13826602665
13826615482
13826622074
13826631962
13826642154
13826651432
13826660892
13826668888
13826680179
13826689029
13826697818
13826703067
13826715702
13826721683
13826730106
13826738163
13826746158
13826751956
13826760868
13826766666
13826776309
13826782962
13826790714
13826799075
13826807010
13826813724
13826821658
13826829532
13826836124
13826844852
13826850894
13826860782
13826867068
13826875186
13826881412
13826889896
13826899722
13826906802
13826913089
13826922549
13826929690
13826936954
13826945315
13826952578
13826959903
13826967654
13826974185
13826981326
13826987307
13826996890
13827003299
13827010623
13827017154
13827025576
13827032229
13827039553
13827046267
13827054751
13827062136
13827070681
13827080325
13827089968
13827097659
13827106753
13827112246
13827120181
13827126894
13827135073
13827144228
13827150820
13827158083
13827165591
13827172549
13827180727
13827188540
13827197268
13827203005
13827212771
13827220949
13827228029
13827233095
13827242617
13827250979
13827257204
13827264467
13827272463
13827279543
13827286928
13827294497
13827304873
13827315187
13827323854
13827332827
13827340090
13827351503
13827356752
13827367311
13827375429
13827382814
13827391725
13827399599
13827409059
13827419740
13827427675
13827437196
13827445192
13827454164
13827461305
13827465334
13827474000
13827480043
13827484865
13827488222
13827496767
13827501771
13827508546
13827515993
13827521364
13827525941
13827532960
13827536439
13827544435
13827551210
13827556764
13827561158
13827566896
13827570192
13827577699
13827581239
13827587831
13827593202
13827599366
13827605226
13827611756
13827615419
13827621888
13827625428
13827631837
13827637879
13827643373
13827650086
13827654603
13827658876
13827665040
13827670106
13827676942
13827682130
13827688294
13827693604
13827696961
13827704957
13827709901
13827714356
13827718202
13827727845
13827735108
13827741090
13827745667
13827752076
13827758240
13827763673
13827769410
13827776368
13827780946
13827789124
13827794434
13827801331
13827806458
13827811463
13827817261
13827823670
13827829651
13827836304
13827840882
13827845887
13827852967
13827858399
13827863404
13827869202
13827876954
13827880982
13827887513
13827892945
13827900330
13827905762
13827912110
13827916931
13827924134
13827929138
13827934204
13827941895
13827946411
13827953980
13827957825
13827965821
13827972107
13827977478
13827982910
13827989624
13827995361
13828001587
13828007813
13828015076
13828018738
13828027405
13828034424
13828041687
13828046753
13828052979
13828060303
13828068909
13828075439
13828081604
13828089355
13828094910
13828099792
13828105163
13828110596
13828114319
13828122803
13828126465
13828133545
13828137634
13828143310
13828148620
13828152466
13828157470
13828164062
13828171081
13828177002
13828181823
13828186340
13828192321
13828197876
13828203369
13828209167
13828213623
13828219055
13828224487
13828229309
13828236022
13828241882
13828246582
13828253234
13828258178
13828264709
13828270996
13828275512
13828282348
13828287597
13828294250
13828299743
13828305114
13828310546
13828317687
13828323180
13828328429
13828339965
13828346252
13828354858
13828363158
13828371154
13828379394
13828388061
13828396117
13828406188
13828414733
13828422729
13828430846
13828437560
13828444762
13828454589
13828462279
13828469725
13828478881
13828486205
13828492797
13828501403
13828510253
13828518370
13828524779
13828529601
13828541503
13828547667
13828556822
13828564940
13828574095
13828579772
13828589964
13828597472
13828604430
13828613707
13828619811
13828629637
13828637572
13828644164
13828651915
13828660521
13828666685
13828675474
13828683836
13828692503
13828697752
13828708494
13828718260
13828725523
13828733030
13828742674
13828750303
13828759092
13828766050
13828775877
13828783079
13828791014
13828797483
13828807127
13828816343
13828823179
13828832273
13828838926
13828845152
13828850828
13828860960
13828868955
13828875120
13828884458
13828890745
13828899046
13828906980
13828914182
13828921934
13828927610
13828936460
13828942136
13828950742
13828958311
13828965696
13828973814
13828980833
13828988279
13828995847
13829003293
13829009336
13829016050
13829024839
13829032041
13829041135
13829047788
13829055906
13829062619
13829069272
13829078061
13829083799
13829091977
13829100156
13829106748
13829112790
13829124814
13829131955
13829138974
13829147153
13829157590
13829164121
13829173154
13829181455
13829187924
13829195126
13829204160
13829211423
13829220029
13829229550
13829236508
13829243039
13829252377
13829258969
13829267941
13829276791
13829283017
13829293393
13829299740
13829308407
13829313534
13829324154
13829332638
13829340207
13829347470
13829354977
13829362851
13829372311
13829378842
13829388852
13829395321
13829403439
13829411984
13829420285
13829426571
13829437069
13829443661
13829452206
13829461056
13829467098
13829476315
13829481503
13829492733
13829501339
13829508297
13829516659
13829523983
13829531918
13829539669
13829548458
13829556026
13829565060
13829575497
13829583309
13829592708
13829600460
13829608883
13829616451
13829623531
13829633663
13829645199
13829650203
13829660274
13829665035
13829674312
13829681820
13829688900
13829696224
13829704952
13829712886
13829719783
13829726314
13829735225
13829741756
13829751094
13829759395
13829767940
13829772701
13829782405
13829790157
13829796748
13829802181
13829807002
13829812190
13829818294
13829823360
13829830684
13829836726
13829842403
13829847346
13829853084
13829861140
13829866695
13829871822
13829877742
13829882320
13829888240
13829894160
13829899409
13829904902
13829910274
13829915400
13829921321
13829925960
13829930415
13829934321
13829940364
13829946711
13829953059
13829957576
13829964717
13829968684
13829973872
13829978572
13829982417
13829990413
13829995356
13829999324
13830004634
13830008967
13830012019
13830020686
13830024165
13830031062
13830034785
13830041133
13830046137
13830051325
13830056025
13830061579
13830068415
13830072566
13830079463
13830085688
13830089839
13830095759
13830100642
13830106745
13830111018
13830114619
13830122370
13830126093
13830132136
13830136897
13830142817
13830148249
13830153925
13830158259
13830163813
13830169062
13830175410
13830181757
13830187678
13830192988
13830201533
13830207819
13830215510
13830222773
13830227961
13830234247
13830242731
13830246210
13830252314
13830257135
13830264643
13830271601
13830276606
13830282526
13830288935
13830295221
13830300165
13830304804
13830309137
13830313654
13830317682
13830321588
13830326959
13830331049
13830336542
13830341242
13830347040
13830352777
13830358270
13830362848
13830368524
13830374689
13830379816
13830383905
13830390436
13830396417
13830402826
13830407404
13830412714
13830418939
13830423761
13830429742
13830434320
13830438715
13830445245
13830449396
13830455377
13830460016
13830463617
13830469781
13830475580
13830480401
13830486261
13830490777
13830496332
13830501459
13830505182
13830511529
13830516900
13830521112
13830526117
13830532647
13830536432
13830543329
13830548272
13830553033
13830557489
13830564142
13830570306
13830575189
13830579522
13830584954
13830588983
13830594110
13830599664
13830605523
13830611016
13830619744
13830626031
13830631829
13830640191
13830648187
13830655450
13830662713
13830670342
13830679437
13830688165
13830695611
13830702874
13830709100
13830716363
13830722588
13830731194
13830738824
13830749871
13830756097
13830764580
13830772820
13830779656
13830789117
13830797539
13830806267
13830818108
13830826226
13830836602
13830847039
13830854302
13830866570
13830874321
13830885613
13830893059
13830902031
13830909966
13830917412
13830927056
13830935662
13830943901
13830951470
13830959221
13830968315
13830975762
13830985283
13830993523
13831001823
13831010185
13831016228
13831023125
13831029228
13831037895
13831043877
13831052849
13831061394
13831069267
13831075859
13831081352
13831090935
13831096550
13831105156
13831109489
13831122551
13831131279
13831137748
13831146782
13831153007
13831161125
13831166130
13831173088
13831181266
13831189323
13831198783
13831204338
13831212577
13831220329
13831226799
13831233207
13831242484
13831250907
13831259208
13831265861
13831274589
13831280570
13831289054
13831296073
13831303764
13831310966
13831319022
13831325309
13831333793
13831341483
13831348014
13831355704
13831361625
13831371818
13831380790
13831387382
13831392875
13831403739
13831409354
13831418693
13831424857
13831433768
13831441703
13831450309
13831454825
13831463736
13831470267
13831477958
13831484488
13831492972
13831500479
13831509146
13831516043
13831524222
13831532645
13831539176
13831545096
13831554068
13831561331
13831571890
13831578726
13831587882
13831594229
13831604910
13831612845
13831623404
13831631949
13831642203
13831650320
13831659231
13831669668
13831677176
13831685599
13831693167
13831702139
13831709219
13831716971
13831723257
13831732107
13831741079
13831747305
13831755606
13831763174
13831770071
13831776907
13831783377
13831792349
13831799795
13831808828
13831816519
13831825674
13831831899
13831840994
13831846243
13831856558
13831861990
13831873403
13831878408
13831889517
13831897939
13831905569
13831914297
13831922353
13831928457
13831939565
13831944814
13831954702
13831962575
13831970571
13831976247
13831985219
13831992116
13832001699
13832006826
13832012929
13832017812
13832024465
13832029226
13832034414
13832040273
13832047536
13832053029
13832057729
13832062978
13832069204
13832073720
13832079335
13832086049
13832091115
13832096608
13832103017
13832108083
13832114125
13832118642
13832124135
13832130361
13832133840
13832139882
13832145009
13832152028
13832157338
13832162587
13832167043
13832173085
13832179128
13832184010
13832190175
13832194630
13832201283
13832205129
13832211171
13832216176
13832222707
13832228139
13832235036
13832241444
13832246632
13832251088
13832258229
13832262929
13832269398
13832273976
13832278065
13832287282
13832291127
13832299794
13832304249
13832310902
13832316517
13832325123
13832328236
13832337819
13832346119
13832352223
13832356190
13832363453
13832366932
13832372914
13832377980
13832383168
13832388111
13832394032
13832399342
13832404896
13832410023
13832416920
13832421925
13832427357
13832433766
13832439259
13832446156
13832451161
13832457569
13832462696
13832467823
13832474354
13832479725
13832485035
13832491688
13832496815
13832501392
13832507618
13832512989
13832519398
13832525562
13832530750
13832535877
13832542957
13832548328
13832554310
13832560230
13832564564
13832571522
13832577076
13832582569
13832587757
13832595142
13832598987
13832605640
13832611744
13832618091
13832622974
13832627979
13832634754
13832641040
13832645984
13832651905
13832657032
13832663807
13832669666
13832675891
13832680652
13832686634
13832694202
13832699329
13832704151
13832709522
13832715930
13832723438
13832728504
13832732959
13832739734
13832745532
13832750842
13832756763
13832761768
13832768115
13832775440
13832781055
13832784778
13832792773
13832796741
13832802905
13832807605
13832815417
13832820544
13832827319
13832832873
13832839160
13832844165
13832849963
13832857104
13832863452
13832869128
13832876575
13832883044
13832889453
13832896899
13832905261
13832916552
13832923877
13832929431
13832941638
13832947070
13832961047
13832973620
13832981555
13832991442
13832998522
13833008471
13833017749
13833025317
13833033435
13833041247
13833047900
13833057421
13833063952
13833072314
13833080004
13833090319
13833098925
13833105151
13833113329
13833120776
13833128893
13833136278
13833147936
13833156420
13833164233
13833172350
13833178820
13833186144
13833195421
13833202685
13833211840
13833219469
13833229052
13833235704
13833245226
13833251757
13833260607
13833267321
13833272387
13833286364
13833293871
13833302599
13833308885
13833318041
13833326036
13833332323
13833339769
13833348192
13833356249
13833362230
13833369066
13833378771
13833385423
13833392992
13833399706
13833407823
13833414659
13833422227
13833431200
13833437364
13833446153
13833453233
13833461839
13833469652
13833478502
13833484788
13833493699
13833502000
13833508531
13833516771
13833525193
13833532396
13833540879
13833548509
13833558152
13833566392
13833574144
13833582383
13833589158
13833596177
13833606126
13833611558
13833622544
13833631150
13833639512
13833644334
13833653672
13833661485
13833670457
13833675340
13833685716
13833695481
13833703049
13833711228
13833720322
13833727830
13833740098
13833750169
13833756943
13833762742
13833776353
13833787644
13833793259
13833803696
13833813584
13833821030
13833831711
13833841050
13833846604
13833856308
13833861008
13833871262
13833879929
13833886826
13833894516
13833902878
13833910385
13833918625
13833925400
13833933029
13833942307
13833949143
13833958115
13833964096
13833972824
13833980698
13833986923
13833994797
13834002853
13834010239
13834017258
13834024643
13834030991
13834037765
13834046127
13834053818
13834061508
13834067428
13834077072
13834083053
13834091659
13834098190
13834107467
13834113327
13834121750
13834127670
13834135971
13834142379
13834150131
13834158432
13834163070
13834172164
13834179184
13834186691
13834193893
13834202438
13834212203
13834218612
13834225204
13834234664
13834243331
13834251754
13834258712
13834265426
13834275436
13834280563
13834291061
13834296371
13834305648
13834312911
13834321151
13834328048
13834338607
13834345504
13834354232
13834360702
13834365218
13834373092
13834378951
13834383712
13834390792
13834396285
13834401168
13834406722
13834411544
13834418685
13834423568
13834428695
13834433394
13834439986
13834446090
13834448104
13834456099
13834459395
13834466903
13834471053
13834477217
13834482589
13834488692
13834494002
13834499617
13834507552
13834512984
13834517623
13834524092
13834531233
13834537093
13834543440
13834548018
13834555769
13834559798
13834569014
13834575545
13834581343
13834586714
13834590743
13834594893
13834601057
13834606184
13834610762
13834615767
13834621443
13834627241
13834632429
13834636519
13834642500
13834647261
13834654585
13834658980
13834665083
13834672713
13834680830
13834686323
13834693342
13834698103
13834704451
13834710432
13834715071
13834723921
13834729719
13834733320
13834740278
13834746321
13834755659
13834760969
13834768415
13834773725
13834780012
13834793379
13834798933
13834809431
13834815962
13834821760
13834828474
13834833723
13834840376
13834844038
13834852339
13834857771
13834863203
13834869367
13834874616
13834879438
13834884687
13834889692
13834893781
13834899335
13834903852
13834908063
13834913557
13834917585
13834922529
13834927228
13834932966
13834938337
13834944501
13834948835
13834952558
13834957380
13834962690
13834967756
13834974653
13834981489
13834987775
13834991865
13834997602
13835001813
13835006879
13835014509
13835019758
13835024518
13835030988
13835036542
13835042096
13835049665
13835056501
13835064008
13835070844
13835076520
13835083783
13835093976
13835099347
13835107282
13835112287
13835117169
13835121930
13835126447
13835131268
13835135541
13835140973
13835145429
13835149701
13835155682
13835163190
13835171307
13835176801
13835183637
13835189618
13835197614
13835204022
13835211835
13835216656
13835224957
13835231427
13835238690
13835246747
13835252484
13835259991
13835267865
13835279034
13835287152
13835293255
13835301922
13835310467
13835319073
13835327191
13835334088
13835344036
13835349286
13835358563
13835366680
13835373333
13835383404
13835392376
13835398541
13835407879
13835415325
13835425396
13835433819
13835441387
13835449810
13835456097
13835463909
13835473064
13835479900
13835487225
13835496685
13835506451
13835516399
13835525005
13835533672
13835542461
13835551555
13835561077
13835569439
13835576580
13835583660
13835591472
13835599834
13835607708
13835614788
13835624920
13835634014
13835640483
13835651836
13835660320
13835668315
13835675090
13835684124
13835695842
13835707988
13835718181
13835728496
13835737529
13835747661
13835754131
13835764751
13835773967
13835783122
13835792400
13835799785
13835808086
13835817241
13835827067
13835834514
13835843059
13835849895
13835855815
13835862590
13835868693
13835876262
13835883525
13835893413
13835901225
13835907939
13835918559
13835924846
13835935160
13835940837
13835950358
13835957682
13835965556
13835972148
13835977946
13835992289
13835999980
13836006327
13836012980
13836021708
13836029460
13836036112
13836040812
13836051676
13836059245
13836065287
13836070048
13836079081
13836086893
13836092204
13836097147
13836107279
13836115214
13836121561
13836127787
13836136698
13836141581
13836151835
13836158976
13836168070
13836176737
13836183878
13836191080
13836199076
13836206400
13836214029
13836220377
13836229837
13836237345
13836244242
13836252481
13836260172
13836267069
13836275797
13836281961
13836289896
13836298258
13836303751
13836313761
13836318765
13836328653
13836335977
13836342081
13836351907
13836358621
13836368204
13836374735
13836383157
13836390298
13836399026
13836405069
13836413248
13836418558
13836429849
13836436014
13836447916
13836456949
13836462442
13836466409
13836475076
13836478555
13836489053
13836494973
13836501748
13836507303
13836512002
13836518411
13836523477
13836528848
13836534402
13836539590
13836544290
13836550576
13836555215
13836560830
13836565591
13836570840
13836577188
13836583291
13836586404
13836592629
13836597146
13836602578
13836607583
13836613198
13836619363
13836626138
13836631143
13836637124
13836642190
13836647073
13836652139
13836658364
13836663430
13836668862
13836673867
13836679726
13836684975
13836690591
13836695657
13836701577
13836709450
13836714822
13836719704
13836725991
13836730996
13836736306
13836741128
13836747780
13836752724
13836758462
13836763405
13836770058
13836775551
13836781045
13836785988
13836791726
13836796975
13836803505
13836808571
13836814858
13836820595
13836824868
13836831704
13836835244
13836841286
13836846657
13836853432
13836858742
13836863991
13836868508
13836875222
13836879799
13836885842
13836892555
13836897866
13836904152
13836908913
13836915810
13836921303
13836925820
13836931252
13836936684
13836944008
13836949623
13836954567
13836959572
13836965431
13836970009
13836976051
13836982582
13836987160
13836994301
13836998817
13837004616
13837009804
13837014931
13837023659
13837029701
13837035805
13837045692
13837051857
13837057716
13837063637
13837070961
13837077125
13837081093
13837087318
13837093361
13837098671
13837102577
13837107704
13837113197
13837119606
13837122657
13837129554
13837136695
13837142677
13837148536
13837153724
13837158912
13837165382
13837170570
13837175453
13837180213
13837185218
13837189979
13837196632
13837201576
13837206214
13837212196
13837217018
13837222511
13837229957
13837234290
13837241676
13837246436
13837252174
13837257850
13837262000
13837268470
13837272193
13837279517
13837285072
13837290382
13837295936
13837301246
13837308692
13837317542
13837325233
13837334876
13837341712
13837350989
13837358130
13837366553
13837373755
13837382605
13837389747
13837398108
13837406226
13837413672
13837422828
13837430152
13837438697
13837445288
13837454077
13837462744
13837469397
13837478308
13837484351
13837493933
13837499243
13837509986
13837518164
13837526831
13837532935
13837542822
13837550025
13837556860
13837566199
13837574133
13837580481
13837589819
13837599402
13837610266
13837617590
13837627173
13837634558
13837644324
13837651831
13837659826
13837670141
13837678686
13837687048
13837694616
13837702368
13837711096
13837718054
13837726110
13837736242
13837746008
13837755590
13837765844
13837773901
13837782141
13837792700
13837803991
13837812963
13837822119
13837830969
13837838781
13837846349
13837857031
13837865270
13837872961
13837880163
13837887853
13837893224
13837900426
13837907384
13837912328
13837922094
13837932104
13837939367
13837947606
13837956701
13837964879
13837971776
13837979711
13837987462
13837996434
13838003331
13838012670
13838017308
13838026647
13838033178
13838041722
13838049291
13838057164
13838063878
13838073766
13838081273
13838089757
13838096166
13838104161
13838110997
13838119481
13838127904
13838136205
13838142613
13838151158
13838157262
13838166661
13838175755
13838183324
13838189244
13838196019
13838204198
13838209813
13838219273
13838226536
13838235448
13838242772
13838248631
13838254307
13838262730
13838267491
13838278660
13838284459
13838293614
13838301426
13838309117
13838317112
13838325718
13838332798
13838339451
13838348851
13838355442
13838365757
13838374363
13838380711
13838388035
13838396397
13838404515
13838411289
13838419590
13838426853
13838435642
13838442051
13838449253
13838458958
13838464268
13838472813
13838479221
13838488804
13838495823
13838503941
13838510288
13838516514
13838527439
13838538181
13838546299
13838556431
13838568882
13838577121
13838586399
13838597568
13838609958
13838618381
13838626194
13838634555
13838639377
13838648288
13838655551
13838662204
13838667453
13838677036
13838685092
13838692356
13838698825
13838708713
13838713779
13838723911
13838730258
13838737766
13838744235
13838750278
13838755405
13838761508
13838765903
13838770663
13838775058
13838780124
13838787265
13838793124
13838797946
13838802707
13838807956
13838812472
13838816806
13838819736
13838828769
13838832736
13838838534
13838841586
13838849154
13838852450
13838857638
13838862521
13838869723
13838877658
13838883090
13838888766
13838892489
13838896762
13838902804
13838907199
13838912875
13838918979
13838923190
13838928500
13838934787
13838939120
13838945224
13838950900
13838955844
13838960238
13838966037
13838972262
13838977694
13838983737
13838988375
13838994296
13838999728
13839006075
13839011996
13839016818
13839024386
13839030795
13839036227
13839042391
13839047823
13839053439
13839060763
13839066195
13839072665
13839077486
13839083285
13839089510
13839094088
13839101595
13839106112
13839114474
13839119906
13839124789
13839129549
13839135348
13839139864
13839145540
13839151034
13839157747
13839165621
13839172823
13839178866
13839184969
13839190035
13839197298
13839204866
13839211336
13839215670
13839223055
13839228853
13839234224
13839239595
13839243624
13839248751
13839254915
13839260530
13839265047
13839269808
13839276888
13839280855
13839287020
13839292940
13839298982
13839304598
13839309786
13839314790
13839320772
13839326143
13839332002
13839337679
13839343233
13839348055
13839354219
13839359224
13839365144
13839370760
13839376009
13839381380
13839386385
13839391206
13839397127
13839404024
13839408357
13839413362
13839419466
13839427705
13839432771
13839437837
13839441194
13839449983
13839453584
13839460908
13839466646
13839471589
13839477571
13839482820
13839488679
13839494600
13839499116
13839505952
13839510408
13839516450
13839522798
13839527192
13839533601
13839537202
13839544465
13839549348
13839554597
13839561494
13839566438
13839571870
13839578279
13839585053
13839591035
13839597688
13839603303
13839615693
13839621247
13839631196
13839639130
13839648896
13839655915
13839664643
13839672150
13839678742
13839688447
13839697968
13839706269
13839715058
13839722871
13839730439
13839738923
13839746308
13839753876
13839760468
13839766816
13839776886
13839783051
13839793000
13839798127
13839807892
13839815094
13839827668
13839832795
13839846283
13839853241
13839864838
13839870697
13839883209
13839888519
13839900665
13839905731
13839918610
13839927399
13839934601
13839942169
13839954254
13839964264
13839973968
13839981354
13839990509
13839997955
13840008087
13840015106
13840024261
13840031158
13840040069
13840047333
13840056244
13840063202
13840073700
13840080108
13840088287
13840097015
13840105316
13840114471
13840121734
13840131134
13840139190
13840145660
13840154510
13840162811
13840171600
13840177581
13840185943
13840194183
13840200286
13840208221
13840216277
13840224090
13840229583
13840238433
13840246368
13840252532
13840260711
13840269256
13840273894
13840283599
13840290191
13840299468
13840306853
13840315215
13840323577
13840332122
13840336761
13840345977
13840352569
13840361846
13840369475
13840375823
13840382842
13840392058
13840398650
13840405791
13840414214
13840421538
13840427459
13840436980
13840444609
13840451445
13840460112
13840467681
13840473662
13840482634
13840488494
13840497283
13840503569
13840511687
13840519743
13840526762
13840534636
13840540312
13840550261
13840556120
13840565337
13840573637
13840581572
13840591948
13840598601
13840607146
13840616423
13840625395
13840631743
13840642058
13840652006
13840660063
13840667265
13840686369
13840703032
13840722563
13840733915
13840745146
13840754850
13840764128
13840774931
13840787382
13840797392
13840805021
13840812895
13840819303
13840826078
13840833158
13840840910
13840848539
13840855009
13840862089
13840867826
13840874601
13840881376
13840890958
13840898649
13840906522
13840913053
13840920560
13840927030
13840932401
13840939786
13840947721
13840954557
13840960233
13840968595
13840972806
13840981229
13840988248
13840996366
13841004239
13841012479
13841018338
13841024564
13841033048
13841039945
13841046292
13841052640
13841056974
13841063748
13841068570
13841074857
13841077420
13841086514
13841093839
13841110135
13841115445
13841122769
13841128018
13841134122
13841141202
13841146024
13841149808
13841155606
13841160489
13841165433
13841172025
13841178372
13841183377
13841189786
13841195096
13841199856
13841204983
13841212857
13841217740
13841223965
13841229397
13841233975
13841238614
13841246853
13841251431
13841258511
13841262723
13841270718
13841276455
13841282681
13841287869
13841295071
13841301785
13841311001
13841317227
13841326504
13841332669
13841338772
13841344143
13841351467
13841358914
13841366543
13841372158
13841377590
13841382900
13841389553
13841394924
13841400295
13841405300
13841411343
13841418118
13841423122
13841427456
13841432766
13841438931
13841444119
13841450161
13841454678
13841460415
13841464443
13841471157
13841476345
13841481350
13841486538
13841492580
13841498135
13841505947
13841509670
13841515896
13841522060
13841528652
13841533962
13841539638
13841545254
13841551540
13841558071
13841563991
13841568874
13841576198
13841581142
13841587001
13841592312
13841596340
13841605190
13841611721
13841618312
13841623561
13841628505
13841633144
13841639553
13841645046
13841651210
13841657741
13841663539
13841669460
13841673000
13841682460
13841686366
13841694362
13841698390
13841704555
13841709987
13841716579
13841722926
13841727199
13841731838
13841738673
13841744777
13841752345
13841758144
13841764125
13841769801
13841776454
13841781398
13841787746
13841792445
13841799159
13841804042
13841808436
13841817287
13841822658
13841828578
13841833766
13841841029
13841844874
13841851771
13841858485
13841864711
13841868617
13841876857
13841880946
13841887843
13841891810
13841898951
13841905421
13841915919
13841924342
13841932826
13841939845
13841949427
13841956935
13841965785
13841975489
13841982508
13841992884
13842000575
13842007044
13842014369
13842023219
13842032008
13842038538
13842046351
13842054652
13842062830
13842070887
13842078516
13842086817
13842093043
13842100428
13842107935
13842114100
13842122828
13842129175
13842138148
13842144373
13842152125
13842159815
13842167261
13842173182
13842181055
13842187525
13842198694
13842204859
13842214746
13842221521
13842229029
13842238733
13842244654
13842252588
13842262964
13842271143
13842278223
13842287805
13842292505
13842302026
13842310388
13842318994
13842328211
13842335291
13842344324
13842351221
13842359460
13842369165
13842375696
13842384302
13842393030
13842400903
13842408472
13842416955
13842425073
13842433740
13842442407
13842450525
13842458154
13842466028
13842474023
13842482019
13842488794
13842496179
13842504296
13842512902
13842520166
13842526574
13842533715
13842544763
13842551721
13842559411
13842568078
13842574304
13842582726
13842590234
13842598290
13842606713
13842615502
13842622033
13842630151
13842639367
13842645959
13842654565
13842661523
13842675500
13842680443
13842689294
13842696679
13842704980
13842713647
13842723717
13842731774
13842740258
13842747399
13842755578
13842762719
13842769127
13842777550
13842785729
13842793541
13842799523
13842809777
13842816124
13842823143
13842831505
13842838341
13842847618
13842855858
13842863060
13842873802
13842879479
13842888268
13842895592
13842905602
13842914147
13842920921
13842930016
13842938255
13842945702
13842953514
13842962608
13842970726
13842979393
13842986534
13842993919
13843003013
13843010399
13843019127
13843026085
13843033165
13843042076
13843049522
13843057640
13843063865
13843071190
13843080284
13843088218
13843097862
13843103416
13843110984
13843117027
13843125633
13843132347
13843141014
13843148216
13843158836
13843166404
13843175681
13843182334
13843192222
13843200767
13843209007
13843215965
13843224754
13843230857
13843237327
13843242820
13843248801
13843254356
13843259360
13843264915
13843271506
13843277305
13843282127
13843289512
13843295920
13843299399
13843305320
13843313926
13843320762
13843331809
13843342429
13843351951
13843360129
13843370200
13843377219
13843385459
13843392295
13843399863
13843409018
13843418357
13843428122
13843435813
13843444541
13843451377
13843461508
13843471335
13843479209
13843485983
13843493613
13843501914
13843509970
13843518027
13843526694
13843534628
13843541647
13843550742
13843558249
13843566305
13843578085
13843586813
13843593405
13843602499
13843610373
13843619162
13843627585
13843634848
13843643088
13843649862
13843659140
13843666342
13843675924
13843683249
13843692221
13843700460
13843708883
13843716818
13843722921
13843731771
13843740194
13843748190
13843755514
13843763326
13843770590
13843780233
13843787374
13843795553
13843802633
13843812216
13843820211
13843827657
13843836019
13843844137
13843853048
13843860921
13843869710
13843877523
13843886190
13843895040
13843901388
13843910360
13843918355
13843924703
13843933065
13843941366
13843952291
13843961141
13843970784
13843977315
13843986531
13843994466
13844003926
13844012532
13844018636
13844028279
13844034200
13844042928
13844048665
13844057393
13844065633
13844073689
13844081136
13844091145
13844098287
13844110005
13844120381
13844133748
13844143330
13844176411
13844187031
13844197468
13844207417
13844217061
13844227437
13844236653
13844245198
13844254536
13844264180
13844272358
13844280659
13844290059
13844297871
13844308064
13844317829
13844327351
13844365071
13844374714
13844382771
13844397541
13844408711
13844419880
13844428547
13844439289
13844450764
13844459370
13844473957
13844484821
13844495869
13844506733
13844512897
13844525043
13844538288
13844548542
13844557819
13844567157
13844585224
13844598529
13844608600
13844618854
13844629596
13844638507
13844649860
13844656024
13844670246
13844680499
13844695087
13844708514
13844719440
13844729388
13844740375
13844747699
13844754657
13844759174
13844767596
13844774066
13844781146
13844787860
13844794574
13844801959
13844809772
13844815814
13844821979
13844830157
13844836688
13844847186
13844855426
13844861224
13844870013
13844876117
13844885882
13844892535
13844900164
13844909747
13844918292
13844926654
13844935015
13844943438
13844952166
13844959857
13844966693
13844976458
13844984271
13844991961
13844999896
13845008563
13845017779
13845025713
13845035235
13845045245
13845052874
13845062212
13845069598
13845078631
13845085894
13845095843
13845104265
13845111956
13845121660
13845129778
13845138567
13845146563
13845154986
13845162432
13845170488
13845177446
13845183489
13845190569
13845196184
13845204485
13845210588
13845218462
13845226396
13845234758
13845241411
13845248979
13845255083
13845264543
13845269609
13845278337
13845285845
13845295793
13845303484
13845312090
13845321977
13845337480
13845355119
13845363725
13845370500
13845379472
13845386430
13845394731
13845402360
13845409868
13845416215
13845423967
13845433671
13845440629
13845450334
13845457841
13845467118
13845475785
13845483720
13845491410
13845500688
13845508439
13845516740
13845523088
13845531999
13845538896
13845549577
13845559953
13845568253
13845578385
13845585587
13845598466
13845606095
13845616105
13845625871
13845634782
13845644120
13845654923
13845663529
13845672196
13845679825
13845691056
13845701066
13845709122
13845716935
13845727372
13845737504
13845743607
13845756119
13845762650
13845774918
13845783890
13845792862
13845801163
13845813980
13845821671
13845831803
13845852188
13845859818
13845871964
13845879898
13845891129
13845898758
13845908402
13845918106
13845923172
13845930008
13845935684
13845941299
13845946915
13845953323
13845958816
13845965286
13845971756
13845976639
13845981888
13845989944
13845995804
13846000320
13846006424
13846012344
13846017776
13846024246
13846030533
13846036331
13846042007
13846048538
13846056045
13846061844
13846068374
13846072952
13846079239
13846086563
13846093338
13846098465
13846105728
13846110427
13846117568
13846121841
13846129898
13846136245
13846141189
13846148330
13846154495
13846159683
13846166824
13846171462
13846179031
13846185012
13846191238
13846197768
13846203872
13846209914
13846219436
13846225234
13846232925
13846241225
13846248366
13846256423
13846262954
13846271560
13846279372
13846285964
13846293899
13846302138
13846307570
13846315444
13846323501
13846330336
13846337417
13846343642
13846349685
13846357070
13846363723
13846372573
13846377394
13846386245
13846394179
13846402114
13846407424
13846416579
13846425490
13846432204
13846439833
13846447402
13846454604
13846460524
13846466811
13846474196
13846481581
13846488234
13846494582
13846499464
13846505019
13846512770
13846517897
13846526930
13846533461
13846542006
13846549635
13846555739
13846561293
13846566481
13846574904
13846580946
13846586622
13846594435
13846600905
13846606093
13846611647
13846616774
13846624586
13846629286
13846634352
13846641127
13846645582
13846652906
13846656874
13846664686
13846669020
13846676588
13846680494
13846687269
13846693495
13846699110
13846703810
13846709974
13846715162
13846722303
13846727003
13846733290
13846739271
13846742872
13846750929
13846754713
13846760999
13846768629
13846773451
13846778761
13846785352
13846790174
13846796949
13846802320
13846808118
13846813001
13846819593
13846825391
13846831129
13846836317
13846842237
13846849439
13846853590
13846860242
13846864942
13846871290
13846876111
13846886121
13846895337
13846898084
13846910474
13846918226
13846925184
13846930372
13846941297
13846946363
13846955518
13846964551
13846971082
13846977430
13846986402
13846993055
13847002271
13847008679
13847014844
13847025586
13847033948
13847040357
13847048902
13847055921
13847063855
13847071607
13847080029
13847085767
13847094128
13847101819
13847108594
13847118054
13847124402
13847133557
13847140759
13847146741
13847156872
13847162732
13847170483
13847178906
13847186169
13847193555
13847202099
13847209546
13847218274
13847226452
13847235608
13847242993
13847248852
13847258068
13847266003
13847272412
13847277661
13847289807
13847295239
13847304638
13847311962
13847321728
13847329052
13847337292
13847343884
13847353283
13847359997
13847370007
13847376721
13847385388
13847393993
13847400707
13847409191
13847417431
13847425671
13847434704
13847443249
13847450878
13847457836
13847467235
13847475048
13847481945
13847491527
13847498180
13847507702
13847514293
13847520946
13847531444
13847536388
13847546703
13847555492
13847564098
13847573131
13847580822
13847588146
13847596019
13847603099
13847611705
13847620494
13847627147
13847636608
13847645580
13847652233
13847661022
13847667247
13847675609
13847683727
13847690929
13847700084
13847707347
13847716563
13847723949
13847732127
13847738719
13847747630
13847756419
13847762645
13847772166
13847781077
13847789866
13847796641
13847805919
13847811107
13847820262
13847827464
13847837108
13847844676
13847852671
13847859324
13847868235
13847877147
13847883921
13847892649
13847901622
13847908580
13847917308
13847925364
13847932810
13847940806
13847948008
13847958323
13847965769
13847974070
13847980784
13847990427
13847998850
13848011790
13848020090
13848029917
13848039866
13848048167
13848058115
13848066050
13848073069
13848081064
13848088755
13848096934
13848103953
13848112803
13848121592
13848129709
13848136118
13848144419
13848153879
13848161509
13848168528
13848176706
13848183969
13848191416
13848199778
13848204904
13848212290
13848221018
13848226999
13848234567
13848242441
13848250742
13848257334
13848264292
13848272775
13848279672
13848287912
13848294321
13848303232
13848309824
13848317270
13848324228
13848332284
13848339487
13848346628
13848352426
13848360605
13848367685
13848377572
13848384469
13848389779
13848395578
13848400216
13848404855
13848410959
13848416330
13848422799
13848427926
13848434701
13848439706
13848446298
13848451242
13848457833
13848464547
13848470346
13848475106
13848481942
13848486337
13848492501
13848496774
13848501962
13848508615
13848514718
13848519662
13848525582
13848531075
13848535592
13848541207
13848545907
13848552072
13848557443
13848562142
13848568368
13848573800
13848577950
13848585458
13848591500
13848596627
13848600411
13848608529
13848612923
13848618783
13848625191
13848630318
13848633981
13848641061
13848644662
13848651253
13848657723
13848663399
13848667123
13848675301
13848679268
13848688790
13848693551
13848700081
13848704842
13848711678
13848716927
13848721810
13848729866
13848735360
13848742623
13848749581
13848754952
13848763558
13848770333
13848776253
13848782235
13848788521
13848797432
13848803170
13848810433
13848815499
13848819893
13848826790
13848831307
13848835701
13848843880
13848848213
13848855171
13848859017
13848867195
13848871040
13848877571
13848883553
13848889778
13848895699
13848901985
13848907417
13848914375
13848921211
13848926521
13848933418
13848938606
13848945015
13848949715
13848956428
13848960274
13848968757
13848974861
13848980964
13848984566
13848990974
13848998543
13849004463
13849009407
13849015022
13849021919
13849026863
13849033271
13849037544
13849045906
13849052253
13849057624
13849063179
13849071846
13849077583
13849083931
13849089851
13849095344
13849103462
13849108955
13849114387
13849118904
13849126167
13849130195
13849139106
13849142951
13849149787
13849156135
13849163520
13849169624
13849175300
13849182075
13849187934
13849192939
13849199409
13849206123
13849212470
13849217780
13849224494
13849229499
13849235602
13849241035
13849246589
13849254157
13849260932
13849268745
13849275092
13849281440
13849285651
13849296210
13849303595
13849310737
13849317817
13849329169
13849336066
13849346930
13849352118
13849362128
13849370673
13849378913
13849386603
13849396491
13849405280
13849414008
13849422248
13849431464
13849438056
13849449469
13849456122
13849466925
13849477423
13849484686
13849495001
13849502936
13849513739
13849521246
13849529852
13849536993
13849546698
13849554083
13849562811
13849569464
13849578314
13849588080
13849594977
13849603705
13849611212
13849620611
13849627569
13849636725
13849644720
13849652411
13849661383
13849667547
13849674749
13849682867
13849689764
13849696112
13849704901
13849712957
13849722051
13849729376
13849735235
13849744207
13849751104
13849757940
13849767034
13849775518
13849782537
13849789434
13849798956
13849805669
13849813604
13849820379
13849829473
13849837713
13849845769
13849852483
13849862127
13849870122
13849877263
13849886175
13849893682
13849901189
13849910405
13849917363
13849926336
13849933110
13849940496
13849946538
13849955571
13849962712
13849973333
13849979863
13849988164
13849994145
13850002385
13850010686
13850019109
13850025762
13850034978
13850043828
13850051335
13850059453
13850066289
13850074223
13850079961
13850089665
13850100346
13850108830
13850115849
13850123601
13850130437
13850138371
13850146123
13850153386
13850163029
13850171330
13850178227
13850186528
13850192204
13850201298
13850206486
13850217595
13850226384
13850234929
13850242619
13850249150
13850255986
13850267643
13850274479
13850287663
13850300968
13850313542
13850320500
13850333439
13850339298
13850349064
13850357121
13850365421
13850371037
13850381229
13850389347
13850394901
13850403873
13850410892
13850417057
13850425724
13850433170
13850440617
13850449345
13850457157
13850463566
13850472416
13850478580
13850486454
13850494510
13850499454
13850510929
13850515629
13850524601
13850531437
13850539676
13850546390
13850555118
13850563785
13850572330
13850579532
13850587894
13850597232
13850604984
13850612613
13850622196
13850630985
13850641605
13850646488
13850654849
13850662723
13850671512
13850678348
13850686649
13850693912
13850703494
13850710757
13850719913
13850726993
13850735965
13850743777
13850755435
13850762393
13850767764
13850773501
13850780826
13850787112
13850792849
13850799136
13850806460
13850811038
13850816287
13850819705
13850827273
13850831424
13850837039
13850840640
13850847598
13850855105
13850859683
13850865664
13850870181
13850873782
13850880007
13850883609
13850892703
13850897280
13850903567
13850907534
13850915652
13850919558
13850927859
13850934451
13850940310
13850945498
13850955019
13850961001
13850966067
13850970950
13850979433
13850985537
13850992007
13850999453
13851004641
13851009219
13851016543
13851023012
13851028445
13851036074
13851042422
13851047854
13851054812
13851059939
13851063845
13851072146
13851078737
13851084109
13851089541
13851097414
13851103457
13851109377
13851114321
13851120607
13851125979
13851130983
13851135439
13851142214
13851148012
13851156252
13851161379
13851165529
13851172365
13851175722
13851184145
13851194277
13851200868
13851207033
13851213747
13851218874
13851225343
13851230776
13851235170
13851241640
13851246279
13851253969
13851258913
13851264833
13851270143
13851280885
13851285402
13851291017
13851298952
13851304628
13851311037
13851315736
13851323244
13851328737
13851333436
13851340456
13851345399
13851351747
13851358644
13851364503
13851369508
13851375368
13851380006
13851386415
13851391725
13851400270
13851405153
13851412416
13851417421
13851424134
13851428407
13851434877
13851442262
13851447389
13851453798
13851459718
13851466127
13851472230
13851476747
13851483155
13851488160
13851496217
13851502381
13851507691
13851513917
13851520265
13851524903
13851528565
13851538148
13851540955
13851549867
13851555421
13851560853
13851562623
13851570618
13851573853
13851582032
13851588441
13851595643
13851603028
13851610657
13851616090
13851621583
13851627076
13851635194
13851641236
13851649232
13851658448
13851665650
13851673218
13851681763
13851686646
13851696534
13851704651
13851712708
13851720704
13851727784
13851735108
13851742615
13851750916
13851758545
13851763245
13851772583
13851777222
13851785401
13851792053
13851801148
13851809754
13851816223
13851823364
13851831543
13851839050
13851848328
13851855530
13851864197
13851872498
13851880310
13851887512
13851895569
13851902161
13851911499
13851917786
13851926758
13851933288
13851941894
13851948242
13851956604
13851964905
13851972778
13851979309
13851988159
13851995483
13852005127
13852011718
13852016845
13852027038
13852032043
13852042663
13852047729
13852057128
13852065307
13852075317
13852080444
13852090942
13852096496
13852106323
13852111450
13852119689
13852127136
13852135681
13852143371
13852152343
13852158874
13852167785
13852174133
13852183471
13852191344
13852200500
13852207763
13852216430
13852226073
13852232665
13852241637
13852249450
13852257506
13852263793
13852274779
13852281432
13852289916
13852297118
13852305846
13852312438
13852324279
13852331969
13852338439
13852343383
13852355834
13852364867
13852372008
13852381102
13852388365
13852394042
13852406127
13852411376
13852421629
13852429991
13852436766
13852445616
13852455809
13852463561
13852472411
13852479918
13852489073
13852497496
13852504027
13852509581
13852520140
13852528685
13852535155
13852544127
13852551207
13852559202
13852565611
13852573607
13852581419
13852589781
13852599058
13852604612
13852614805
13852619993
13852628843
13852636106
13852643675
13852652525
13852662168
13852669676
13852678221
13852685301
13852693357
13852701292
13852709165
13852716734
13852725706
13852733457
13852742429
13852749448
13852757810
13852764890
13852772031
13852782529
13852789610
13852796934
13852806089
13852813291
13852820310
13852826902
13852838193
13852845518
13852854001
13852861265
13852868955
13852877317
13852884214
13852892453
13852899473
13852908139
13852915464
13852924680
13852931211
13852940183
13852945310
13852955503
13852960630
13852970822
13852976071
13852986692
13852995358
13853004087
13853009336
13853019101
13853027280
13853036740
13853044614
13853050961
13853059018
13853067441
13853075009
13853079526
13853085568
13853090573
13853097226
13853104306
13853121213
13853131650
13853139767
13853144101
13853151303
13853158139
13853165219
13853171750
13853178402
13853181698
13853191220
13853198910
13853204159
13853208920
13853213742
13853219052
13853223141
13853230038
13853236569
13853240353
13853246090
13853251217
13853255978
13853262814
13853268612
13853273739
13853278439
13853285214
13853289791
13853295346
13853299801
13853305355
13853309872
13853315914
13853320797
13853326656
13853331600
13853337399
13853341854
13853347408
13853351986
13853358090
13853362850
13853369320
13853374508
13853379574
13853384457
13853390255
13853395138
13853402767
13853408382
13853414791
13853419735
13853425777
13853430782
13853437191
13853442074
13853449398
13853454647
13853460140
13853466610
13853472713
13853477718
13853483883
13853488826
13853494503
13853500179
13853506893
13853511409
13853518245
13853522701
13853530147
13853534725
13853540462
13853547847
13853553524
13853560054
13853566097
13853573238
13853580318
13853586360
13853593563
13853600398
13853606563
13853612361
13853618953
13853625850
13853631709
13853636592
13853642757
13853649165
13853653011
13853662044
13853666866
13853674800
13853681087
13853685847
13853692012
13853696468
13853702998
13853710200
13853718013
13853724483
13853730830
13853737910
13853746699
13853752437
13853757869
13853765315
13853770137
13853777339
13853783137
13853787471
13853793086
13853797542
13853804194
13853808711
13853814998
13853820247
13853824824
13853832820
13853837336
13853841853
13853847712
13853852107
13853858332
13853863459
13853868647
13853874140
13853881892
13853887690
13853892268
13853897273
13853903132
13853908015
13853916926
13853924494
13853932490
13853939204
13853948176
13853954646
13853962702
13853969477
13853978022
13853988093
13853996577
13854001459
13854011652
13854018427
13854026423
13854033076
13854041254
13854049372
13854058405
13854065058
13854072565
13854081537
13854089411
13854096430
13854104364
13854115412
13854125116
13854134027
13854148127
13854156977
13854170282
13854179315
13854191522
13854203607
13854215997
13854225458
13854238275
13854244257
13854253534
13854259760
13854268732
13854275079
13854283624
13854289178
13854296686
13854304071
13854311700
13854319147
13854326349
13854334222
13854341607
13854349298
13854356195
13854364007
13854371576
13854377191
13854385614
13854395196
13854403009
13854408929
13854418267
13854424615
13854432367
13854437921
13854446160
13854456170
13854463616
13854469293
13854478997
13854485650
13854493035
13854501275
13854508660
13854516473
13854525506
13854532220
13854539971
13854548150
13854554803
13854562798
13854569451
13854575433
13854583367
13854591241
13854598260
13854603936
13854611687
13854619683
13854625909
13854634637
13854642388
13854648797
13854656792
13854664971
13854671929
13854680596
13854687310
