13858936627
13858942243
13858949201
13858955121
13858961286
13858967023
13858972638
13858977887
13858983502
13858989240
13858995953
13859001264
13859008405
13859015180
13859021344
13859027203
13859033551
13859038068
13859045026
13859050946
13859056378
13859061871
13859067731
13859074933
13859081464
13859088116
13859095380
13859102154
13859108624
13859114850
13859122174
13859128644
13859135602
13859142621
13859149701
13859156903
13859166241
13859173932
13859181805
13859189251
13859196881
13859204388
13859212689
13859220074
13859226788
13859232159
13859236370
13859244854
13859251507
13859257977
13859264996
13859272381
13859279156
13859284100
13859291363
13859297222
13859302105
13859308819
13859315350
13859320416
13859326702
13859333050
13859339764
13859346539
13859353008
13859360821
13859367657
13859372906
13859377849
13859384075
13859390850
13859399395
13859405865
13859412212
13859420574
13859428570
13859434917
13859440899
13859449993
13859457317
13859464946
13859471599
13859479107
13859486004
13859491314
13859497966
13859505352
13859511760
13859517986
13859524944
13859531902
13859538066
13859544902
13859551189
13859558330
13859564617
13859569499
13859576396
13859583232
13859589580
13859596477
13859602641
13859609233
13859617900
13859623698
13859632976
13859639995
13859645976
13859652568
13859660197
13859666301
13859673381
13859679301
13859687053
13859693339
13859701213
13859708659
13859715434
13859722392
13859729655
13859735759
13859740580
13859747416
13859752482
13859761515
13859768596
13859777140
13859784404
13859790019
13859797404
13859803386
13859810343
13859817729
13859822795
13859829936
13859836955
13859843363
13859848307
13859855448
13859862223
13859868754
13859875163
13859881877
13859888041
13859894755
13859901042
13859907816
13859914225
13859919230
13859927714
13859933329
13859939860
13859947489
13859953593
13859959269
13859966898
13859974345
13859981669
13859987101
13859994181
13860000040
13860007609
13860014445
13860020609
13860029398
13860036478
13860041788
13860050333
13860063273
13860073710
13860082315
13860090921
13860103800
13860108377
13860115763
13860121927
13860129068
13860136087
13860142679
13860149576
13860154581
13860163248
13860168192
13860176309
13860181741
13860189310
13860197244
13860203836
13860209085
13860215921
13860221292
13860229349
13860237711
13860244424
13860249918
13860258218
13860263711
13860272806
13860278543
13860287454
13860293985
13860300943
13860306619
13860314187
13860319497
13860327493
13860332864
13860341287
13860349710
13860357339
13860363687
13860372354
13860377908
13860386453
13860392251
13860400796
13860408425
13860416787
13860424111
13860430764
13860438394
13860446511
13860452737
13860459634
13860467874
13860472573
13860479653
13860484292
13860489175
13860494668
13860499368
13860504617
13860510293
13860515359
13860522622
13860526650
13860532082
13860537576
13860542886
13860545876
13860552651
13860558022
13860563637
13860566750
13860575783
13860579323
13860586892
13860591836
13860597817
13860603432
13860609475
13860616677
13860620461
13860627358
13860633217
13860638405
13860644326
13860650246
13860656411
13860661843
13860667702
13860672768
13860678017
13860684487
13860690346
13860694985
13860702248
13860709572
13860715309
13860721657
13860728188
13860734719
13860738381
13860746498
13860752297
13860760231
13860766274
13860771462
13860774758
13860782082
13860786965
13860793800
13860798195
13860806557
13860811745
13860817360
13860821327
13860826515
13860831398
13860837196
13860844582
13860849525
13860853737
13860860512
13860866798
13860870766
13860876869
13860882301
13860886818
13860892982
13860897560
13860903786
13860909096
13860916237
13860920997
13860925819
13860931556
13860937355
13860944313
13860949440
13860954994
13860961280
13860966713
13860969642
13860978065
13860983558
13860990394
13860995765
13861001319
13861006202
13861012855
13861018226
13861022743
13861029335
13861034156
13861041542
13861046363
13861051734
13861057411
13861063270
13861069923
13861075355
13861078651
13861086524
13861092933
13861097877
13861104591
13861109657
13861116065
13861121436
13861126319
13861131690
13861139075
13861144630
13861149940
13861156592
13861162818
13861167274
13861174232
13861180030
13861186683
13861192237
13861199439
13861204627
13861211829
13861216895
13861221412
13861227698
13861237525
13861243384
13861249610
13861255896
13861261023
13861267981
13861273902
13861278662
13861285987
13861291053
13861296057
13861304785
13861310950
13861316138
13861324439
13861331214
13861337378
13861347266
13861353552
13861367957
13861375708
13861385352
13861391882
13861400305
13861406775
13861413367
13861421667
13861428320
13861435889
13861444067
13861452551
13861458472
13861467810
13861477087
13861483557
13861493628
13861500036
13861510107
13861516394
13861522619
13861532141
13861540075
13861549536
13861556250
13861563574
13861572241
13861579870
13861587194
13861595251
13861603369
13861612219
13861619848
13861628088
13861634497
13861643652
13861652319
13861660803
13861667455
13861675024
13861684606
13861690466
13861699804
13861706701
13861716528
13861724401
13861731664
13861740148
13861747472
13861754552
13861762792
13861770666
13861778600
13861785070
13861794774
13861801549
13861812047
13861818334
13861826269
13861834997
13861842931
13861849523
13861857213
13861866491
13861871862
13861879552
13861886327
13861896825
13861904149
13861912389
13861920446
13861928258
13861932530
13861944860
13861951268
13861960484
13861966832
13861976293
13861982762
13861991795
13862000462
13862008702
13862015538
13862025548
13862031956
13862039708
13862047093
13862056920
13862064854
13862073949
13862081090
13862089085
13862096348
13862103795
13862112279
13862118504
13862127965
13862134678
13862144383
13862157750
13862165379
13862174473
13862183323
13862190281
13862200840
13862209812
13862216893
13862225254
13862232273
13862239170
13862246861
13862254307
13862261631
13862270481
13862279270
13862286472
13862295628
13862302403
13862311253
13862317661
13862326206
13862333530
13862341892
13862348911
13862355564
13862361851
13862370823
13862376316
13862386082
13862422458
13862429294
13862438450
13862444431
13862453037
13862458408
13862468113
13862473545
13862482761
13862488376
13862498813
13862506198
13862513889
13862520542
13862527866
13862533969
13862542453
13862548435
13862560336
13862567355
13862574802
13862580966
13862590244
13862596103
13862604587
13862613193
13862621005
13862629550
13862637363
13862643222
13862651950
13862657809
13862666537
13862672946
13862681186
13862690646
13862696383
13862705600
13862712985
13862722079
13862726901
13862736178
13862742343
13862752169
13862757480
13862763339
13862769259
13862774936
13862779330
13862786166
13862790927
13862798617
13862801852
13862810397
13862815585
13862821566
13862825839
13862832247
13862837435
13862844943
13862849825
13862856478
13862863192
13862868868
13862875704
13862882052
13862888949
13862895480
13862904635
13862910494
13862919100
13862924899
13862930941
13862935213
13862942232
13862947115
13862950045
13862958346
13862963656
13862969820
13862975008
13862979830
13862984530
13862990938
13862995638
13863002108
13863007784
13863012911
13863018038
13863024752
13863031099
13863036532
13863041536
13863047335
13863052645
13863060152
13863065462
13863071383
13863076632
13863081453
13863085665
13863091768
13863094515
13863101778
13863106356
13863113314
13863116304
13863124300
13863128572
13863132601
13863139131
13863143770
13863150667
13863155672
13863161470
13863166536
13863171297
13863176485
13863181307
13863186556
13863191927
13863198946
13863204195
13863208528
13863215547
13863219209
13863224763
13863230989
13863237031
13863240022
13863247041
13863251680
13863258638
13863263643
13863269075
13863273286
13863278779
13863283601
13863292268
13863297334
13863303804
13863310151
13863313936
13863319978
13863324189
13863329500
13863336641
13863341279
13863345979
13863353059
13863356843
13863363130
13863368196
13863373323
13863377534
13863385408
13863390290
13863396882
13863401948
13863407502
13863412690
13863419099
13863425752
13863432832
13863436311
13863445710
13863454133
13863460542
13863467622
13863475434
13863483613
13863488252
13863495332
13863499299
13863506135
13863511140
13863516633
13863524323
13863529511
13863536103
13863541657
13863547761
13863553376
13863559479
13863565156
13863571808
13863577424
13863583161
13863588959
13863595551
13863602997
13863610261
13863618195
13863627839
13863636445
13863643891
13863651886
13863658844
13863666230
13863672089
13863680207
13863688935
13863698151
13863704743
13863714264
13863721283
13863730133
13863736237
13863744293
13863750519
13863758759
13863766144
13863774384
13863781891
13863789093
13863796112
13863800385
13863811432
13863818512
13863826263
13863833221
13863841522
13863848541
13863857025
13863863129
13863869476
13863879364
13863888641
13863894623
13863902130
13863910003
13863916351
13863925750
13863931793
13863940338
13863947723
13863955597
13863963043
13863971283
13863979339
13863985565
13863991851
13864001312
13864008331
13864017303
13864023467
13864031158
13864038360
13864045562
13864054473
13864061553
13864069549
13864077728
13864085052
13864091949
13864099822
13864106963
13864115630
13864124053
13864129974
13864138885
13864145354
13864154449
13864159392
13864169219
13864179961
13864188811
13864197844
13864205779
13864216216
13864222136
13864232512
13864240691
13864248442
13864257293
13864264373
13864272063
13864279876
13864287322
13864295745
13864303313
13864309416
13864315825
13864325835
13864332488
13864342009
13864348235
13864356841
13864364226
13864370024
13864379363
13864386137
13864393645
13864402617
13864409575
13864418059
13864425749
13864430937
13864441435
13864446562
13864454375
13864463591
13864471525
13864476103
13864486723
13864493437
13864501188
13864507292
13864516264
13864523100
13864532011
13864539091
13864548002
13864554228
13864561308
13864568876
13864576017
13864584501
13864591825
13864600187
13864607756
13864616300
13864623503
13864629362
13864637785
13864646269
13864653105
13864661344
13864669462
13864675749
13864682645
13864690519
13864699491
13864706815
13864713529
13864720914
13864730558
13864736478
13864743497
13864751127
13864759733
13864766752
13864774808
13864785123
13864793607
13864803617
13864812162
13864819852
13864830045
13864836698
13864847196
13864854459
13864864103
13864870145
13864879117
13864885099
13864894132
13864900968
13864908719
13864917203
13864926724
13864931851
13864942166
13864947904
13864955899
13864963345
13864970914
13864979764
13864990506
13864998685
13865006985
13865014310
13865021268
13865027920
13865033292
13865040311
13865046475
13865052396
13865057583
13865062527
13865068204
13865073331
13865075955
13865084317
13865087308
13865094327
13865098294
13865104825
13865109341
13865115933
13865120572
13865126004
13865130642
13865137112
13865141201
13865147549
13865151699
13865157376
13865162930
13865169216
13865173672
13865179715
13865185513
13865190884
13865195584
13865201321
13865206082
13865211941
13865216580
13865221829
13865227871
13865232571
13865238796
13865244167
13865248928
13865254543
13865261074
13865266262
13865271145
13865275356
13865281582
13865285488
13865292629
13865295681
13865303982
13865308987
13865314663
13865320705
13865326137
13865330471
13865337002
13865344692
13865349880
13865354580
13865359646
13865365322
13865369045
13865375454
13865381191
13865386379
13865392544
13865397121
13865401272
13865407802
13865412197
13865419094
13865424099
13865431240
13865437893
13865444118
13865449428
13865456142
13865460414
13865466579
13865472866
13865478969
13865484951
13865492397
13865497463
13865502956
13865508754
13865514614
13865519313
13865525356
13865529750
13865536159
13865542018
13865546596
13865553615
13865558376
13865566005
13865571376
13865577663
13865586452
13865592433
13865599452
13865605006
13865611354
13865616969
13865622340
13865629115
13865633327
13865637843
13865641810
13865647609
13865651820
13865657802
13865662990
13865667750
13865673976
13865678615
13865682887
13865689235
13865693324
13865698756
13865703639
13865710719
13865713588
13865720912
13865725428
13865730555
13865735926
13865741053
13865745387
13865750514
13865754908
13865761439
13865768580
13865772609
13865777980
13865783351
13865788661
13865793788
13865800135
13865805018
13865812159
13865817164
13865823817
13865827967
13865834681
13865841517
13865848902
13865856532
13865865077
13865872462
13865880396
13865888392
13865896815
13865903040
13865911707
13865918116
13865927637
13865936243
13865942408
13865949793
13865958338
13865965784
13865970118
13865980860
13865988978
13865997706
13866006312
13866015040
13866023279
13866029261
13866037684
13866045862
13866054773
13866060755
13866070337
13866079004
13866085413
13866093714
13866101160
13866109522
13866116907
13866124048
13866134790
13866141321
13866149500
13866157983
13866163965
13866172388
13866180444
13866187463
13866196619
13866205103
13866210352
13866219873
13866227685
13866234888
13866243188
13866250696
13866258630
13866270471
13866277063
13866286157
13866293847
13866304529
13866312219
13866320581
13866329919
13866339074
13866347314
13866356164
13866363000
13866372338
13866378930
13866387048
13866396203
13866402429
13866412011
13866418725
13866428185
13866435876
13866443383
13866450402
13866458459
13866467675
13866475549
13866482262
13866492760
13866499474
13866507958
13866514367
13866523217
13866533044
13866542199
13866549218
13866559411
13866565941
13866575158
13866581566
13866589074
13866598961
13866606469
13866613793
13866623253
13866630883
13866637841
13866646080
13866655297
13866663720
13866670311
13866678490
13866687096
13866693688
13866702355
13866710655
13866717064
13866724327
13866734398
13866744957
13866751854
13866759972
13866767235
13866774986
13866784325
13866792503
13866800133
13866807274
13866815880
13866824547
13866832847
13866840843
13866848900
13866853477
13866864525
13866870811
13866883140
13866891136
13866904747
13866916221
13866926109
13866936912
13866947288
13866960655
13866971824
13866983238
13866996971
13867006309
13867014610
13867024375
13867034141
13867044639
13867055320
13867065757
13867077842
13867087791
13867096336
13867107810
13867118613
13867129050
13867138267
13867148398
13867160911
13867171348
13867180869
13867191794
13867199424
13867213462
13867224387
13867235556
13867245993
13867256919
13867266013
13867275351
13867286826
13867295432
13867306235
13867316306
13867326682
13867335837
13867343161
13867354697
13867362509
13867371726
13867381979
13867391013
13867402121
13867410971
13867418356
13867427450
13867435507
13867444357
13867450522
13867459494
13867467550
13867474569
13867482504
13867489706
13867499228
13867505575
13867513205
13867520895
13867530722
13867538412
13867545919
13867554708
13867562216
13867569784
13867579489
13867587118
13867597006
13867603353
13867613241
13867619772
13867629720
13867638326
13867645345
13867655050
13867665243
13867674154
13867681295
13867690023
13867697774
13867709859
13867717550
13867727987
13867734762
13867743673
13867752096
13867761800
13867767110
13867776571
13867785604
13867796285
13867803365
13867810933
13867816243
13867824361
13867833577
13867840108
13867849202
13867856221
13867864461
13867869771
13867879598
13867885701
13867892659
13867898763
13867909017
13867916402
13867924764
13867932332
13867939595
13867947835
13867955586
13867967854
13867974873
13867985616
13867992818
13868003011
13868013142
13868022847
13868032002
13868040852
13868050068
13868056233
13868066182
13868071980
13868081440
13868087544
13868098774
13868106038
13868113789
13868121602
13868131611
13868140156
13868147480
13868154194
13868163838
13868170368
13868179158
13868186421
13868195393
13868204731
13868210957
13868220905
13868228718
13868236958
13868246296
13868253864
13868259480
13868269733
13868278950
13868286579
13868291706
13868297443
13868302631
13868307941
13868314716
13868316975
13868326252
13868328815
13868336079
13868340046
13868344196
13868348957
13868354572
13868365192
13868372822
13868379719
13868386799
13868394245
13868399494
13868404255
13868408710
13868413288
13868418110
13868422626
13868427021
13868432514
13868438129
13868443500
13868448078
13868453815
13868459796
13868466083
13868474628
13868481647
13868487812
13868492023
13868500568
13868506977
13868514057
13868520465
13868527362
13868535358
13868541461
13868547015
13868552936
13868559833
13868567035
13868573383
13868580707
13868588031
13868594440
13868599567
13868607867
13868613849
13868620502
13868631000
13868637408
13868644610
13868652484
13868659808
13868667071
13868674029
13868680987
13868688189
13868693133
13868701556
13868706439
13868714129
13868719012
13868726397
13868733538
13868739886
13868746905
13868753436
13868759295
13868767596
13868773333
13868781634
13868787432
13868795245
13868801287
13868808978
13868816119
13868823870
13868829974
13868837908
13868845538
13868853228
13868858782
13868867205
13868873797
13868882159
13868890215
13868897784
13868906023
13868913348
13868920672
13868928423
13868936236
13868941546
13868949785
13868957598
13868965410
13868971575
13868978716
13868987810
13868994402
13869003069
13869010576
13869019060
13869029436
13869035601
13869044939
13869051531
13869060015
13869065996
13869075518
13869081499
13869091081
13869097246
13869106462
13869114275
13869118974
13869127641
13869133806
13869142290
13869149675
13869158342
13869163774
13869172990
13869180498
13869189165
13869196123
13869202776
13869211137
13869218217
13869225969
13869234880
13869242326
13869251237
13869257646
13869266679
13869275346
13869284013
13869292009
13869298295
13869307084
13869314836
13869322282
13869328141
13869341142
13869351152
13869358964
13869366777
13869375993
13869381486
13869392594
13869400529
13869408463
13869416703
13869426469
13869432145
13869441422
13869448930
13869455644
13869462968
13869470414
13869477067
13869486893
13869495133
13869503312
13869510453
13869517899
13869523881
13869534562
13869541215
13869549149
13869557938
13869563859
13869572037
13869579545
13869585648
13869595108
13869600907
13869610367
13869616776
13869624100
13869632828
13869640519
13869646927
13869656205
13869662003
13869669266
13869677078
13869685929
13869692154
13869698685
13869707291
13869715714
13869723831
13869731217
13869738907
13869745804
13869753494
13869761795
13869768021
13869777847
13869785904
13869791153
13869800674
13869808060
13869815506
13869823685
13869828750
13869834183
13869839432
13869845962
13869851272
13869854202
13869862381
13869867935
13869874161
13869880081
13869886612
13869891189
13869898330
13869902603
13869909073
13869916336
13869921524
13869927993
13869935501
13869940506
13869946121
13869951858
13869957595
13869963943
13869969558
13869974075
13869979812
13869986404
13869991348
13869998184
13870003127
13870008254
13870012588
13870020217
13870025161
13870030715
13870035781
13870041213
13870045791
13870052871
13870060378
13870064346
13870072158
13870076980
13870084182
13870091323
13870096572
13870103225
13870110976
13870116469
13870121902
13870129348
13870135573
13870139052
13870145217
13870149856
13870155715
13870161208
13870166396
13870171584
13870177504
13870182082
13870188002
13870193068
13870198256
13870204299
13870209365
13870215529
13870222243
13870225966
13870232802
13870236342
13870243056
13870248244
13870254286
13870259963
13870265700
13870270949
13870276747
13870282668
13870286818
13870293227
13870297743
13870304335
13870310622
13870316115
13870321669
13870326979
13870333083
13870340102
13870344557
13870351027
13870357069
13870362135
13870368117
13870373244
13870379897
13870385451
13870390395
13870396376
13870402968
13870408644
13870414076
13870418226
13870423048
13870431288
13870435683
13870441664
13870447767
13870454237
13870458632
13870464369
13870470839
13870475538
13870482496
13870486769
13870493239
13870498793
13870505201
13870508925
13870516371
13870521070
13870527845
13870532423
13870537977
13870544142
13870552687
13870558119
13870564283
13870568983
13870574354
13870578871
13870585218
13870591322
13870597242
13870603956
13870610304
13870615553
13870620741
13870627577
13870634046
13870641554
13870651563
13870659376
13870664747
13870671644
13870676710
13870683668
13870688795
13870703321
13870711011
13870718214
13870726942
13870734205
13870742505
13870749097
13870756788
13870764478
13870771802
13870781629
13870788404
13870795728
13870802137
13870811353
13870819043
13870826490
13870830945
13870842176
13870848767
13870858533
13870864881
13870874463
13870881604
13870891431
13870897778
13870905286
13870915234
13870921643
13870931104
13870938489
13870946362
13870957105
13870964551
13870972668
13870979993
13870986401
13870995007
13871004773
13871010693
13871020398
13871028332
13871034680
13871043835
13871050671
13871060925
13871067395
13871077038
13871086071
13871095288
13871101880
13871110669
13871119152
13871126660
13871134960
13871143078
13871149548
13871159985
13871166760
13871176769
13871185009
13871192394
13871198315
13871206616
13871216076
13871224316
13871230846
13871238598
13871247082
13871255016
13871261608
13871269360
13871278332
13871286022
13871295177
13871302257
13871309399
13871317638
13871327038
13871334667
13871342052
13871352672
13871360851
13871370250
13871375744
13871384777
13871392284
13871401378
13871409008
13871418712
13871425792
13871435009
13871441051
13871451427
13871457653
13871467296
13871478527
13871488231
13871497325
13871504527
13871513255
13871523326
13871534068
13871540965
13871551585
13871560497
13871568492
13871574962
13871583079
13871590892
13871599986
13871607310
13871613963
13871623973
13871631541
13871639537
13871646007
13871656199
13871662730
13871671031
13871680552
13871686656
13871695811
13871702647
13871712107
13871720225
13871728709
13871734935
13871744578
13871750804
13871760142
13871766490
13871776682
13871783702
13871791941
13871798838
13871806956
13871813609
13871825388
13871831614
13871841441
13871847727
13871856089
13871864512
13871872568
13871879771
13871889963
13871896189
13871903940
13871913523
13871919382
13871929880
13871937815
13871945261
13871949717
13871962290
13871970530
13871976633
13871983225
13871992929
13871999643
13872009592
13872016184
13872027231
13872034006
13872040720
13872050058
13872056345
13872066294
13872072092
13872082346
13872089975
13872097543
13872104868
13872112924
13872121469
13872129526
13872136606
13872146249
13872152780
13872158701
13872165292
13872171274
13872176340
13872181345
13872188608
13872193674
13872198984
13872205270
13872210702
13872215463
13872221811
13872227365
13872233896
13872239511
13872245248
13872251535
13872259775
13872265268
13872271676
13872279611
13872285165
13872290597
13872298288
13872305551
13872316293
13872322030
13872328012
13872333932
13872337045
13872344857
13872353036
13872358285
13872362252
13872368966
13872372872
13872378854
13872385446
13872390939
13872394052
13872401803
13872408090
13872414010
13872417306
13872424630
13872429147
13872434884
13872439706
13872446359
13872451608
13872458749
13872463448
13872468270
13872475838
13872480538
13872487801
13872494698
13872499886
13872505501
13872510934
13872515694
13872521981
13872528267
13872534371
13872539315
13872545723
13872551339
13872557930
13872565255
13872571419
13872578499
13872583382
13872590706
13872596688
13872601937
13872608651
13872614632
13872619210
13872625374
13872628609
13872637520
13872644478
13872650582
13872654000
13872662544
13872667549
13872673409
13872678230
13872685555
13872690865
13872695870
13872702461
13872708321
13872714485
13872720650
13872725960
13872730721
13872737068
13872743599
13872749886
13872758553
13872765327
13872771370
13872777473
13872782356
13872788277
13872795479
13872800484
13872807625
13872812446
13872819465
13872824470
13872832527
13872838630
13872844307
13872850715
13872856941
13872862983
13872869148
13872876045
13872882332
13872885872
13872893135
13872899543
13872908271
13872915107
13872921943
13872928718
13872933174
13872938301
13872946418
13872951606
13872959114
13872963630
13872971076
13872975654
13872981513
13872985969
13872992683
13872997077
13873004218
13873008491
13873014777
13873019050
13873025214
13873030036
13873036567
13873042976
13873049812
13873054084
13873061469
13873067695
13873076972
13873084846
13873090644
13873099250
13873107184
13873112922
13873120734
13873129279
13873135261
13873144233
13873150336
13873160529
13873168708
13873176154
13873183112
13873191474
13873199652
13873207770
13873214362
13873224433
13873231574
13873241584
13873247931
13873255866
13873264289
13873270087
13873279608
13873286749
13873296759
13873305670
13873312933
13873319403
13873329413
13873336554
13873344916
13873352240
13873360358
13873370245
13873377020
13873386175
13873394415
13873401007
13873409674
13873418707
13873424200
13873434454
13873440863
13873450750
13873458868
13873466253
13873474981
13873483038
13873489935
13873498114
13873504766
13873515814
13873522467
13873532232
13873538641
13873546514
13873556646
13873563665
13873574407
13873581182
13873590582
13873597051
13873606756
13873614019
13873622076
13873629705
13873639898
13873647649
13873657476
13873664617
13873674749
13873681890
13873689947
13873697576
13873707159
13873716009
13873730840
13873742071
13873746892
13873757451
13873764470
13873774602
13873783330
13873791814
13873798162
13873806707
13873815740
13873822637
13873829778
13873836614
13873846929
13873854070
13873864629
13873872563
13873880071
13873886540
13873895268
13873901677
13873911137
13873920415
13873929509
13873939030
13873945744
13873959477
13873970402
13873979191
13873988835
13873995671
13874008122
13874015568
13874021672
13874030156
13874039311
13874046147
13874053593
13874063054
13874071965
13874080326
13874086186
13874095585
13874101750
13874111149
13874117558
13874128117
13874136479
13874143864
13874152104
13874160038
13874167240
13874175236
13874181645
13874190983
13874197697
13874206974
13874215336
13874223454
13874231815
13874237797
13874247745
13874255253
13874262882
13874273075
13874282352
13874289310
13874296635
13874304996
13874312076
13874319279
13874328312
13874337528
13874344486
13874351261
13874361087
13874367618
13874376468
13874382999
13874391971
13874398563
13874408329
13874415897
13874425479
13874432376
13874441959
13874451297
13874458499
13874468997
13874477542
13874483890
13874493411
13874501285
13874507694
13874515384
13874526309
13874532657
13874547244
13874551456
13874556766
13874564151
13874569766
13874577762
13874583865
13874592166
13874597049
13874601626
13874608829
13874613223
13874620547
13874627017
13874632693
13874637576
13874642825
13874649539
13874655642
13874658694
13874666079
13874671878
13874678225
13874683780
13874688418
13874695010
13874699404
13874706729
13874712527
13874717776
13874724246
13874729861
13874736880
13874742312
13874747744
13874753726
13874760562
13874766055
13874770388
13874776797
13874783694
13874790225
13874794985
13874800784
13874805911
13874812258
13874816958
13874823550
13874828860
13874835146
13874841921
13874846499
13874852419
13874857790
13874865786
13874870425
13874876772
13874883120
13874888125
13874893191
13874900515
13874905337
13874910158
13874917360
13874922487
13874929873
13874936892
13874942873
13874949099
13874955935
13874960756
13874966616
13874972780
13874978151
13874984438
13874991274
13874996218
13875001894
13875008547
13875014650
13875019472
13875025209
13875031313
13875038820
13875043947
13875049745
13875054445
13875061464
13875067079
13875073976
13875078737
13875085207
13875090639
13875095766
13875103700
13875109193
13875115968
13875122011
13875128542
13875135927
13875141603
13875145448
13875155519
13875160768
13875168458
13875174501
13875179323
13875186952
13875195802
13875201417
13875208253
13875214662
13875220521
13875226076
13875232057
13875237184
13875243348
13875247987
13875255128
13875260499
13875265992
13875272645
13875276918
13875283632
13875289003
13875294740
13875300355
13875306703
13875311708
13875317750
13875323304
13875329713
13875334657
13875340760
13875345826
13875353700
13875358766
13875365235
13875370057
13875376771
13875382264
13875388734
13875396058
13875401856
13875407166
13875413453
13875419068
13875424928
13875430482
13875436158
13875442689
13875447572
13875453492
13875458985
13875467408
13875473817
13875483460
13875489991
13875499024
13875508057
13875516419
13875522767
13875530823
13875540223
13875545960
13875555176
13875564454
13875572388
13875579956
13875588013
13875594849
13875604920
13875609436
13875619873
13875628540
13875636719
13875643189
13875652588
13875659302
13875669373
13875675964
13875683533
13875693421
13875700134
13875707642
13875716736
13875724121
13875732727
13875739990
13875747864
13875756348
13875764282
13875772522
13875780456
13875787964
13875794556
13875802246
13875809204
13875816833
13875825256
13875833557
13875842529
13875850158
13875857544
13875865905
13875874267
13875883850
13875893554
13875900146
13875906799
13875922973
13875930236
13875940795
13875948913
13875956787
13875965820
13875973388
13875980407
13875990905
13875998962
13876006530
13876013549
13876021850
13876028869
13876040893
13876048461
13876056518
13876062926
13876071593
13876078612
13876085876
13876095519
13876105346
13876111693
13876118285
13876127868
13876136046
13876143493
13876151671
13876159789
13876168273
13876176451
13876183348
13876192321
13876201537
13876209655
13876217040
13876225585
13876232604
13876241820
13876248229
13876255919
13876265563
13876272948
13876280150
13876288573
13876296080
13876305663
13876313231
13876320433
13876328551
13876335570
13876343626
13876352782
13876359373
13876367918
13876376463
13876382628
13876392088
13876402769
13876413572
13876421019
13876432554
13876443541
13876453245
13876460875
13876469664
13876478819
13876484983
13876494322
13876502317
13876508909
13876517820
13876525511
13876533445
13876541746
13876549986
13876556394
13876563597
13876575620
13876584287
13876594968
13876601377
13876609434
13876618101
13876625425
13876634702
13876642210
13876652647
13876659666
13876667234
13876674619
13876683958
13876691526
13876699827
13876708616
13876715635
13876723996
13876730649
13876739866
13876750913
13876757932
13876766538
13876775510
13876781797
13876790342
13876802243
13876812070
13876820859
13876827512
13876835874
13876843198
13876852841
13876860410
13876868955
13876877133
13876884824
13876893124
13876901242
13876909238
13876917233
13876927670
13876931943
13876943906
13876948300
13876958371
13876964169
13876968564
13876973569
13876981869
13876986569
13876991879
13876999325
13877005490
13877010190
13877015683
13877021481
13877028622
13877033871
13877038266
13877044064
13877050229
13877056942
13877062619
13877068417
13877073727
13877080197
13877085934
13877090451
13877097897
13877103329
13877108700
13877114315
13877120175
13877127316
13877133175
13877139034
13877144406
13877148373
13877156368
13877162167
13877168026
13877173397
13877179867
13877185238
13877192257
13877196957
13877203243
13877207638
13877213253
13877219296
13877225704
13877232784
13877236996
13877244808
13877250667
13877256100
13877260433
13877266720
13877274410
13877280086
13877283382
13877291988
13877295650
13877303219
13877308651
13877315975
13877321407
13877328426
13877333492
13877338680
13877346309
13877351558
13877357113
13877363033
13877368587
13877372005
13877380245
13877386348
13877392818
13877395931
13877402339
13877409053
13877415767
13877422542
13877430782
13877437129
13877445552
13877453914
13877461055
13877467342
13877475093
13877482051
13877487117
13877494136
13877499568
13877505733
13877510799
13877515743
13877523067
13877528316
13877533076
13877538325
13877543269
13877548579
13877553218
13877557002
13877563838
13877567927
13877573726
13877579158
13877583186
13877589107
13877593989
13877599544
13877605708
13877611079
13877616633
13877620479
13877626033
13877631831
13877635920
13877641963
13877649226
13877653682
13877659907
13877664302
13877669795
13877675593
13877680110
13877685054
13877694514
13877698848
13877703730
13877710200
13877715388
13877719905
13877724604
13877729548
13877734980
13877742060
13877747492
13877752558
13877756953
13877762751
13877769099
13877774104
13877776911
13877785578
13877790339
13877795405
13877799616
13877805903
13877809931
13877816157
13877825068
13877833918
13877840205
13877848078
13877856135
13877862665
13877871454
13877876398
13877886164
13877893671
13877903803
13877910456
13877917841
13877926386
13877934748
13877939020
13877949823
13877956415
13877967218
13877973810
13877983698
13877990229
13878000605
13878006586
13878015070
13878021417
13878032648
13878039057
13878048517
13878054804
13878064386
13878071161
13878084650
13878094049
13878102960
13878115289
13878124750
13878135675
13878142938
13878152277
13878159845
13878167291
13878173822
13878184015
13878186456
13878197809
13878206292
13878215204
13878223810
13878230829
13878237603
13878246698
13878252374
13878260797
13878267144
13878276178
13878282891
13878293023
13878299310
13878307733
13878314874
13878322503
13878330133
13878338067
13878345819
13878354119
13878364068
13878370782
13878377862
13878383721
13878394585
13878401543
13878407464
13878414117
13878424981
13878429559
13878440728
13878447076
13878454949
13878464104
13878469109
13878478631
13878486504
13878493950
13878499383
13878509942
13878516289
13878524712
13878533074
13878542046
13878550652
13878558464
13878562859
13878572380
13878580620
13878589165
13878596489
13878602410
13878611626
13878616631
13878626763
13878634697
13878641106
13878647698
13878658318
13878665337
13878673699
13878680473
13878688347
13878695671
13878704155
13878712456
13878718681
13878725029
13878734795
13878742668
13878750297
13878758537
13878765373
13878771965
13878781792
13878788444
13878796074
13878803764
13878813041
13878820305
13878829399
13878836723
13878842277
13878850151
13878859489
13878869255
13878882988
13878892936
13878905509
13878916007
13878919914
13878936088
13878943962
13878952384
13878959953
13878966911
13878973808
13878981193
13878987968
13878994743
13879003532
13879010734
13879017204
13879026115
13879032157
13879039237
13879047843
13879055961
13879062675
13879072440
13879077506
13879084525
13879092887
13879099967
13879104239
13879115470
13879123404
13879130790
13879138297
13879146720
13879153983
13879161612
13879169730
13879175589
13879184561
13879192740
13879200675
13879207816
13879214041
13879221305
13879228995
13879237296
13879242911
13879247122
13879255606
13879260550
13879265738
13879270560
13879276236
13879279166
13879286856
13879292349
13879297659
13879303458
13879309256
13879314688
13879319510
13879323904
13879330191
13879337271
13879342337
13879346670
13879353140
13879357718
13879364920
13879369925
13879375418
13879379751
13879386709
13879391714
13879401053
13879407766
13879414724
13879417776
13879425161
13879430777
13879440359
13879444632
13879451162
13879456900
13879464285
13879469778
13879475332
13879482840
13879488699
13879491751
13879501089
13879505789
13879511465
13879517080
13879523184
13879529592
13879535269
13879541067
13879547720
13879553457
13879561514
13879567312
13879572927
13879579519
13879585500
13879595205
13879602102
13879608083
13879613088
13879618215
13879622304
13879628957
13879633535
13879640859
13879645681
13879652029
13879655263
13879662038
13879668203
13879673513
13879678335
13879683706
13879686330
13879694143
13879698354
13879704946
13879711477
13879717031
13879721792
13879727224
13879732473
13879738210
13879742543
13879747548
13879751332
13879759511
13879765554
13879773427
13879779348
13879784841
13879790517
13879796132
13879801076
13879809133
13879810659
13879820485
13879824697
13879831044
13879837880
13879842580
13879847402
13879854237
13879859059
13879865285
13879870351
13879876759
13879882680
13879888356
13879894276
13879899098
13879903798
13879908986
13879914906
13879918568
13879925343
13879930226
13879936452
13879938039
13879946644
13879951283
13879956593
13879961781
13879967152
13879972279
13879978016
13879983143
13879992543
13879997181
13880004262
13880008717
13880015919
13880021046
13880028370
13880034840
13880040577
13880045704
13880051869
13880056385
13880062611
13880066944
13880071766
13880078907
13880086659
13880093495
13880099720
13880108631
13880115345
13880123158
13880131275
13880141895
13880150868
13880160572
13880167530
13880178150
13880185597
13880196156
13880208179
13880221546
13880228870
13880234425
13880240223
13880249439
13880255726
13880265064
13880273548
13880280262
13880286793
13880296985
13880303028
13880312183
13880319324
13880325977
13880335376
13880343738
13880349964
13880358936
13880365894
13880373096
13880382617
13880388233
13880395679
13880404102
13880412830
13880417041
13880429004
13880433154
13880443286
13880450916
13880458545
13880465747
13880474109
13880483020
13880490833
13880497058
13880505481
13880512683
13880519763
13880526965
13880534717
13880543628
13880551501
13880559436
13880566882
13880573962
13880580981
13880589282
13880596972
13880605578
13880613269
13880620227
13880628894
13880634814
13880643176
13880651599
13880658801
13880668750
13880675891
13880682299
13880691394
13880697619
13880707202
13880714404
13880721850
13880729968
13880737414
13880742968
13880751391
13880759203
13880767687
13880775256
13880783068
13880787463
13880798022
13880804980
13880812914
13880820910
13880827868
13880834582
13880842638
13880850268
13880858629
13880868944
13880874804
13880883837
13880891039
13880899218
13880904589
13880914476
13880920458
13880928515
13880936266
13880945238
13880953234
13880964586
13880973192
13880983812
13880991075
13881001024
13881012499
13881020494
13881030321
13881037218
13881044786
13881051256
13881061876
13881068285
13881074754
13881084154
13881090623
13881098131
13881106920
13881114793
13881123521
13881131090
13881139879
13881146715
13881154161
13881161363
13881165147
13881177415
13881181749
13881194749
13881198961
13881210557
13881218614
13881226548
13881235032
13881243089
13881249925
13881259751
13881266709
13881274217
13881282151
13881289659
13881297166
13881305039
13881311265
13881322007
13881329881
13881338120
13881346970
13881352403
13881360337
13881368516
13881374925
13881384202
13881392564
13881400376
13881406968
13881414353
13881423020
13881428879
13881437852
13881447007
13881454514
13881463975
13881471238
13881477402
13881484910
13881488755
13881499802
13881506211
13881514573
13881521225
13881527024
13881532090
13881536667
13881540940
13881547104
13881552048
13881560227
13881563767
13881570969
13881575424
13881581345
13881586594
13881590866
13881597275
13881603134
13881607712
13881612229
13881620407
13881624680
13881632858
13881639450
13881645249
13881651901
13881656601
13881663132
13881668076
13881673508
13881677963
13881684555
13881692612
13881697617
13881704452
13881710617
13881717514
13881724411
13881730575
13881739181
13881748581
13881753586
13881760238
13881764999
13881771347
13881775863
13881782394
13881788559
13881794052
13881797104
13881804977
13881809494
13881817550
13881820297
13881827499
13881831833
13881838974
13881843734
13881849960
13881855087
13881862106
13881867172
13881874069
13881879318
13881884384
13881891464
13881895675
13881901351
13881906234
13881912948
13881917953
13881923019
13881929794
13881935043
13881939742
13881945907
13881948654
13881955550
13881959823
13881966537
13881971603
13881979354
13881984481
13881988631
13881994979
13881998885
13882005477
13882011092
13882016097
13882021834
13882026656
13882032333
13882037765
13882042403
13882047774
13882052352
13882058272
13882064986
13882069991
13882074691
13882081161
13882085921
13882092086
13882096602
13882101851
13882107955
13882115584
13882121199
13882125716
13882131942
13882137679
13882144027
13882147261
13882155562
13882160811
13882165084
13882172774
13882177230
13882183089
13882188399
13882194258
13882199813
13882206832
13882212813
13882217879
13882222762
13882229842
13882234908
13882239790
13882247054
13882251265
13882258467
13882264449
13882269698
13882275862
13882282088
13882289351
13882295088
13882301192
13882307722
13882315901
13882322798
13882329390
13882334944
13882340620
13882346968
13882353926
13882359236
13882365523
13882371016
13882377058
13882383650
13882393538
13882400190
13882408003
13882414167
13882422102
13882431868
13882439741
13882445906
13882452803
13882460066
13882468122
13882475813
13882485212
13882492658
13882498701
13882506208
13882513838
13882522138
13882530561
13882536115
13882541975
13882553693
13882558149
13882567548
13882576093
13882583784
13882589643
13882596235
13882604841
13882614362
13882620466
13882627729
13882636274
13882641889
13882651166
13882658552
13882665449
13882673444
13882682660
13882687543
13882696821
13882704267
13882711591
13882718732
13882726300
13882733808
13882741986
13882749372
13882756757
13882762738
13882771955
13882777814
13882786786
13882792951
13882803693
13882810407
13882818158
13882826032
13882833539
13882839765
13882847150
13882856000
13882864972
13882874493
13882880719
13882889569
13882894635
13882903546
13882911053
13882917889
13882927472
13882934796
13882943463
13882950787
13882958722
13882965619
13882972394
13882980084
13882988202
13882996624
13883005108
13883012555
13883020428
13883025982
13883034893
13883042706
13883052044
13883059918
13883069073
13883078228
13883084637
13883097515
13883105694
13883115093
13883123943
13883133770
13883140057
13883146832
13883153912
13883163616
13883168865
13883178631
13883183025
13883195110
13883202434
13883209270
13883215862
13883225628
13883232281
13883239605
13883245952
13883256573
13883263469
13883271343
13883278667
13883286052
13883292034
13883299907
13883308452
13883319011
13883325359
13883334026
13883340923
13883349407
13883357524
13883362529
13883371562
13883379680
13883389263
13883396892
13883402873
13883410808
13883417949
13883424236
13883433635
13883440959
13883448100
13883456767
13883463664
13883469890
13883479961
13883486858
13883494243
13883501018
13883508830
13883515422
13883524394
13883530315
13883540141
13883546733
13883554912
13883562968
13883570842
13883579631
13883587443
13883593364
13883600932
13883612712
13883621013
13883626933
13883636210
13883644572
13883650431
13883659770
13883665080
13883674357
13883682170
13883688944
13883696818
13883705851
13883711955
13883720622
13883726054
13883735941
13883741923
13883749308
13883756754
13883765543
13883773356
13883779337
13883785136
13883789225
13883793619
13883799784
13883806681
13883812662
13883818766
13883823344
13883828715
13883837382
13883844828
13883851481
13883855265
13883864969
13883871744
13883878824
13883887674
13883894510
13883899149
13883903971
13883909586
13883915262
13883920939
13883926676
13883933084
13883939066
13883943766
13883951090
13883954203
13883961100
13883965677
13883970621
13883973307
13883980265
13883985391
13883991251
13883995584
13884002054
13884007608
13884012003
13884016519
13884023844
13884029398
13884036295
13884039713
13884046793
13884051737
13884057230
13884062723
13884067667
13884072549
13884080850
13884085794
13884091959
13884096536
13884101724
13884106485
13884112466
13884118082
13884124124
13884129739
13884135477
13884140237
13884146097
13884151468
13884155862
13884161600
13884168313
13884173440
13884178201
13884183450
13884187967
13884193887
13884200235
13884205606
13884208413
13884216897
13884220254
13884226785
13884230996
13884237466
13884244973
13884251687
13884254861
13884264321
13884269692
13884275125
13884279763
13884285134
13884289834
13884296304
13884300759
13884308084
13884313149
13884319253
13884323525
13884329202
13884333657
13884339333
13884343606
13884350503
13884355080
13884361245
13884366433
13884371804
13884376504
13884381020
13884386758
13884395669
13884403176
13884408242
13884414651
13884419778
13884427712
13884434609
13884442238
13884449074
13884455544
13884461464
13884466897
13884471779
13884477639
13884481667
13884486489
13884496010
13884500893
13884506936
13884511574
13884515725
13884521950
13884526589
13884533303
13884539101
13884544777
13884550576
13884556130
13884561257
13884566323
13884570290
13884575539
13884580605
13884587990
13884593117
13884599587
13884605995
13884611550
13884617470
13884626930
13884632912
13884644264
13884651100
13884659462
13884665627
13884673988
13884679909
13884688637
13884696327
13884704811
13884711159
13884720436
13884726356
13884735023
13884741493
13884748451
13884757057
13884765724
13884772926
13884779945
13884787269
13884793983
13884801796
13884809913
13884817848
13884821693
13884833595
13884841713
13884849342
13884857887
13884865943
13884872840
13884880226
13884886390
13884896095
13884902625
13884912269
13884918739
13884926856
13884934486
13884941505
13884947669
13884957801
13884964515
13884973121
13884980018
13884987037
13884993934
13885000587
13885008033
13885016090
13885025855
13885032203
13885039588
13885049048
13885056251
13885063025
13885070228
13885076575
13885086219
13885090613
13885102576
13885108985
13885119910
13885128333
13885136634
13885147498
13885154822
13885164282
13885174903
13885183509
13885192603
13885200659
13885210425
13885217017
13885224768
13885230628
13885240027
13885247961
13885253882
13885262061
13885269446
13885279395
13885287146
13885295569
13885305456
13885312170
13885321692
13885329138
13885338965
13885348059
13885356360
13885361853
13885370581
13885377539
13885384375
13885391638
13885401465
13885408300
13885417761
13885424475
13885432043
13885439733
13885448217
13885456274
13885464697
13885471350
13885479528
13885486303
13885496252
13885504370
13885512426
13885519201
13885526647
13885536901
13885544775
13885551855
13885555517
13885567907
13885571935
13885580846
13885586950
13885596410
13885602453
13885612707
13885619482
13885627843
13885635656
13885642492
13885650915
13885657201
13885663976
13885671911
13885681127
13885688329
13885695775
13885703283
13885710118
13885717321
13885725438
13885732335
13885740575
13885746984
13885756078
13885761937
13885771092
13885777013
13885785680
13885792027
13885803136
13885809606
13885816380
13885825231
13885831700
13885840733
13885847325
13885853917
13885864720
13885871922
13885879063
13885886143
13885890050
13885900731
13885908421
13885915929
13885926488
13885935582
13885947728
13885955784
13885969273
13885985508
13885993870
13886004490
13886012181
13886017979
13886023167
13886027439
13886035496
13886041600
13886047642
13886050694
13886058872
13886064915
13886069554
13886072727
13886080052
13886085850
13886092747
13886098301
13886105198
13886108616
13886115879
13886121250
13886126927
13886131992
13886137974
13886143467
13886148777
13886155979
13886160496
13886165562
13886170933
13886175938
13886181675
13886190037
13886195042
13886201572
13886207065
13886212376
13886216709
13886222263
13886228367
13886233005
13886237888
13886244541
13886249241
13886254490
13886260532
13886264621
13886269077
13886276157
13886282688
13886288730
13886294101
13886298374
13886304355
13886309299
13886314670
13886320591
13886325779
13886331394
13886337741
13886342990
13886348728
13886355564
13886361179
13886370273
13886376132
13886382480
13886387241
13886393894
13886400119
13886405002
13886410800
13886419772
13886424899
13886431979
13886437656
13886442661
13886450351
13886455600
13886462619
13886467624
13886475742
13886479831
13886487094
13886491672
13886496432
13886502780
13886506747
13886511081
13886518222
13886523105
13886529391
13886533969
13886541598
13886548739
13886555148
13886563998
13886569980
13886577182
13886580783
13886592990
13886598788
13886603183
13886606723
13886613070
13886618197
13886623446
13886628756
13886632113
13886638827
13886643222
13886648226
13886654025
13886658236
13886664157
13886670321
13886675997
13886682467
13886687777
13886693759
13886700594
13886705843
13886710787
13886717806
13886723544
13886729769
13886734408
13886740450
13886746066
13886751437
13886758700
13886763216
13886769503
13886772555
13886781161
13886788363
13886794466
13886798922
13886807406
13886813265
13886819308
13886825655
13886829867
13886835421
13886842867
13886847811
13886854647
13886859163
13886864046
13886872347
13886879488
13886886507
13886894503
13886903231
13886910311
13886915926
13886924288
13886928377
13886939791
13886943819
13886954805
13886961702
13886971224
13886978487
13886987032
13886993318
13887000398
13887008638
13887017244
13887028108
13887034700
13887042696
13887049532
13887057527
13887066072
13887074190
13887078706
13887088899
13887097139
13887105623
13887109956
13887120271
13887126741
13887135469
13887141633
13887147615
13887157686
13887165132
13887172273
13887179231
13887187593
13887194612
13887202485
13887211152
13887223298
13887235993
13887245027
13887256257
13887267060
13887279389
13887286408
13887295320
13887300385
13887308625
13887312531
13887322541
13887331391
13887338899
13887347871
13887355195
13887363557
13887371186
13887380097
13887387910
13887394990
13887403718
13887409455
13887416474
13887425141
13887432343
13887436677
13887446869
13887455109
13887463471
13887470734
13887478791
13887486847
13887492157
13887501740
13887509247
13887515900
13887525727
13887533234
13887540680
13887548310
13887555695
13887563874
13887568146
13887580353
13887587921
13887596710
13887605194
13887613190
13887619598
13887628510
13887635956
13887641998
13887650848
13887659393
13887666779
13887672882
13887681976
13887687530
13887696075
13887703277
13887711334
13887719818
13887727691
13887735565
13887743866
13887751739
13887760772
13887768158
13887774200
13887782867
13887788849
13887799286
13887804779
13887813751
13887820159
13887830108
13887837188
13887844207
13887852752
13887860259
13887868194
13887876373
13887883758
13887891754
13887898345
13887908538
13887914886
13887923003
13887931426
13887938750
13887945953
13887953765
13887958038
13887971709
13887981109
13887988921
13887995269
13888003448
13888011565
13888020598
13888034575
13888040862
13888053069
13888061736
13888069487
13888077544
13888085906
13888090789
13888102019
13888111113
13888118682
13888127166
13888134551
13888139983
13888147124
13888154753
13888162871
13888171294
13888179595
13888183562
13888192717
13888199370
13888207121
13888212920
13888221892
13888227629
13888237700
13888244292
13888252531
13888259306
13888266875
13888275420
13888281096
13888285857
13888292815
13888297514
13888303557
13888307768
13888312041
13888317534
13888321684
13888328093
13888333281
13888338957
13888343840
13888349089
13888354460
13888359587
13888364348
13888370695
13888377348
13888381743
13888387968
13888392241
13888399076
13888404203
13888409147
13888414457
13888420317
13888426542
13888434294
13888438566
13888443998
13888449797
13888454313
13888459318
13888465238
13888471342
13888477934
13888483732
13888488554
13888493192
13888498380
13888504423
13888509062
13888514433
13888520963
13888528288
13888532255
13888538358
13888543485
13888549467
13888554411
13888560880
13888566251
13888573453
13888579191
13888585905
13888591398
13888594449
13888600919
13888605741
13888612394
13888617582
13888624906
13888629850
13888637052
13888639921
13888648282
13888653592
13888661039
13888666959
13888674283
13888680082
13888688199
13888695829
13888704251
13888710538
13888719998
13888724881
13888730069
13888737332
13888743375
13888747953
13888753934
13888760648
13888766202
13888770535
13888776029
13888781949
13888787808
13888792935
13888799893
13888806485
13888811978
13888817349
13888822598
13888828763
13888835110
13888840482
13888846646
13888854581
13888860928
13888866299
13888873868
13888879788
13888884549
13888891446
13888897610
13888904629
13888908841
13888915249
13888920193
13888926480
13888932950
13888938504
13888944668
13888949978
13888954007
13888960659
13888967923
13888973904
13888977078
13888984280
13888989773
13888996426
13889001919
13889008694
13889014859
13889018948
13889024319
13889030606
13889037869
13889042691
13889047756
13889052944
13889058010
13889063320
13889069668
13889074307
13889079189
13889086819
13889092434
13889098293
13889104641
13889110317
13889115933
13889120937
13889127651
13889135281
13889142727
13889150173
13889158230
13889165066
13889175198
13889181911
13889191555
13889197964
13889208950
13889215847
13889222988
13889232754
13889239040
13889249294
13889256008
13889265896
13889274746
13889282497
13889289089
13889297268
13889304226
13889316127
13889324245
13889332790
13889337734
13889352138
13889360317
13889368556
13889376674
13889385890
13889395778
13889403896
13889412196
13889420070
13889426357
13889435939
13889444789
13889449916
13889459254
13889465480
13889475795
13889484462
13889491847
13889500636
13889508143
13889515590
13889523585
13889530543
13889538478
13889548610
13889557155
13889564174
13889572352
13889578822
13889588527
13889594935
13889604213
13889613368
13889621241
13889629847
13889636622
13889646266
13889653529
13889660975
13889670313
13889678248
13889686183
13889696070
13889702723
13889710169
13889719386
13889727320
13889734217
13889742335
13889752711
13889759058
13889768580
13889774744
13889783655
13889790308
13889799830
13889807032
13889814478
13889825586
13889831873
13889840174
13889848291
13889858973
13889865992
13889873499
13889882959
13889891993
13889898584
13889907495
13889915430
13889923487
13889930628
13889938501
13889947595
13889954431
13889964075
13889970606
13889977991
13889985376
13889995081
13890001489
13890010400
13890017481
13890026697
13890034631
13890041589
13890049524
13890058862
13890065027
13890073877
13890081384
13890091089
13890099389
13890108056
13890116235
13890123010
13890130517
13890140344
13890154016
13890162866
13890171472
13890179528
13890187829
13890197412
13890206323
13890214685
13890223718
13890231347
13890240014
13890248559
13890256677
13890263268
13890272119
13890280663
13890290978
13890299889
13890308190
13890314782
13890322167
13890331811
13890337121
13890346947
13890354272
13890363671
13890371300
13890378380
13890384911
13890393517
13890402672
13890410607
13890418725
13890426842
13890435448
13890442101
13890450707
13890457970
13890466454
13890475182
13890481713
13890489891
13890499230
13890506249
13890514366
13890520836
13890531334
13890538475
13890546776
13890554466
13890564720
13890570336
13890580528
13890587242
13890595970
13890602379
13890611229
13890617638
13890626183
13890630882
13890636192
13890643883
13890648216
13890655052
13890659752
13890667381
13890673607
13890680809
13890685997
13890691490
13890697288
13890703148
13890709617
13890715416
13890720360
13890727257
13890732200
13890737449
13890743431
13890750145
13890753502
13890760521
13890767784
13890773826
13890779502
13890785606
13890790855
13890797081
13890802513
13890807090
13890813377
13890819480
13890825401
13890831687
13890837364
13890842918
13890847312
13890852744
13890857994
13890866233
13890872581
13890878501
13890883201
13890889915
13890896201
13890902427
13890908653
13890917686
13890924766
13890931297
13890938926
13890945518
13890951804
13890959312
13890965110
13890972251
13890977683
13890984458
13890988364
13890994285
13890999106
13891004539
13891009604
13891016562
13891021079
13891026267
13891032309
13891037864
13891043601
13891049704
13891056296
13891061301
13891065818
13891072470
13891077231
13891082480
13891087302
13891093467
13891099570
13891105185
13891111716
13891117331
13891123313
13891129172
13891135459
13891140036
13891144919
13891151206
13891157858
13891163230
13891169943
13891174521
13891181296
13891186179
13891192160
13891198691
13891204062
13891211203
13891217307
13891224142
13891229514
13891234579
13891240927
13891246603
13891253073
13891258688
13891265036
13891269980
13891276510
13891283407
13891288534
13891295614
13891301047
13891306479
13891312887
13891319235
13891325216
13891330465
13891335775
13891342672
13891349508
13891356344
13891361532
13891367575
13891373556
13891379660
13891384359
13891390280
13891395468
13891403097
13891408346
13891416037
13891421896
13891428305
13891433248
13891439230
13891445089
13891452047
13891456930
13891463217
13891467977
13891474508
13891479330
13891485800
13891490560
13891498739
13891505575
13891516073
13891523641
13891532186
13891541524
13891548788
13891560201
13891574789
13891589132
13891594991
13891604818
13891611471
13891620504
13891627340
13891636495
13891643453
13891651143
13891658040
13891667623
13891674581
13891682820
13891691121
13891699788
13891706197
13891715474
13891722310
13891731771
13891740438
13891746846
13891756246
13891762410
13891772481
13891779805
13891787923
13891795247
13891805501
13891812093
13891820821
13891830647
13891839497
13891846394
13891854512
13891861165
13891869832
13891878987
13891887532
13891894246
13891902058
13891912007
13891919880
13891927266
13891935566
13891943196
13891950276
13891958455
13891966877
13891977742
13891984578
13891992695
13892001240
13892009297
13892016438
13892025410
13892032002
13892041340
13892049763
13892058003
13892066425
13892074604
13892081013
13892090168
13892100666
13892110065
13892117573
13892125751
13892136127
13892144306
13892151813
13892159809
13892170002
13892178303
13892185566
13892193867
13892201008
13892210773
13892215778
13892226032
13892233906
13892244281
13892249714
13892259845
13892267109
13892276813
13892284504
13892292499
13892302082
13892309589
13892318622
13892326496
13892334735
13892345783
13892354694
13892362506
13892370929
13892380512
13892389301
13892401080
13892408771
13892416766
13892423907
13892432758
13892441058
13892449176
13892456744
13892467547
13892471881
13892482074
13892488666
13892498431
13892504962
13892514422
13892523089
13892529498
13892539264
13892548480
13892554950
13892563800
13892571307
13892580706
13892588092
13892595294
13892604083
13892612872
13892621051
13892628314
13892636737
13892644061
13892655413
13892661700
13892670184
13892676653
13892686480
13892695635
13892701495
13892711138
13892718584
13892728045
13892735125
13892745196
13892751726
13892761431
13892769549
13892777239
13892781817
13892792864
13892801958
13892810625
13892814898
13892825945
13892832415
13892841387
13892850664
13892861040
13892867754
13892876116
13892884783
13892890093
13892900286
13892907915
13892916094
13892925371
13892935320
13892942705
13892952287
13892959734
13892967058
13892975420
13892982805
13892993303
13892999895
13893004594
13893010942
13893015215
13893021257
13893026445
13893030840
13893038347
13893043291
13893050432
13893054094
13893061357
13893066301
13893073259
13893080400
13893086381
13893092668
13893098344
13893101701
13893109697
13893115251
13893121660
13893125078
13893135209
13893141252
13893146135
13893152604
13893160173
13893165178
13893173356
13893181657
13893187883
13893194413
13893201493
13893205766
13893210954
13893216447
13893223527
13893228105
13893232865
13893237565
13893243913
13893249650
13893254594
13893260209
13893266068
13893272477
13893278397
13893282975
13893288590
13893294999
13893301041
13893305436
13893309769
13893316056
13893321244
13893328324
13893333878
13893339005
13893345109
13893350785
13893356522
13893363114
13893366410
13893375138
13893379532
13893386185
13893391129
13893397904
13893403458
13893410172
13893414872
13893422684
13893430924
13893436844
13893443070
13893447342
13893454667
13893458939
13893466629
13893471878
13893478653
13893484452
13893490738
13893496659
13893502701
13893508560
13893514420
13893521561
13893527664
13893532669
13893538712
13893545181
13893551041
13893555985
13893562637
13893568070
13893577408
13893584305
13893589920
13893597733
13893603775
13893607986
13893614029
13893619034
13893626541
13893631668
13893637466
13893643753
13893649795
13893654556
13893659866
13893665909
13893670303
13893676895
13893681595
13893688492
13893694412
13893699356
13893705276
13893710586
13893718399
13893723221
13893729568
13893735733
13893740738
13893746658
13893753494
13893760208
13893766861
13893775650
13893779739
13893787918
13893793289
13893800369
13893805679
13893811050
13893817642
13893823684
13893828872
13893834121
13893839675
13893844497
13893849746
13893855666
13893863113
13893868545
13893873794
13893879714
13893885696
13893893203
13893900405
13893908340
13893917190
13893925002
13893932265
13893939712
13893946670
13893953994
13893960403
13893969802
13893975478
13893985366
13893991225
13894000258
13894008559
13894016250
13894022780
13894030288
13894038710
13894047011
13894055434
13894061660
13894071913
13894078871
13894086379
13894093520
13894101821
13894109755
13894120680
13894127089
13894135634
13894143202
13894151442
13894158888
13894168959
13894175551
13894184950
13894193434
13894202773
13894209242
13894219130
13894226271
