13738638412
13738653549
13738663620
13738675278
13738686386
13738697433
13738709396
13738722519
13738733627
13738745163
13738760360
13738776046
13738788864
13738801986
13738815536
13738826889
13738838668
13738850997
13738863754
13738873458
13738883651
13738893844
13738903793
13738914779
13738926254
13738939315
13738948836
13738959945
13738969527
13738977706
13738985396
13738992599
13739001327
13739008773
13739015304
13739023299
13739029952
13739037154
13739045577
13739053878
13739058150
13739067305
13739073287
13739080611
13739089705
13739099349
13739106490
13739114791
13739120040
13739127608
13739134261
13739141524
13739149520
13739154158
13739163130
13739169844
13739177168
13739186263
13739193465
13739200911
13739206526
13739212019
13739220625
13739226118
13739232710
13739240157
13739246565
13739253950
13739259688
13739266890
13739272627
13739280073
13739285689
13739294111
13739299299
13739306746
13739314680
13739322004
13739328291
13739336104
13739342695
13739349470
13739355146
13739362776
13739369062
13739376509
13739383345
13739389387
13739396528
13739403852
13739409407
13739416304
13739423201
13739429426
13739435530
13739442427
13739450422
13739455610
13739464033
13739472334
13739479536
13739486494
13739500898
13739506818
13739515180
13739523603
13739530683
13739535871
13739542158
13739549421
13739557478
13739563703
13739570844
13739579084
13739585981
13739592267
13739598981
13739606428
13739613630
13739620649
13739627302
13739632978
13739641095
13739644941
13739657331
13739663373
13739671735
13739678449
13739684430
13739690168
13739697919
13739703839
13739709577
13739718732
13739725019
13739731305
13739739728
13739746808
13739754010
13739758649
13739768903
13739779157
13739786359
13739792279
13739800336
13739806317
13739813702
13739819745
13739827924
13739835614
13739842816
13739850568
13739857526
13739862530
13739870282
13739877484
13739886578
13739891949
13739899701
13739905011
13739912762
13739918194
13739926007
13739930462
13739938946
13739946515
13739953717
13739959210
13739966412
13739971966
13739979168
13739987713
13739997479
13740004559
13740011395
13740020428
13740027325
13740036175
13740042950
13740051556
13740058636
13740065228
13740071819
13740078594
13740085186
13740093853
13740102154
13740107891
13740115459
13740121136
13740129192
13740134563
13740143291
13740151714
13740164837
13740170330
13740179302
13740188335
13740196087
13740205120
13740211468
13740218181
13740226482
13740231853
13740239666
13740245830
13740254253
13740263775
13740269390
13740278118
13740284954
13740292583
13740300945
13740308452
13740314495
13740323650
13740329631
13740336223
13740344219
13740350566
13740357768
13740363628
13740370159
13740376628
13740380351
13740385845
13740390178
13740395427
13740402751
13740406780
13740413860
13740418864
13740424480
13740430400
13740435771
13740440166
13740444865
13740448650
13740455058
13740460002
13740465678
13740471232
13740476482
13740479411
13740486247
13740490642
13740498088
13740503398
13740510356
13740516520
13740522624
13740526896
13740533183
13740538920
13740545878
13740551677
13740557109
13740561015
13740568034
13740572612
13740576640
13740582682
13740588359
13740595073
13740600199
13740605632
13740611125
13740617961
13740622721
13740629679
13740635234
13740641581
13740646830
13740650920
13740656291
13740661479
13740667033
13740671732
13740679728
13740685404
13740691203
13740696940
13740701334
13740706767
13740712199
13740715372
13740723795
13740729411
13740735697
13740742045
13740748820
13740755472
13740762675
13740768656
13740776774
13740781779
13740787821
13740795328
13740800577
13740806803
13740811136
13740817972
13740823465
13740827555
13740831766
13740837809
13740842447
13740847818
13740853067
13740861551
13740866800
13740871805
13740877726
13740882486
13740886332
13740891031
13740895548
13740903482
13740907938
13740913858
13740918436
13740924295
13740928873
13740934549
13740938822
13740946512
13740951029
13740955789
13740961771
13740965494
13740972452
13740977579
13740982279
13740986429
13740993509
13740997476
13741003946
13741007425
13741013162
13741018961
13741024088
13741029703
13741035745
13741040567
13741046182
13741052042
13741056009
13741060403
13741068094
13741071023
13741077615
13741082193
13741088663
13741092996
13741097024
13741103006
13741107400
13741114236
13741120584
13741125223
13741130899
13741135598
13741142251
13741146768
13741151407
13741156533
13741163247
13741169595
13741176553
13741183877
13741191690
13741199136
13741204751
13741215005
13741222268
13741231668
13741236978
13741245584
13741252725
13741261331
13741266946
13741275613
13741285378
13741291787
13741298928
13741308389
13741315896
13741321755
13741331582
13741340981
13741352639
13741363015
13741372536
13741383401
13741391823
13741402077
13741408608
13741418129
13741425332
13741434853
13741443154
13741449746
13741458779
13741465676
13741474465
13741481118
13741490090
13741496498
13741505837
13741512734
13741523110
13741532265
13741539894
13741548927
13741556618
13741563820
13741572060
13741580361
13741587624
13741597267
13741604713
13741612221
13741620522
13741628151
13741636574
13741644264
13741649879
13741660011
13741666664
13741675819
13741683937
13741687904
13741697426
13741703346
13741711769
13741718055
13741730079
13741736610
13741744789
13741752540
13741758400
13741767006
13741773109
13741782386
13741789772
13741798988
13741807289
13741813270
13741820289
13741829261
13741835243
13741844032
13741852271
13741859962
13741867347
13741874061
13741882179
13741889564
13741895301
13741904578
13741910621
13741920387
13741926002
13741933387
13741940955
13741949622
13741959022
13741967628
13741976234
13741984534
13741991065
13741999305
13742006934
13742015296
13742023292
13742031348
13742040564
13742047278
13742055640
13742064429
13742072486
13742080359
13742088843
13742095130
13742103797
13742111853
13742119666
13742125098
13742135718
13742144568
13742152075
13742161597
13742169409
13742180640
13742189856
13742196326
13742205481
13742213599
13742219946
13742227881
13742236487
13742242102
13742249670
13742257178
13742263037
13742271216
13742276892
13742285925
13742294897
13742299902
13742308630
13742316504
13742322607
13742329199
13742338537
13742344824
13742354345
13742360022
13742370031
13742376623
13742384619
13742392248
13742400183
13742407568
13742415563
13742422521
13742432348
13742438818
13742447485
13742454260
13742462744
13742469946
13742478185
13742486120
13742494054
13742502294
13742509740
13742518285
13742526159
13742534093
13742540502
13742549047
13742555517
13742563512
13742573217
13742580297
13742587743
13742594945
13742601232
13742606298
13742611913
13742618139
13742624669
13742630956
13742636449
13742641759
13742647191
13742651952
13742658056
13742662511
13742667394
13742674413
13742679052
13742684667
13742690587
13742695653
13742700475
13742706395
13742712987
13742719823
13742725865
13742731908
13742736485
13742742650
13742746922
13742752538
13742759252
13742766454
13742773229
13742778600
13742783421
13742788548
13742794225
13742798375
13742802403
13742809178
13742815221
13742820653
13742823705
13742831395
13742835545
13742842076
13742846837
13742855076
13742860081
13742871373
13742878636
13742884007
13742889561
13742896336
13742902867
13742906834
13742911595
13742917210
13742921483
13742926976
13742935215
13742939427
13742946263
13742950169
13742956456
13742960179
13742965672
13742969761
13742975987
13742980015
13742988072
13742992161
13742997715
13743001988
13743006321
13743011509
13743016270
13743018955
13743027134
13743033360
13743038243
13743044346
13743049656
13743053501
13743058201
13743063938
13743070469
13743074864
13743080235
13743086582
13743090794
13743096043
13743102146
13743106541
13743112705
13743117588
13743123142
13743127659
13743132847
13743138279
13743143589
13743148533
13743153416
13743158543
13743163547
13743168918
13743174351
13743179722
13743183689
13743189487
13743193393
13743199985
13743204624
13743210972
13743215000
13743220859
13743225132
13743230259
13743236484
13743242893
13743249363
13743252658
13743258762
13743264438
13743269809
13743275180
13743280368
13743287265
13743291660
13743298313
13743303806
13743307407
13743313755
13743318332
13743323459
13743331455
13743336643
13743342380
13743347141
13743351474
13743356357
13743361545
13743368198
13743373020
13743378391
13743383090
13743388156
13743393893
13743401889
13743408664
13743417758
13743426181
13743434665
13743444614
13743456271
13743464694
13743471835
13743479892
13743488620
13743497043
13743505649
13743514010
13743518344
13743529208
13743536654
13743544528
13743551120
13743561007
13743567904
13743577487
13743584994
13743593295
13743600070
13743609469
13743616122
13743626071
13743633700
13743641879
13743649447
13743660128
13743666171
13743675509
13743680819
13743690463
13743699313
13743705294
13743713107
13743720553
13743726473
13743735323
13743741549
13743754122
13743761141
13743768709
13743776827
13743781710
13743790682
13743798494
13743804415
13743813570
13743820528
13743827608
13743834932
13743842318
13743848116
13743854769
13743863314
13743872652
13743881746
13743887972
13743895662
13743903292
13743910128
13743918672
13743925936
13743931673
13743941561
13743949251
13743957063
13743963838
13743971224
13743979402
13743987093
13743993745
13744001741
13744009798
13744020113
13744027315
13744035005
13744042329
13744050020
13744057527
13744065523
13744072908
13744080781
13744088167
13744095613
13744103608
13744111055
13744117280
13744127900
13744134553
13744144136
13744150483
13744157808
13744163667
13744173127
13744179963
13744191133
13744200288
13744208039
13744216706
13744225312
13744234040
13744241853
13744248994
13744259492
13744266023
13744273774
13744280915
13744287812
13744296357
13744303376
13744312470
13744319367
13744327058
13744334138
13744341828
13744349274
13744356293
13744364594
13744372712
13744381440
13744389191
13744397858
13744406525
13744414582
13744421479
13744429413
13744438202
13744446259
13744453522
13744461518
13744466034
13744476715
13744483246
13744491913
13744498322
13744507904
13744514618
13744523895
13744530548
13744541657
13744550446
13744557221
13744567230
13744577667
13744584259
13744593292
13744599884
13744609405
13744616241
13744622772
13744632355
13744638397
13744647613
13744655304
13744663238
13744671600
13744679230
13744687591
13744695282
13744702972
13744710418
13744719085
13744727081
13744735077
13744742157
13744750152
13744757965
13744766326
13744774688
13744783599
13744790924
13744797027
13744805633
13744814971
13744823455
13744831634
13744838897
13744844634
13744848663
13744855438
13744860992
13744865447
13744872466
13744876495
13744881988
13744888274
13744893157
13744899505
13744904082
13744909087
13744915130
13744920562
13744925689
13744931670
13744937224
13744942840
13744946258
13744954436
13744959807
13744967437
13744978057
13744984282
13744990935
13744996856
13745001189
13745007293
13745012420
13745018462
13745021209
13745030181
13745034758
13745040313
13745045501
13745051787
13745054778
13745062957
13745066069
13745074187
13745079680
13745087126
13745091033
13745097747
13745102263
13745107634
13745114775
13745122893
13745127593
13745133269
13745137785
13745143279
13745149260
13745153410
13745159880
13745165129
13745171904
13745176604
13745182829
13745188261
13745192778
13745198820
13745202971
13745210905
13745216826
13745223296
13745228728
13745235136
13745240080
13745246184
13745250700
13745255278
13745260832
13745266691
13745271696
13745278044
13745282377
13745288237
13745292814
13745299711
13745305632
13745311064
13745315947
13745322050
13745326872
13745332670
13745337553
13745345243
13745350798
13745356962
13745362822
13745368315
13745373625
13745377287
13745382841
13745392668
13745407621
13745412199
13745418302
13745422758
13745428678
13745431608
13745439115
13745443876
13745449613
13745452970
13745459013
13745463102
13745469694
13745475797
13745482450
13745485563
13745492643
13745498624
13745504423
13745507413
13745514127
13745521757
13745527860
13745533353
13745539823
13745546720
13745552579
13745558195
13745569486
13745576993
13745583036
13745586881
13745591215
13745598600
13745603360
13745610196
13745616178
13745621732
13745627347
13745632413
13745637479
13745642484
13745645475
13745652677
13745657254
13745665860
13745670499
13745677640
13745684171
13745692166
13745697782
13745706204
13745712186
13745722562
13745731412
13745736966
13745745877
13745752957
13745758695
13745765775
13745774808
13745785733
13745790250
13745799710
13745807950
13745813504
13745822049
13745828702
13745837491
13745845303
13745852383
13745859585
13745868008
13745875882
13745882046
13745888821
13745897915
13745906888
13745914273
13745922451
13745932339
13745940152
13745947781
13745956265
13745967556
13745973782
13745982144
13745988858
13745998318
13746004910
13746013882
13746019802
13746028652
13746035000
13746044888
13746052578
13746062344
13746070217
13746080837
13746087429
13746097683
13746105617
13746114895
13746121181
13746128628
13746135952
13746143276
13746147121
13746158047
13746164028
13746175564
13746179653
13746189174
13746195095
13746203823
13746210354
13746217800
13746227871
13746234584
13746244289
13746251674
13746259304
13746272426
13746284389
13746292018
13746300991
13746310695
13746317836
13746327541
13746334560
13746342250
13746350551
13746358791
13746369594
13746377834
13746385341
13746393764
13746400905
13746408656
13746416164
13746424831
13746430873
13746437099
13746445766
13746451991
13746458583
13746467128
13746476039
13746482020
13746493617
13746499232
13746509242
13746517115
13746523585
13746530482
13746537440
13746546290
13746552394
13746558558
13746567836
13746574549
13746580958
13746588099
13746595362
13746604151
13746611476
13746618434
13746626002
13746632594
13746642481
13746647425
13746658473
13746667017
13746674403
13746681239
13746690211
13746698267
13746704371
13746711878
13746718653
13746728846
13746737330
13746743983
13746750025
13746756556
13746764002
13746771570
13746780665
13746787439
13746793299
13746801783
13746807459
13746814600
13746821192
13746830652
13746838526
13746850061
13746857691
13746864283
13746871485
13746879602
13746886988
13746895532
13746907923
13746913843
13746922876
13746931238
13746939417
13746947351
13746953516
13746962793
13746969629
13746978052
13746986780
13746993066
13746999963
13747008630
13747018518
13747027612
13747036035
13747043176
13747051355
13747059900
13747067834
13747078515
13747084741
13747090234
13747096155
13747100244
13747104760
13747109521
13747115930
13747122033
13747127282
13747132104
13747137780
13747141137
13747150354
13747155236
13747161462
13747166528
13747173974
13747179284
13747183801
13747188012
13747193566
13747199121
13747203698
13747210290
13747214990
13747220910
13747225610
13747230554
13747235986
13747242272
13747248681
13747256005
13747261071
13747267480
13747272668
13747280236
13747285302
13747291039
13747296899
13747302453
13747309106
13747313500
13747321435
13747326012
13747331322
13747337792
13747343529
13747349084
13747356103
13747361840
13747368615
13747373742
13747379357
13747385399
13747392174
13747395531
13747403405
13747408165
13747414940
13747420861
13747425621
13747434594
13747440453
13747446556
13747451683
13747458214
13747463280
13747469200
13747474449
13747481346
13747488549
13747493920
13747498619
13747504845
13747509361
13747516686
13747522301
13747526878
13747533409
13747541832
13747548119
13747555809
13747562584
13747569786
13747573204
13747579796
13747584557
13747592064
13747601097
13747606529
13747612755
13747617821
13747622948
13747629784
13747634849
13747641624
13747648643
13747655906
13747662193
13747668236
13747674217
13747679039
13747683677
13747690696
13747695640
13747700767
13747706871
13747713707
13747718467
13747724022
13747730857
13747735679
13747740196
13747745018
13747751854
13747757164
13747761985
13747767356
13747770164
13747779075
13747783409
13747788780
13747794334
13747800132
13747805625
13747811424
13747817100
13747823142
13747828575
13747833030
13747839134
13747842429
13747847495
13747852805
13747860008
13747866355
13747873008
13747877525
13747882896
13747888267
13747894187
13747901572
13747906760
13747910789
13747916587
13747921653
13747927817
13747933921
13747942222
13747951499
13747959311
13747967246
13747976157
13747982993
13747990867
13747999534
13748005210
13748013755
13748021506
13748029746
13748037253
13748046469
13748053733
13748059958
13748069785
13748075400
13748083213
13748092368
13748101157
13748110068
13748117514
13748124777
13748133933
13748140341
13748149374
13748157980
13748163840
13748172507
13748178549
13748187704
13748193625
13748203635
13748211325
13748219748
13748227804
13748236105
13748243613
13748251486
13748257773
13748269003
13748276571
13748286154
13748295370
13748302939
13748312643
13748319967
13748326742
13748335043
13748343100
13748353903
13748360372
13748371054
13748377035
13748387411
13748393148
13748403219
13748411398
13748421346
13748429586
13748435812
13748445516
13748454977
13748462789
13748470724
13748478475
13748485067
13748492818
13748498800
13748507528
13748513631
13748523885
13748530660
13748538595
13748544820
13748554525
13748561361
13748569051
13748576680
13748584615
13748592916
13748600850
13748607686
13748615926
13748623250
13748631307
13748639730
13748647176
13748654256
13748661946
13748670980
13748678426
13748685811
13748691304
13748700032
13748707967
13748716634
13748724141
13748730672
13748738057
13748746602
13748753377
13748760823
13748768208
13748775899
13748784138
13748793660
13748801533
13748807637
13748817708
13748825032
13748831868
13748840901
13748851704
13748858174
13748866658
13748871968
13748881123
13748890767
13748897053
13748905476
13748914570
13748921833
13748928181
13748936238
13748944111
13748951619
13748959431
13748966694
13748974812
13748981404
13748989155
13748995686
13749003254
13749010029
13749020222
13749029682
13749037739
13749042561
13749055439
13749063679
13749069660
13749076984
13749091206
13749099628
13749127582
13749133686
13749143513
13749152912
13749159565
13749167377
13749174823
13749183185
13749190815
13749197590
13749206623
13749217243
13749224567
13749231708
13749238178
13749245075
13749251300
13749260517
13749269062
13749275958
13749283649
13749291767
13749299274
13749306232
13749312946
13749318988
13749326984
13749334430
13749339557
13749345050
13749350055
13749355243
13749359027
13749367328
13749372882
13749379108
13749382648
13749389239
13749393634
13749400226
13749404681
13749410968
13749416766
13749422626
13749429706
13749436175
13749441119
13749447223
13749454364
13749459857
13749466266
13749471881
13749476397
13749483966
13749489886
13749495318
13749501300
13749507220
13749512530
13749517596
13749522418
13749529620
13749534320
13749542742
13749549029
13749554766
13749560870
13749566424
13749572650
13749575457
13749584551
13749590045
13749595172
13749600726
13749606829
13749611468
13749617266
13749620013
13749631182
13749636431
13749641924
13749647967
13749652605
13749657061
13749664202
13749669207
13749676531
13749684100
13749688860
13749698016
13749704180
13749710039
13749718584
13749725847
13749733721
13749737932
13749745135
13749748980
13749754229
13749759478
13749765459
13749768511
13749778032
13749783342
13749789080
13749795366
13749800249
13749805010
13749810076
13749817583
13749822222
13749829546
13749833208
13749839373
13749844377
13749851274
13749856340
13749861956
13749868608
13749872881
13749879045
13749884722
13749890825
13749894426
13749900408
13749905351
13749912920
13749919145
13749924883
13749929399
13749935991
13749941728
13749948015
13749953508
13749959673
13749962846
13749971513
13749976579
13749982805
13749987505
13749993669
13749999956
13750005083
13750011674
13750017351
13750023942
13750028642
13750034379
13750040361
13750047319
13750052995
13750058732
13750064653
13750070085
13750074846
13750081071
13750086076
13750091996
13750097123
13750103349
13750110307
13750116960
13750124894
13750132646
13750139543
13750146073
13750154557
13750161759
13750169633
13750175370
13750180680
13750185685
13750191300
13750197831
13750204606
13750211320
13750218644
13750226212
13750233048
13750239335
13750245805
13750252763
13750259171
13750265824
13750275040
13750281998
13750289811
13750297623
13750303666
13750313492
13750327225
13750335953
13750344315
13750353043
13750364335
13750370743
13750375748
13750382767
13750390091
13750396378
13750403031
13750409012
13750413651
13750421219
13750428666
13750436417
13750444413
13750450821
13750456558
13750463272
13750470780
13750477066
13750483048
13750491959
13750498062
13750504471
13750511246
13750517960
13750523636
13750531937
13750537674
13750546219
13750554276
13750560013
13750566238
13750572037
13750577225
13750585586
13750592850
13750599441
13750605911
13750614578
13750619949
13750628738
13750633682
13750642837
13750648147
13750656997
13750664993
13750671768
13750682449
13750689712
13750697158
13750701065
13750714553
13750721084
13750730362
13750735244
13750744461
13750752029
13750758743
13750767959
13750774795
13750781936
13750790359
13750795608
13750803970
13750809951
13750818374
13750827102
13750833144
13750841445
13750850723
13750858047
13750862136
13750872512
13750878738
13750888015
13750894057
13750901870
13750910598
13750915725
13750924514
13750933486
13750940200
13750948867
13750956313
13750965346
13750972976
13750981459
13750988845
13750995742
13751004042
13751014785
13751026686
13751035964
13751043044
13751051772
13751058180
13751066115
13751075209
13751083571
13751089614
13751100478
13751106520
13751112807
13751121596
13751129591
13751135695
13751145461
13751153395
13751160048
13751166945
13751174696
13751181532
13751189040
13751195936
13751205641
13751212477
13751218886
13751226820
13751233839
13751244215
13751251356
13751259169
13751265272
13751273634
13751281569
13751289015
13751295240
13751302748
13751310560
13751318190
13751324415
13751332411
13751341444
13751349440
13751355543
13751362745
13751371534
13751378797
13751386122
13751392957
13751401808
13751408460
13751415357
13751422376
13751430677
13751438368
13751446790
13751456922
13751465528
13751472791
13751481031
13751488843
13751497388
13751503980
13751510206
13751519910
13751529615
13751536268
13751543653
13751551099
13751558423
13751566053
13751570630
13751578016
13751584790
13751590039
13751595105
13751600293
13751603345
13751611097
13751614515
13751622815
13751630567
13751637586
13751643262
13751648389
13751652539
13751658216
13751663465
13751669568
13751675916
13751683179
13751690259
13751695996
13751700757
13751704907
13751709485
13751714612
13751721875
13751727612
13751733167
13751738477
13751746533
13751753735
13751762830
13751767712
13751773816
13751779736
13751785657
13751790112
13751792798
13751799695
13751804761
13751810193
13751816113
13751821850
13751828320
13751832532
13751838513
13751844067
13751849743
13751855847
13751859448
13751865490
13751871106
13751875134
13751881543
13751886486
13751892468
13751898449
13751904553
13751907971
13751915844
13751918530
13751927807
13751933789
13751940014
13751946362
13751953381
13751958813
13751963269
13751968395
13751976330
13751980786
13751988171
13751993359
13751999401
13752005077
13752008984
13752014111
13752021252
13752025829
13752034069
13752042919
13752047131
13752053173
13752060741
13752065441
13752072948
13752078808
13752083996
13752088879
13752096630
13752102489
13752108837
13752113476
13752120189
13752126049
13752131115
13752138500
13752144726
13752150463
13752154491
13752161205
13752166759
13752174083
13752180614
13752187572
13752192699
13752199718
13752205455
13752211437
13752217784
13752222057
13752229015
13752234569
13752239513
13752244457
13752251781
13752257579
13752263072
13752269115
13752274303
13752279918
13752286205
13752292247
13752298107
13752302684
13752309093
13752315379
13752322398
13752327525
13752334728
13752341991
13752347240
13752352306
13752359752
13752364818
13752371593
13752376536
13752382762
13752388072
13752393260
13752400279
13752405589
13752409801
13752418407
13752424205
13752430125
13752438731
13752446422
13752452952
13752459422
13752466990
13752474192
13752483653
13752485606
13752496775
13752502147
13752510142
13752518077
13752525340
13752533091
13752538523
13752546031
13752553599
13752557933
13752568614
13752574961
13752580943
13752591197
13752599253
13752605967
13752613352
13752620371
13752627268
13752635386
13752642588
13752650645
13752658030
13752665781
13752672800
13752679392
13752688547
13752694468
13752700938
13752709116
13752716746
13752726511
13752734263
13752742930
13752750376
13752756113
13752765940
13752772226
13752779978
13752788767
13752796701
13752802500
13752810312
13752817514
13752825754
13752831674
13752838877
13752844553
13752853159
13752859506
13752869455
13752876108
13752881845
13752891123
13752896616
13752907053
13752918832
13752925546
13752935129
13752942392
13752948190
13752957101
13752965402
13752971567
13752981760
13752988473
13752995126
13753005258
13753011850
13753018747
13753026132
13753034311
13753043527
13753052682
13753059518
13753068612
13753075814
13753083871
13753090524
13753101083
13753107248
13753121896
13753127755
13753136788
13753144052
13753153878
13753162362
13753169930
13753175424
13753183785
13753191232
13753199960
13753206063
13753214547
13753219552
13753228585
13753235482
13753244210
13753252328
13753259530
13753265450
13753274667
13753282052
13753289925
13753297799
13753307442
13753315194
13753321847
13753329720
13753336861
13753343636
13753350960
13753358590
13753368782
13753374154
13753383187
13753390328
13753398140
13753406075
13753413399
13753419869
13753427376
13753435799
13753441353
13753449349
13753457344
13753465584
13753473030
13753479195
13753488716
13753497627
13753505318
13753511116
13753519539
13753525337
13753532722
13753542000
13753549202
13753556709
13753564949
13753572273
13753579536
13753590156
13753596016
13753604133
13753612617
13753621467
13753628792
13753636665
13753645088
13753653267
13753659797
13753668037
13753674507
13753685188
13753691719
13753700996
13753708442
13753717292
13753726936
13753734382
13753742439
13753749275
13753759956
13753765754
13753773811
13753781318
13753789253
13753798835
13753805244
13753816657
13753825263
13753832587
13753839362
13753844245
13753849677
13753854621
13753859443
13753866157
13753871772
13753878364
13753885078
13753891852
13753896491
13753903815
13753909308
13753914496
13753923041
13753928840
13753934211
13753939643
13753944770
13753948310
13753954047
13753958014
13753964301
13753968390
13753973029
13753981025
13753989325
13753994452
13754002387
13754006354
13754014228
13754018622
13754025092
13754029731
13754036139
13754040595
13754045722
13754050910
13754056891
13754061225
13754068793
13754073432
13754079657
13754084357
13754092047
13754098456
13754103827
13754108893
13754111456
13754118842
13754125678
13754131537
13754136481
13754143805
13754149542
13754154730
13754159674
13754164618
13754170111
13754174750
13754181402
13754186224
13754191107
13754199042
13754205206
13754211065
13754216070
13754221625
13754225958
13754231878
13754235785
13754241400
13754245550
13754249945
13754253546
13754261480
13754265997
13754272589
13754277227
13754282354
13754286566
13754293097
13754300177
13754306219
13754312628
13754318670
13754324285
13754330999
13754335638
13754341009
13754349798
13754355535
13754360052
13754364996
13754371343
13754375616
13754381414
13754388799
13754395941
13754401312
13754406988
13754412725
13754419805
13754428228
13754433294
13754442510
13754450262
13754456426
13754464117
13754471746
13754476018
13754483465
13754487798
13754492498
13754498601
13754504522
13754509221
13754513189
13754519964
13754523382
13754529241
13754533941
13754538518
13754543218
13754547857
13754550115
13754560308
13754564458
13754570134
13754574346
13754580144
13754584844
13754589238
13754595098
13754600225
13754605107
13754609380
13754616216
13754622441
13754629949
13754636113
13754644780
13754651006
13754659673
13754665410
13754675115
13754684026
13754692693
13754703130
13754710637
13754720097
13754729680
13754737675
13754747868
13754756169
13754763921
13754772160
13754779668
13754789799
13754797307
13754803898
13754812321
13754818242
13754826970
13754834843
13754842045
13754849553
13754857487
13754866337
13754872014
13754881535
13754889042
13754896061
13754903752
13754911991
13754923710
13754931156
13754937321
13754949040
13754956486
13754965397
13754973454
13754980290
13754988590
13754995304
13755005924
13755014835
13755022282
13755028751
13755036808
13755045292
13755053898
13755062138
13755073063
13755084598
13755095280
13755103519
13755117557
13755126896
13755137638
13755147220
13755153873
13755160343
13755167423
13755173893
13755180606
13755188724
13755196598
13755203739
13755213016
13755220096
13755226871
13755233707
13755241153
13755249149
13755257388
13755262454
13755270938
13755276859
13755285159
13755291812
13755300540
13755308597
13755315372
13755323306
13755329837
13755337161
13755343387
13755351993
13755358768
13755366763
13755373782
13755379581
13755387881
13755395999
13755402835
13755409122
13755417544
13755423831
13755431155
13755437808
13755444827
13755452151
13755459109
13755468509
13755477542
13755485171
13755493167
13755501345
13755507205
13755515261
13755523501
13755531069
13755538699
13755545779
13755553835
13755560732
13755568423
13755574343
13755582217
13755590029
13755598513
13755606448
13755614565
13755621706
13755627322
13755634646
13755641787
13755654970
13755664126
13755670046
13755680361
13755689028
13755695070
13755701479
13755710329
13755718020
13755726687
13755734377
13755740664
13755747866
13755755556
13755761477
13755769289
13755778139
13755785891
13755794191
13755803347
13755809450
13755819582
13755831728
13755843996
13755852114
13755863710
13755871950
13755882082
13755891359
13755897829
13755905275
13755913026
13755920229
13755928224
13755933107
13755937685
13755941652
13755948610
13755953065
13755960023
13755965394
13755970644
13755975465
13755980043
13755984437
13755989747
13755994142
13755999818
13756004335
13756010194
13756014284
13756020021
13756025087
13756030946
13756035829
13756040773
13756046022
13756052491
13756057924
13756064454
13756069154
13756074159
13756079103
13756084169
13756089784
13756094117
13756099855
13756104554
13756111268
13756116822
13756123292
13756128236
13756134767
13756140626
13756145020
13756148438
13756156251
13756161073
13756167054
13756172242
13756177857
13756182923
13756188905
13756193543
13756198609
13756204774
13756209718
13756217835
13756222413
13756229066
13756234010
13756239564
13756244385
13756250306
13756254578
13756260743
13756265382
13756271058
13756279114
13756286561
13756291993
13756298462
13756307007
13756312562
13756320801
13756325867
13756329957
13756334534
13756340882
13756345154
13756351563
13756356080
13756362671
13756368225
13756375672
13756380555
13756385559
13756391907
13756398438
13756405091
13756412171
13756419495
13756425171
13756434571
13756440674
13756447632
13756451966
13756459290
13756464295
13756468750
13756475769
13756480042
13756486145
13756491577
13756494507
13756499329
13756505127
13756511536
13756516480
13756520386
13756529419
13756533691
13756539551
13756543701
13756550110
13756554382
13756559021
13756564514
13756570007
13756574219
13756580322
13756585510
13756589905
13756595703
13756600769
13756606445
13756613220
13756618469
13756624328
13756630676
13756634216
13756639831
13756645202
13756650818
13756656982
13756662719
13756667541
13756672851
13756677185
13756682434
13756687255
13756693176
13756698486
13756703979
13756710266
13756715881
13756722045
13756727050
13756732971
13756740905
13756751708
13756759643
13756767822
13756774474
13756782165
13756789184
13756797118
13756804443
13756812133
13756820617
13756830077
13756838012
13756843444
13756852233
13756860229
13756873229
13756883422
13756891295
13756899291
13756906310
13756913634
13756921081
13756928344
13756935302
13756945800
13756953490
13756961852
13756969909
13756978087
13756985167
13756993590
13757001830
13757011412
13757020323
13757026915
13757034606
13757041991
13757051940
13757058775
13757070860
13757083312
13757094359
13757105040
13757115965
13757125426
13757131956
13757142210
13757148619
13757154967
13757163023
13757168700
13757178221
13757185545
13757192686
13757200133
13757207152
13757215330
13757223143
13757228636
13757236570
13757245237
13757251097
13757258177
13757268431
13757274656
13757280210
13757290098
13757296141
13757305662
13757312620
13757319883
13757329161
13757336790
13757344297
13757352476
13757359129
13757367613
13757374815
13757382627
13757390684
13757399229
13757406248
13757414976
13757421812
13757429502
13757435972
13757444639
13757451108
13757460325
13757466428
13757474180
13757482175
13757489927
13757497251
13757503721
13757512082
13757519529
13757527097
13757534238
13757540891
13757547910
13757555967
13757565427
13757571042
13757580442
13757588376
13757598203
13757606443
13757613706
13757621396
13757628110
13757635800
13757642697
13757651059
13757660153
13757665402
13757674924
13757682431
13757690854
13757697751
13757709531
13757715756
13757725949
13757733517
13757741574
13757746213
13757757626
13757763852
13757773007
13757779538
13757790402
13757796994
13757804623
13757814084
13757821713
13757829709
13757837460
13757844845
13757853573
13757860836
13757870358
13757879147
13757887020
13757895809
13757903439
13757913327
13757922604
13757931942
13757939022
13757948483
13757955135
13757964657
13757971066
13757978329
13757988277
13757998714
13758004513
13758011105
13758020565
13758027889
13758037044
13758043575
13758050411
13758058834
13758066036
13758075924
13758083004
13758089290
13758098873
13758104244
13758113643
13758118770
13758127987
13758134761
13758142025
13758149715
13758157833
13758165706
13758173946
13758178218
13758185726
13758190364
13758197261
13758202510
13758207698
13758214656
13758219844
13758225521
13758232051
13758238155
13758244258
13758249751
13758254512
13758260799
13758266963
13758272945
13758276058
13758284786
13758290950
13758296077
13758302181
13758306209
13758312190
13758319637
13758324214
13758330745
13758337764
13758343318
13758348994
13758353145
13758359187
13758365352
13758371944
13758377376
13758383235
13758389094
13758394038
13758400874
13758404597
13758411433
13758415461
13758422664
13758433650
13758438899
13758444697
13758450251
13758456233
13758461055
13758467402
13758474238
13758480586
13758483821
13758492243
13758496882
13758503291
13758508662
13758513117
13758520259
13758527766
13758533015
13758538630
13758544856
13758550593
13758557429
13758561579
13758568903
13758574824
13758585078
13758590388
13758593806
13758601496
13758608820
13758612971
13758620417
13758625971
13758632197
13758636835
13758643366
13758648371
13758653132
13758658198
13758664973
13758670161
13758677302
13758681940
13758689142
13758693903
13758699701
13758705927
13758710932
13758716913
13758721613
13758726862
13758732233
13758736445
13758743158
13758747736
13758753473
13758759272
13758765314
13758770380
13758775751
13758781549
13758788202
13758791681
13758799738
13758806024
13758812494
13758815363
13758822504
13758827143
13758834284
13758839777
13758844904
13758850519
13758856989
13758862360
13758868341
13758874139
13758878351
13758884576
13758890131
13758896356
13758902216
13758908990
13758915887
13758920587
13758925287
13758932550
13758937860
13758942499
13758949762
13758956232
13758963434
13758967950
13758973382
13758978021
13758985711
13758991693
13758997125
13759001642
13759008783
13759016046
13759021356
13759027948
13759033380
13759040826
13759047174
13759052484
13759059381
13759064386
13759071832
13759081720
13759088311
13759096185
13759103143
13759111199
13759120172
13759128228
13759135858
13759144525
13759152581
13759160577
13759167718
13759176385
13759182610
13759192132
13759198418
13759207269
13759216546
13759224786
13759232598
13759242608
13759251641
13759260308
13759269402
13759276543
13759286797
13759294121
13759301629
13759309929
13759317254
13759325432
13759333855
13759341729
13759349846
13759358635
13759365166
13759374321
13759382378
13759392327
13759401177
13759408684
13759417107
13759424553
13759429680
13759439263
13759448540
13759455193
13759462883
13759472099
13759480278
13759488213
13759495598
13759502922
13759510490
13759519035
13759529777
13759537407
13759545952
13759554191
13759560722
13759568779
13759575187
13759584831
13759591911
13759601433
13759607902
13759616081
13759623649
13759633476
13759640800
13759648552
13759655876
13759665763
13759673027
13759679924
13759688285
13759696830
13759705009
13759713798
13759720268
13759726798
13759737296
13759744254
13759753715
13759760124
13759767936
13759777946
13759785270
13759792655
13759802116
13759809379
13759817191
13759825004
13759832023
13759840079
13759847587
13759856193
13759863334
13759872794
13759880118
13759890250
13759896659
13759905997
13759912894
13759921256
13759928702
13759937003
13759946341
13759953666
13759961356
13759967948
13759976065
13759985770
13759994010
13760002310
13760011466
13760020316
13760028250
13760035269
13760043387
13760050040
13760058585
13760069388
13760082755
13760090140
13760101614
13760108023
13760117117
13760127371
13760137015
13760143729
13760152029
13760160574
13760169180
13760176016
13760184073
13760192923
13760198050
13760207266
13760214529
13760224173
13760230887
13760238333
13760244802
13760255484
13760262625
13760270681
13760280325
13760288198
13760296377
13760305410
13760314138
13760320120
13760328909
13760336538
13760343801
13760351675
13760357412
13760366995
13760373342
13760381277
13760389089
13760396535
13760402395
13760410146
13760419241
13760426321
13760434804
13760441518
13760448293
13760455617
13760462881
13760471609
13760480642
13760486745
13760495900
13760504079
13760511586
13760520192
13760527517
13760534047
13760544667
13760550771
13760557241
13760562856
13760568593
13760573842
13760577932
13760585744
13760590566
13760597219
13760601735
13760609181
13760613759
13760619313
13760624745
13760630361
13760636830
13760645925
13760650380
13760656361
13760661794
13760668019
13760673879
13760680104
13760685414
13760694508
13760699818
13760706288
13760713063
13760719655
13760724293
13760730763
13760736684
13760743397
13760747059
13760752858
13760758717
13760764760
13760769948
13760775441
13760780751
13760786122
13760791615
13760797719
13760802968
13760808888
13760814869
13760821095
13760826710
13760834950
13760839405
13760847157
13760851857
13760857411
13760862538
13760867421
13760873524
13760877064
13760882740
13760887806
13760893238
13760899464
13760904469
13760910389
13760917286
13760922779
13760928089
13760932972
13760941639
13760946583
13760951771
13760958424
13760964588
13760968494
13760975269
13760980824
13760986378
13760991810
13760998890
13761004566
13761010120
13761016163
13761021595
13761027271
13761032276
13761037037
13761043690
13761048450
13761055103
13761059620
13761067005
13761071583
13761078174
13761082691
13761089405
13761094532
13761101062
13761107044
13761112110
13761116810
13761124927
13761129566
13761136280
13761143543
13761148120
13761153553
13761160572
13761166309
13761171192
13761177600
13761180957
13761188892
13761195667
13761201526
13761207385
13761213611
13761219043
13761225025
13761230823
13761240527
13761247241
13761252429
13761257861
13761263110
13761268359
13761274341
13761279712
13761288074
13761293872
13761300647
13761307178
13761312732
13761318835
13761324695
13761331531
13761339892
13761345996
13761352038
13761357837
13761363147
13761369678
13761378528
13761385241
13761392383
13761400073
13761407458
13761415759
13761423694
13761430957
13761439990
13761446154
13761452868
13761460437
13761467150
13761473498
13761482470
13761488818
13761498400
13761506213
13761512927
13761520739
13761527453
13761534655
13761544055
13761551684
13761560107
13761565966
13761574389
13761581225
13761589526
13761595507
13761603991
13761613512
13761619372
13761629259
13761635302
13761645922
13761653307
13761661669
13761670702
13761678759
13761687426
13761695421
13761703173
13761710924
13761719042
13761727343
13761736559
13761744860
13761753588
13761761888
13761769579
13761777697
13761786241
13761792223
13761801378
13761809313
13761816942
13761825548
13761834520
13761842455
13761851305
13761858690
13761868944
13761876939
13761884569
13761893236
13761899522
13761908739
13761916856
13761926622
13761935838
13761943895
13761950426
13761961412
13761968736
13761980089
13761988450
13761996385
13762004258
13762012620
13762020189
13762028489
13762036119
13762044419
13762050889
13762062120
13762068589
13762077684
13762086839
13762094956
13762101487
13762109605
13762118699
13762127427
13762136582
13762145066
13762153489
13762162400
13762172532
13762179002
13762188950
13762199815
13762207810
13762216477
13762227097
13762235276
13762243394
13762251389
13762260422
13762268601
13762277329
13762283677
13762291794
13762299973
13762308518
13762316575
13762325303
13762333542
13762337876
13762348496
13762355027
13762364914
13762373703
13762381821
13762388230
13762397690
13762403977
13762412216
13762421860
13762429978
13762438522
13762443771
13762453415
13762463852
13762470322
13762479721
13762486618
13762494553
13762505783
13762515549
13762522568
13762533859
13762540634
13762551864
13762559677
13762568100
13762574631
13762583664
13762590378
13762598983
13762608871
13762617294
13762623581
13762631820
13762639389
13762648300
13762655868
13762663620
13762673873
13762681686
13762689376
13762696701
13762705062
13762712570
13762721298
13762728500
13762739425
13762746078
13762754684
13762760604
13762768234
13762775436
13762783920
13762790755
13762798873
13762806686
13762815536
13762824691
13762831344
13762838668
13762844039
13762849959
13762856246
13762863021
13762869979
13762875899
13762881576
13762888717
13762893844
13762899215
13762905257
13762910689
13762915267
13762922286
13762927596
13762932845
13762938582
13762944319
13762952193
13762960738
13762966780
13762973494
13762979476
13762985518
13762992049
13762997542
13763004500
13763010298
13763015547
13763020003
13763026900
13763032210
13763037459
13763043440
13763050581
13763055098
13763060713
13763067305
13763072066
13763078963
13763085921
13763092085
13763097884
13763104414
13763111128
13763117049
13763122603
13763127547
13763134505
13763140913
13763146040
13763151961
13763158125
13763162581
13763169233
13763173750
13763178633
13763186995
13763189985
13763198408
13763205244
13763209089
13763216658
13763223127
13763228498
13763235517
13763240583
13763245527
13763252119
13763256452
13763263044
13763269026
13763273786
13763278913
13763285322
13763291426
13763296186
13763303266
13763308210
13763314497
13763322431
13763326765
13763332441
13763338300
13763344099
13763350507
13763356367
13763362653
13763369001
13763375776
13763380964
13763384687
13763392194
13763395978
13763404768
13763413007
13763418073
13763425764
13763430463
13763437055
13763442304
13763447919
13763454877
13763459028
13763465680
13763471540
13763476850
13763482526
13763488019
13763494245
13763499982
13763506025
13763511274
13763517011
13763524152
13763529645
13763535321
13763544233
13763549604
13763556256
13763565534
13763573529
13763579083
13763585370
13763588971
13763599652
13763605084
13763611066
13763616620
13763622357
13763627423
13763633283
13763638410
13763645001
13763651898
13763656476
13763663129
13763669415
13763674664
13763681317
13763686444
13763692914
13763697491
13763704632
13763711102
13763721661
13763728070
13763738446
13763744916
13763752606
13763761883
13763768841
13763778241
13763787335
13763793988
13763802594
13763811993
13763817730
13763827130
13763834698
13763842083
13763852520
13763859600
13763867535
13763876812
13763882550
13763891278
13763904034
13763910748
13763918743
13763928265
13763933880
13763942730
13763948528
13763957684
13763966229
13763973309
13763982464
13763991802
13763997845
13764004558
13764010906
13764020672
13764025921
13764033489
13764042156
13764049785
13764057171
13764064617
13764071697
13764079754
13764088421
13764096721
13764103557
13764115276
13764124675
13764131755
13764139080
13764146892
13764153789
13764161235
13764168132
13764177898
13764183818
13764190654
13764197978
13764205242
13764212505
13764220134
13764227519
13764237285
13764243449
13764250468
13764258220
13764265056
13764272136
13764279643
13764286967
13764298686
13764307475
13764318584
13764327922
13764337077
13764345439
13764354655
13764363139
13764370341
13764377910
13764386454
13764392375
13764400981
13764408427
13764415446
13764423991
13764430278
13764436747
13764445475
13764452006
13764461100
13764468302
13764475871
13764484355
13764492411
13764498515
13764505412
13764514994
13764522440
13764529765
13764537882
13764542399
13764553202
13764561137
13764568949
13764575907
13764583414
13764589335
13764598246
13764604533
13764614725
13764621134
13764627177
13764635966
13764642496
13764651468
13764659647
13764667460
13764675333
13764684488
13764693644
13764699991
13764710550
13764717508
13764726664
13764732950
13764745096
13764752237
13764759745
13764769205
13764775797
13764783731
13764791605
13764799112
13764809061
13764816446
13764823038
13764831705
13764840494
13764849710
13764858133
13764866800
13764875101
13764881570
13764890970
13764899271
13764905557
13764912149
13764922342
13764931070
13764938760
13764948160
13764957681
13764964212
13764973672
13764983133
13764989724
13765001687
13765008889
13765017129
13765026345
13765034463
13765042459
13765050515
13765054849
13765065469
13765071939
13765081582
13765090493
13765098672
13765105386
13765115762
13765122353
13765130593
13765137246
13765150308
13765156350
13765163857
13765168801
13765176553
13765180337
13765187478
13765192055
13765199990
13765205361
13765211159
13765215981
13765222207
13765228860
13765233742
13765241433
13765245949
13765251992
13765258156
13765264382
13765270791
13765275734
13765281899
13765286660
13765293374
13765301125
13765305336
13765312783
13765319008
13765323586
13765329079
13765334572
13765339577
13765346413
13765350930
13765358681
13765364784
13765370217
13765376137
13765383583
13765389382
13765394448
13765398659
13765404762
13765409279
13765414833
13765420326
13765425881
13765428932
13765437050
13765443581
13765448036
13765452370
13765458656
13765463417
13765468056
13765474770
13765480751
13765486183
13765491249
13765498085
13765502602
13765507301
13765513100
13765518654
13765524269
13765529884
13765535377
13765540565
13765546486
13765551552
13765556373
13765563331
13765568641
13765576454
13765581947
13765589454
13765594764
13765599342
13765604164
13765610572
13765616493
13765623878
13765629066
13765636268
13765642128
13765645729
13765652381
13765656105
13765663429
13765668006
13765674537
13765679969
13765685768
13765690711
13765696510
13765699195
13765705787
13765710975
13765719825
13765724769
13765731849
13765736854
13765744910
13765749488
13765755347
13765759254
13765766639
13765771217
13765777930
13765783851
13765788917
13765793067
13765797767
13765801978
13765809608
13765814246
13765820350
13765826209
13765831580
13765835975
13765840857
13765844581
13765851050
13765855811
13765858863
13765864905
13765870337
13765876685
13765880591
13765888221
13765896216
13765899329
13765906531
13765910682
13765917090
13765922156
13765926978
13765931861
13765937964
13765944373
13765949805
13765955420
13765960913
13765965674
13765969763
13765975501
13765981909
13765988135
13765992529
13766002356
13766010291
13766018408
13766026648
13766032935
13766039343
13766051917
13766058997
13766066443
13766072485
13766078650
13766088049
13766095251
13766102209
13766110266
13766119604
13766126623
13766133520
13766141638
13766149084
13766156714
13766163672
13766170324
13766178808
13766188330
13766196203
13766200659
13766210608
13766217688
13766225805
13766232031
13766243261
13766249975
13766257666
13766263647
13766272741
13766279089
13766286108
13766295080
13766304846
13766311376
13766319555
13766328832
13766334875
13766343481
13766348364
13766358129
13766366003
13766373266
13766380285
13766387670
13766395666
13766404333
13766412572
13766421178
13766429784
13766440832
13766447423
13766456212
13766466283
13766473913
13766480687
13766488317
13766495641
13766504857
13766511449
13766519628
13766527806
13766532628
13766541295
13766548986
13766556188
13766565526
13766575109
13766581273
13766590184
13766595128
13766604833
13766615392
13766624547
13766631017
13766640050
13766647801
13766654637
13766662389
13766669225
13766677769
13766684849
13766691258
13766701085
13766707982
13766715916
13766723912
13766730748
13766738377
13766751927
13766762730
13766771946
13766782811
13766793248
13766804356
13766813450
13766823277
13766834629
13766849156
13766858738
13766867649
13766876927
13766886997
13766896580
13766905674
13766915562
13766925510
13766934788
13766942356
13766952793
13766962803
13766973179
13766984165
13766993259
13767004124
13767013767
13767022739
13767033481
13767042637
13767052829
13767063022
13767077549
13767086094
13767097446
13767106418
13767119724
13767128757
13767139194
13767148471
13767158847
13767168857
13767178317
13767189609
13767201084
13767211887
13767221103
13767231296
13767243869
13767254977
13767267673
13767279819
13767295505
13767308932
13767320102
13767329257
13767344394
13767357638
13767368197
13767377475
13767384616
13767398104
13767407504
13767418917
13767429721
13767439486
13767448519
13767459506
13767468905
13767477206
13767489474
13767501315
13767513522
13767523959
13767533175
13767546053
13767559054
13767569613
13767577364
13767585665
13767592501
13767603548
13767610995
13767623934
13767633455
13767639498
13767648531
13767654757
13767662203
13767670443
13767676363
13767683748
13767693575
13767704317
13767709627
13767718294
13767725313
13767732637
13767740389
13767747896
13767756624
13767765108
13767772920
13767781465
13767788423
13767795686
13767803865
13767811189
13767819490
13767826936
13767834749
13767843050
13767850069
13767857881
13767866792
13767874239
13767882356
13767891450
13767897371
13767906709
13767915010
13767923921
13767930330
13767940217
13767952180
13767961274
13767968599
13767977388
13767985566
13767993562
13768001496
13768010713
13768017732
13768026155
13768032930
13768040986
13768049409
13768055390
13768064240
13768071626
13768080476
13768089143
13768095735
13768105378
13768114594
13768122529
13768129060
13768139436
13768150361
13768158417
13768165986
13768174775
13768182282
13768189484
13768195222
13768199250
13768204255
13768208161
13768212556
13768218293
13768223420
13768227875
13768233002
13768237275
13768241791
13768247651
13768252289
13768258820
13768262970
13768268525
13768274201
13768280121
13768283661
13768289215
13768294770
13768300263
13768303681
13768308747
13768313263
13768318329
13768323334
13768326752
13768331818
13768335297
13768340790
13768350067
13768356598
13768361115
13768365570
13768370026
13768375763
13768380829
13768385529
13768390350
13768397553
13768402374
13768407257
13768411896
13768416412
13768422638
13768428497
13768435761
13768439911
13768445831
13768449188
13768455292
13768458710
13768464264
13768467926
13768475372
13768479584
13768484405
13768489105
13768495026
13768499115
13768505524
13768510467
13768515961
13768522552
13768531280
13768538299
13768545746
13768551483
13768560272
13768566009
13768576141
13768583099
13768592743
13768598846
13768607330
13768613189
13768620636
13768629180
13768636444
13768644805
13768651031
13768659698
13768667632
13768675323
13768681365
13768689666
13768696807
13768706390
13768713836
13768722747
13768732757
13768740447
13768750945
13768765899
13768773894
13768780730
13768788726
13768796111
13768801971
13768810210
13768815581
13768826140
13768832427
13768839202
13768844817
13768853667
13768858977
13768867156
13768875884
13768883025
13768890776
13768897551
13768903411
13768911345
13768916838
13768923735
13768931487
13768940459
13768946379
13768953337
13768960723
13768967864
13768974211
13768981474
13768990202
13768997527
13769004241
13769011748
13769019499
13769026396
13769033781
13769041106
13769048003
13769055876
13769063078
13769070158
13769078093
13769085417
13769093474
13769100249
13769107451
13769115324
13769123747
13769130888
13769137419
13769144255
13769150908
13769157560
13769165739
13769173307
13769180143
13769187468
13769194609
13769201628
13769209196
13769216032
13769223112
13769230680
13769238737
13769246122
13769253324
13769261320
13769267301
13769276884
13769287565
13769295927
13769302396
13769310575
13769314481
13769323698
13769330778
13769340055
13769346586
13769354093
13769363065
13769371549
13769379056
13769386686
13769394071
13769401090
13769410062
13769416654
13769425626
13769431852
13769439603
13769447294
13769458707
13769471769
13769480924
13769490812
13769499417
13769508329
13769517667
13769527860
13769534879
13769544522
13769551053
13769557401
13769566129
13769572965
13769582852
13769589078
13769597623
13769604154
13769612820
13769618924
13769626126
13769633694
13769641812
13769649564
13769657376
13769665494
13769672269
13769682278
13769689175
13769696622
13769702908
13769710599
13769718838
13769724331
13769732998
13769740872
13769748440
13769756131
13769763699
13769771573
13769778958
13769786465
13769794033
13769799832
13769808743
13769815762
13769822110
13769831570
13769837796
13769843838
13769854092
13769860501
13769869900
13769877163
13769884609
13769892544
13769897732
13769902798
13769908169
13769912441
13769917751
13769923000
13769928616
13769934475
13769940151
13769946682
13769953274
13769958095
13769965420
13769969509
13769975857
13769980373
13769987270
13769991604
13769997646
13770001858
13770008144
13770012722
13770022365
13770027492
13770033169
13770039211
13770045315
13770051845
13770058803
13770063259
13770070278
13770075466
13770080776
13770085537
13770091945
13770097133
13770102932
13770109767
13770114467
13770119960
13770125637
13770133022
13770139003
13770149684
13770155727
13770161952
13770167751
13770176845
13770184169
13770190517
13770197841
13770203395
13770208583
13770214076
13770219142
13770225978
13770231410
13770238368
13770243556
13770248622
13770252467
13770257411
13770262111
13770266933
13770274562
13770280055
13770284633
13770290065
13770294215
13770301112
13770307094
13770311854
13770318690
13770324183
13770330409
13770335963
13770342555
13770346827
13770352015
13770359523
13770364467
13770372218
13770377772
13770383509
13770389430
13770396449
13770402003
13770405543
13770411952
13770418910
13770425440
13770430018
13770435694
13770440821
13770446437
13770451991
13770456385
13770463893
13770468104
13770474635
13770479823
13770486109
13770492213
13770497523
13770502406
13770509425
13770514491
13770520655
13770526575
13770531580
13770538905
13770543543
13770550074
13770553980
13770560999
13770565089
13770570399
13770576868
13770581568
13770586939
13770593409
13770600611
13770611719
13770619288
13770625391
13770634363
13770639612
13770647486
13770652369
13770657923
13770665552
13770676294
13770683435
13770690760
13770697351
13770702845
13770707239
13770713098
13770719507
13770726282
13770731287
13770737512
13770742822
13770749475
13770756861
13770762354
13770771936
13770783960
13770790125
13770799646
13770805322
13770814783
13770820703
13770827966
13770835107
13770844690
13770850671
13770859582
13770866052
13770872644
13770881189
13770887781
13770895166
13770903650
13770910058
13770918847
13770925012
13770933618
13770939843
13770949304
13770956506
13770964013
13770972131
13770981225
13770988122
13770995935
13771002404
13771012109
13771020043
13771028344
13771036462
13771045190
13771052697
13771062036
13771069604
13771076989
13771086205
13771097924
13771107140
13771114220
13771122216
13771130578
13771138390
13771147118
13771155480
13771163354
13771171471
13771178857
13771187279
13771195153
13771203271
13771211266
13771219872
13771227868
13771236168
13771244347
13771252648
13771260460
13771269188
13771277733
13771287865
13771293297
13771303490
13771311486
13771318505
13771326012
13771334740
13771342735
13771349266
13771358910
13771365929
13771374169
13771381615
13771389916
13771399376
13771409020
13771415550
13771424644
13771431663
13771438560
13771447838
13771453819
13771463646
13771472374
13771479332
13771487572
13771496361
13771506431
13771513145
13771522911
13771529381
13771538109
13771548240
13771556297
13771567222
13771574607
13771583152
13771591636
13771599754
13771610801
13771620933
13771629966
13771636375
13771643577
13771653037
13771661277
13771668784
13771676048
13771686118
13771691367
13771702171
13771708030
13771716636
13771724754
13771732993
13771739402
13771748740
13771755515
13771765342
13771773765
13771779563
13771788962
13771797385
13771804893
13771817222
13771823508
13771831687
13771841086
13771846946
13771856284
13771862204
13771870261
13771874594
13771888510
13771895285
13771903281
13771910605
13771919028
13771925437
13771931967
13771941855
13771951071
13771958029
13771965292
13771974753
13771981528
13771989096
13771995871
13772004050
13772013937
13772022360
13772029623
13772038168
13772045370
13772053488
13772060019
13772067709
13772074911
13772082724
13772092001
13772099936
13772107260
13772115500
13772122763
13772130148
13772138205
13772145224
13772153341
13772160116
13772170126
13772177145
13772185018
13772192404
13772204306
13772217123
13772223471
13772227926
13772234091
13772239706
13772245321
13772248312
13772256613
13772261312
13772267782
13772272360
13772277670
13772285055
13772291219
13772297201
13772302145
13772308797
13772311849
13772320333
13772327169
13772331014
13772338216
13772343832
13772354269
13772362813
13772370138
13772373922
13772381551
13772386251
13772392415
13772399679
13772405782
13772409932
13772417135
13772421590
13772426168
13772432210
13772437825
13772442830
13772448201
13772453756
13772460225
13772465230
13772471700
13772476949
13772482076
13772487813
13772493123
13772498799
13772503255
13772510396
13772514852
13772523030
13772527730
13772534444
13772538899
13772544576
13772549581
13772557149
13772562581
13772567342
13772572896
13772578267
13772584371
13772589620
13772595357
13772599751
13772607014
13772611836
13772618306
13772622884
13772629842
13772633992
13772638692
13772645406
13772652486
13772657979
13772663716
13772670491
13772675435
13772682637
13772688679
13772694478
13772701985
13772707112
13772712422
13772719990
13772724568
13772732014
13772737751
13772743306
13772748921
13772756428
13772761799
13772768757
13772774433
13772780110
13772785969
13772791890
13772796955
13772804829
13772808979
13772817768
13772822651
13772830952
13772835591
13772842610
13772847859
13772854695
13772860798
13772866902
13772872151
13772878803
13772884968
13772890217
13772898274
13772903339
13772910053
13772916157
13772922138
13772927204
13772933063
13772939594
13772946857
13772953937
13772959370
13772965839
13772972675
13772978962
13772985798
13772993671
13772999470
13773005756
13773011188
13773018024
13773023029
13773028888
13773033161
13773039997
13773045307
13773049762
13773056415
13773064533
13773070758
13773074543
13773079975
13773084186
13773091449
13773096088
13773102436
13773108112
13773114215
13773123187
13773129474
13773139423
13773148334
13773155658
13773163471
13773170734
13773177387
13773184589
13773192950
13773200702
13773209064
13773217426
13773225116
13773233478
13773242511
13773251117
13773255939
13773266681
13773272601
13773282367
13773289264
13773298724
13773304522
13773312213
13773321307
13773326800
13773335711
13773344683
13773352069
13773359576
13773368304
13773373553
13773382647
13773388201
13773398028
13773405230
13773412921
13773420184
13773427874
13773435320
13773442706
13773451800
13773457232
13773463336
13773473895
13773482806
13773491045
13773497759
13773505999
13773514178
13773521807
13773528521
13773539019
13773545977
13773556170
13773562945
13773572405
13773578631
13773585711
13773596148
13773605181
13773611773
13773620684
13773627520
13773636004
13773642534
13773650591
13773658220
13773668962
13773675371
13773683733
13773691545
13773699968
13773708269
13773717363
13773727251
13773736345
13773744158
13773754595
13773761675
13773768450
13773778825
13773786577
13773796526
13773806535
13773813188
13773822771
13773829423
13773838640
13773847673
13773853105
13773863054
13773871538
13773879960
13773887468
13773894548
13773903032
13773909990
13773918718
13773927568
13773936235
13773942888
