13618651720
13618657763
13618663134
13618668200
13618673082
13618678270
13618682848
13618687914
13618693163
13618697802
13618702990
13618707384
13618712511
13618717150
13618722338
13618726549
13618732347
13618736864
13618741991
13618746752
13618752184
13618757128
13618762010
13618767504
13618773363
13618778063
13618782518
13618787035
13618790941
13618795763
13618800218
13618806383
13618810716
13618815782
13618820665
13618826158
13618831529
13618836717
13618841234
13618846544
13618852159
13618857225
13618862413
13618868700
13618873704
13618879442
13618883531
13618887620
13618892869
13618898729
13618904466
13618910631
13618916917
13618922593
13618928392
13618935777
13618942552
13618948045
13618954454
13618963853
13618975206
13618982225
13618990953
13618999437
13619008042
13619015550
13619023057
13619028123
13619036546
13619042649
13619047715
13619055406
13619063401
13619070237
13619078111
13619083360
13619090745
13619096177
13619103135
13619108933
13619116563
13619122361
13619130112
13619135972
13619143113
13619149705
13619155320
13619164353
13619169907
13619178208
13619184495
13619190110
13619197800
13619204758
13619210435
13619216843
13619223984
13619230332
13619236374
13619242966
13619250351
13619255600
13619260972
13619269638
13619277878
13619282822
13619291306
13619297531
13619303879
13619309067
13619316513
13619323593
13619328110
13619335617
13619343247
13619349045
13619355454
13619361130
13619368515
13619374802
13619381027
13619388229
13619394760
13619399277
13619405319
13619412094
13619417770
13619424240
13619430649
13619437729
13619444870
13619449936
13619456528
13619465500
13619471542
13619478439
13619485458
13619495834
13619505417
13619512497
13619520431
13619528427
13619535751
13619544601
13619551925
13619559311
13619566208
13619574813
13619583236
13619592697
13619601242
13619608383
13619616561
13619625411
13619632736
13619637985
13619646835
13619654952
13619661483
13619667709
13619676376
13619684005
13619691207
13619699752
13619706405
13619712386
13619719100
13619725875
13619731857
13619739547
13619744857
13619752669
13619761275
13619765914
13619772628
13619779830
13619788131
13619796798
13619805587
13619813582
13619819259
13619828841
13619834701
13619841353
13619848494
13619855819
13619861373
13619869429
13619878463
13619885421
13619892684
13619900252
13619907271
13619916487
13619923934
13619932051
13619939864
13619947554
13619953902
13619962752
13619972029
13619978682
13619985030
13619992293
13619999312
13620007246
13620015669
13620023787
13620031233
13620038191
13620046065
13620052351
13620056990
13620060957
13620066450
13620070845
13620077009
13620081221
13620086043
13620091292
13620096358
13620101362
13620106245
13620111250
13620116499
13620120649
13620126448
13620132246
13620137922
13620143416
13620149702
13620155256
13620161177
13620167158
13620172285
13620178267
13620183271
13620191999
13620200117
13620207319
13620212995
13620220014
13620225630
13620233442
13620238386
13620246626
13620253034
13620258711
13620263593
13620269758
13620274458
13620279035
13620283369
13620289716
13620296674
13620302473
13620307905
13620312299
13620316633
13620321638
13620328596
13620333417
13620337385
13620341535
13620345686
13620351606
13620357099
13620361616
13620368574
13620373456
13620378217
13620381635
13620388288
13620393476
13620398725
13620403058
13620410200
13620414960
13620420575
13620424909
13620431257
13620435163
13620440717
13620446210
13620452741
13620458722
13620463300
13620467694
13620473371
13620479413
13620482709
13620488080
13620495282
13620500409
13620504438
13620510724
13620515668
13620521344
13620527631
13620534711
13620539533
13620547406
13620553571
13620556439
13620562726
13620567243
13620571881
13620578900
13620584943
13620589093
13620593854
13620599225
13620603742
13620609296
13620613873
13620619305
13620625165
13620633893
13620639203
13620645306
13620650738
13620656354
13620661603
13620667584
13620670209
13620678204
13620682355
13620688763
13620693341
13620699261
13620705060
13620708966
13620715741
13620720501
13620727093
13620731976
13620738568
13620744244
13620750897
13620756939
13620763287
13620768170
13620777325
13620781781
13620789105
13620793804
13620799420
13620805462
13620809185
13620814740
13620820965
13620827191
13620832073
13620836346
13620841290
13620848553
13620856732
13620864117
13620873150
13620879803
13620887554
13620895123
13620902203
13620909832
13620916912
13620923687
13620930767
13620938885
13620946026
13620953350
13620958843
13620964825
13620974285
13620980144
13620988567
13620995037
13621004436
13621010296
13621018718
13621026409
13621034649
13621041912
13621050823
13621058269
13621065044
13621073284
13621082195
13621090313
13621097515
13621105388
13621110149
13621122600
13621129131
13621137126
13621145427
13621150859
13621160503
13621168865
13621176128
13621182414
13621192973
13621198222
13621208354
13621215251
13621223308
13621230327
13621238628
13621246867
13621255229
13621262736
13621270610
13621277690
13621284526
13621293010
13621298442
13621307536
13621314921
13621324443
13621332133
13621339335
13621346660
13621354533
13621361613
13621369365
13621377543
13621386332
13621391032
13621400614
13621406657
13621415690
13621423014
13621429911
13621437052
13621444987
13621452860
13621461344
13621468607
13621475932
13621482768
13621489665
13621498148
13621505473
13621515788
13621524027
13621534586
13621546061
13621558268
13621569742
13621577494
13621585795
13621594950
13621601542
13621609842
13621616434
13621623026
13621630411
13621639994
13621652567
13621661783
13621669535
13621674906
13621682413
13621690165
13621698648
13621706400
13621714395
13621721475
13621729471
13621733805
13621743936
13621749185
13621758402
13621765054
13621769693
13621776285
13621785013
13621790750
13621799295
13621806009
13621814066
13621821451
13621829141
13621835611
13621842325
13621848856
13621856668
13621864969
13621871866
13621879190
13621887552
13621895120
13621902017
13621910135
13621918252
13621924051
13621932412
13621941018
13621947305
13621954812
13621961221
13621970803
13621977578
13621984414
13621991738
13622000589
13622008218
13622015237
13622023294
13622031228
13622038430
13622045571
13622053384
13622060098
13622068582
13622075356
13622082864
13622090310
13622096169
13622103799
13622113137
13622119180
13622125893
13622135842
13622142739
13622149514
13622154824
13622163491
13622172463
13622178383
13622187295
13622194802
13622200478
13622208230
13622215554
13622224404
13622233010
13622238015
13622245034
13622250527
13622255532
13622262368
13622267556
13622274208
13622280739
13622286599
13622294838
13622300820
13622306618
13622313271
13622320351
13622326393
13622330605
13622335182
13622340553
13622344765
13622348610
13622353310
13622359535
13622366188
13622371620
13622377785
13622381447
13622386513
13622391213
13622396095
13622401222
13622405251
13622409462
13622415138
13622418373
13622422951
13622429115
13622433876
13622438637
13622443458
13622449318
13622455788
13622462379
13622466286
13622471657
13622476173
13622483070
13622486488
13622491066
13622497474
13622502846
13622508766
13622512977
13622518165
13622524025
13622529091
13622533790
13622538002
13622545936
13622549965
13622555763
13622561317
13622565467
13622571998
13622577308
13622583534
13622589393
13622594642
13622598609
13622603370
13622611000
13622615211
13622619911
13622625770
13622631996
13622638221
13622642249
13622649268
13622656104
13622662513
13622666236
13622672828
13622678565
13622684425
13622690833
13622694556
13622700111
13622705054
13622709571
13622716468
13622722327
13622728187
13622732276
13622736365
13622741614
13622747108
13622752418
13622757056
13622762244
13622768287
13622774573
13622780005
13622785560
13622790381
13622794776
13622800940
13622808143
13622815833
13622822547
13622828711
13622835975
13622843665
13622851661
13622858558
13622864539
13622870765
13622875586
13622881018
13622886451
13622891394
13622898535
13622902381
13622909888
13622914832
13622919837
13622924414
13622930152
13622935095
13622941687
13622946753
13622950842
13622955359
13622960303
13622965674
13622972083
13622976477
13622981238
13622985571
13622991248
13622997046
13623001807
13623005286
13623011084
13623014563
13623020911
13623027930
13623035071
13623043310
13623052832
13623060034
13623067053
13623075110
13623079443
13623089636
13623096350
13623104406
13623111548
13623120031
13623127417
13623135351
13623142492
13623150549
13623157629
13623165014
13623172705
13623180883
13623188147
13623197241
13623204382
13623208593
13623219702
13623226782
13623235510
13623243810
13623248937
13623255895
13623263586
13623272924
13623278722
13623288610
13623294775
13623303014
13623309667
13623317663
13623325780
13623334264
13623341100
13623348852
13623353307
13623363988
13623370458
13623378087
13623385534
13623395543
13623402746
13623408910
13623418737
13623424596
13623432775
13623439672
13623447728
13623456762
13623465612
13623472325
13623478307
13623486119
13623495153
13623503026
13623508153
13623518468
13623524755
13623532567
13623540441
13623548009
13623553685
13623563878
13623569798
13623579564
13623587071
13623595311
13623601720
13623609593
13623616185
13623625218
13623633153
13623639256
13623645848
13623656529
13623663304
13623670323
13623677342
13623684910
13623692662
13623701024
13623709385
13623717930
13623725743
13623733067
13623741246
13623747471
13623755467
13623764073
13623771885
13623779148
13623788426
13623796421
13623801792
13623809422
13623816380
13623826023
13623833225
13623840550
13623847447
13623855259
13623862583
13623870579
13623878391
13623884800
13623892551
13623900181
13623904881
13623917149
13623923374
13623931919
13623939243
13623945957
13623953647
13623962986
13623971836
13623979038
13623986301
13623992588
13624000522
13624007786
13624016941
13624024570
13624032383
13624039402
13624048008
13624056369
13624064487
13624071567
13624079502
13624086338
13624095920
13624102146
13624108921
13624118259
13624126865
13624134616
13624140903
13624151706
13624157871
13624165683
13624173618
13624181613
13624190463
13624196567
13624204318
13624211826
13624219638
13624224765
13624234958
13624243564
13624251010
13624258456
13624264438
13624272128
13624279452
13624288302
13624295382
13624303683
13624311618
13624321017
13624328402
13624334567
13624344149
13624349582
13624357943
13624366610
13624375643
13624382968
13624392672
13624399447
13624406832
13624413973
13624421847
13624429476
13624437472
13624445284
13624453280
13624461581
13624465914
13624471041
13624478121
13624482821
13624488985
13624493990
13624500399
13624506319
13624511263
13624515963
13624520785
13624522982
13624530733
13624536104
13624541292
13624546297
13624551180
13624555880
13624560763
13624563265
13624571871
13624577974
13624582613
13624587740
13624593538
13624597506
13624603304
13624610445
13624616243
13624622042
13624627230
13624632906
13624636812
13624642855
13624648836
13624656282
13624661104
13624665865
13624671114
13624676302
13624682405
13624687227
13624694063
13624700350
13624705965
13624711031
13624716402
13624721285
13624727754
13624731966
13624739656
13624744478
13624749788
13624754976
13624760530
13624766939
13624773531
13624778719
13624786165
13624792024
13624798250
13624803743
13624808199
13624813203
13624817842
13624822786
13624828767
13624833711
13624838655
13624844514
13624849458
13624855318
13624860933
13624868562
13624873262
13624879976
13624885408
13624891511
13624897981
13624904878
13624910798
13624917390
13624923066
13624929780
13624935334
13624940950
13624948274
13624953157
13624958528
13624963411
13624970002
13624975251
13624980500
13624984773
13624990937
13624996736
13625005708
13625012055
13625016755
13625021516
13625027863
13625032563
13625037141
13625043061
13625047639
13625053010
13625057771
13625063508
13625068025
13625072663
13625078767
13625082734
13625089326
13625096284
13625102387
13625105866
13625112397
13625117890
13625123505
13625128388
13625133942
13625140412
13625146271
13625152192
13625157624
13625162568
13625168305
13625174225
13625179596
13625182648
13625191681
13625195221
13625202302
13625206940
13625214081
13625218598
13625223786
13625230011
13625234345
13625241669
13625247101
13625252167
13625258149
13625264069
13625269684
13625276825
13625283234
13625292877
13625299164
13625308380
13625314179
13625321930
13625329376
13625336762
13625343537
13625353668
13625358246
13625366974
13625375641
13625382660
13625388702
13625395172
13625404022
13625411468
13625418915
13625426300
13625435028
13625442352
13625449615
13625457062
13625463714
13625471405
13625481292
13625488678
13625495453
13625502899
13625510650
13625517242
13625525177
13625534454
13625543365
13625550140
13625557952
13625566375
13625572113
13625581024
13625586029
13625596160
13625605987
13625613677
13625621307
13625627288
13625634490
13625643707
13625648773
13625657684
13625665069
13625674041
13625681365
13625688506
13625696258
13625703155
13625710601
13625718291
13625725432
13625733855
13625741546
13625748992
13625756866
13625765044
13625770232
13625782378
13625791228
13625800872
13625808745
13625819365
13625825896
13625836577
13625844817
13625852141
13625858794
13625869353
13625875579
13625883696
13625890959
13625899077
13625907439
13625915495
13625923491
13625932280
13625939787
13625948454
13625954863
13625967986
13625986479
13626001433
13626009917
13626021513
13626031523
13626041960
13626052397
13626061674
13626072233
13626082365
13626090239
13626097258
13626103911
13626111723
13626117277
13626124846
13626131865
13626138456
13626145353
13626152616
13626160490
13626168425
13626175871
13626182524
13626189909
13626197172
13626204191
13626211332
13626217863
13626225492
13626233122
13626241117
13626248197
13626252897
13626261869
13626266569
13626275907
13626283170
13626289030
13626296537
13626302396
13626309721
13626317838
13626326871
13626334257
13626341764
13626349088
13626356351
13626365323
13626373807
13626382230
13626389371
13626397855
13626405912
13626414396
13626421415
13626427030
13626435270
13626441495
13626449613
13626458036
13626464810
13626472135
13626478238
13626485562
13626493985
13626500211
13626508634
13626518216
13626525784
13626533597
13626542691
13626547635
13626556546
13626563748
13626571561
13626580167
13626588345
13626594998
13626602566
13626609952
13626618741
13626625088
13626632657
13626637112
13626649930
13626656338
13626664212
13626671780
13626679593
13626687100
13626696072
13626703152
13626712429
13626720913
13626727261
13626734585
13626738186
13626745266
13626750210
13626755276
13626760525
13626767788
13626772854
13626779812
13626784329
13626789944
13626795071
13626800015
13626805386
13626810940
13626816250
13626821316
13626827480
13626833706
13626837063
13626843899
13626847988
13626852383
13626858669
13626863613
13626868923
13626873745
13626878994
13626885342
13626890652
13626896389
13626902798
13626908718
13626913174
13626921230
13626928188
13626935146
13626940334
13626946926
13626953029
13626960232
13626965847
13626969936
13626977077
13626982021
13626988735
13626994045
13627001125
13627005947
13627012355
13627018886
13627023769
13627031765
13627038295
13627044399
13627050685
13627057277
13627064296
13627070827
13627077297
13627083705
13627091701
13627097194
13627104091
13627108669
13627115138
13627119838
13627126064
13627132655
13627138698
13627145229
13627151027
13627157253
13627163539
13627168849
13627175014
13627180080
13627186244
13627191371
13627197841
13627203334
13627209560
13627214809
13627219386
13627226283
13627231776
13627236842
13627242579
13627250087
13627254359
13627259913
13627265346
13627271327
13627277797
13627283656
13627286525
13627293666
13627298365
13627304835
13627309657
13627316798
13627321071
13627328456
13627332850
13627338343
13627345485
13627350489
13627355983
13627362513
13627367945
13627372706
13627380091
13627386256
13627392481
13627397242
13627403285
13627410365
13627414332
13627420069
13627427149
13627432642
13627439295
13627444666
13627451563
13627456934
13627461756
13627467738
13627474207
13627481348
13627487208
13627493250
13627499232
13627504359
13627511072
13627517115
13627521815
13627527735
13627535242
13627540797
13627546229
13627551966
13627557886
13627562464
13627570093
13627575037
13627581080
13627587916
13627592493
13627598841
13627606897
13627615198
13627620264
13627627161
13627636499
13627643946
13627650415
13627659388
13627666223
13627675074
13627683618
13627692407
13627698633
13627707422
13627715418
13627724390
13627732996
13627739710
13627746240
13627755396
13627763025
13627773096
13627779932
13627786340
13627793481
13627802698
13627810449
13627816186
13627823999
13627832910
13627844140
13627849023
13627857690
13627866357
13627875268
13627879907
13627889795
13627894189
13627904870
13627911767
13627918176
13627927331
13627935754
13627943628
13627951074
13627958093
13627963525
13627972436
13627980187
13627987817
13627995446
13628004296
13628008630
13628016503
13628025292
13628034631
13628041772
13628049950
13628057824
13628065575
13628072655
13628079797
13628087975
13628095910
13628104333
13628110619
13628118310
13628122521
13628133202
13628139733
13628148766
13628155480
13628162072
13628170373
13628180504
13628186730
13628198143
13628206932
13628214074
13628223412
13628231285
13628239342
13628247460
13628256127
13628265282
13628272057
13628278832
13628286034
13628295006
13628301781
13628311852
13628318932
13628328148
13628337242
13628343895
13628354393
13628358971
13628370323
13628376671
13628384850
13628394188
13628401390
13628409386
13628416099
13628426353
13628433800
13628440697
13628447044
13628456199
13628461876
13628469322
13628473228
13628487144
13628494590
13628502952
13628510276
13628518333
13628526023
13628532554
13628538780
13628550254
13628556968
13628566795
13628573081
13628579185
13628588706
13628596458
13628603660
13628615440
13628623191
13628633018
13628639793
13628648582
13628655723
13628663230
13628672385
13628680076
13628688193
13628694663
13628701926
13628710837
13628718650
13628725669
13628733481
13628741172
13628747642
13628755027
13628763328
13628772178
13628778708
13628784995
13628793113
13628800925
13628810752
13628817771
13628825644
13628832907
13628840659
13628848410
13628857077
13628864340
13628871604
13628880210
13628888083
13628894126
13628902487
13628910727
13628918479
13628923666
13628934287
13628940390
13628947836
13628955344
13628964255
13628971213
13628979208
13628984946
13628993124
13629001120
13629009604
13629017721
13629025595
13629032675
13629038901
13629045248
13629053732
13629059958
13629066610
13629072775
13629080343
13629086081
13629092184
13629097677
13629104147
13629109457
13629115988
13629120871
13629128500
13629134176
13629140341
13629144430
13629151815
13629158468
13629166769
13629172872
13629178732
13629182699
13629188070
13629193807
13629199545
13629205343
13629211202
13629216940
13629221456
13629226217
13629233297
13629239340
13629242819
13629251363
13629257467
13629263448
13629269552
13629276205
13629281637
13629286886
13629293722
13629300313
13629305685
13629310384
13629315877
13629321371
13629327230
13629329976
13629337911
13629344015
13629350911
13629355733
13629362691
13629367635
13629373739
13629380575
13629384664
13629389058
13629396566
13629402791
13629407369
13629411885
13629419088
13629423421
13629428853
13629433919
13629440206
13629446553
13629452230
13629457051
13629464559
13629469014
13629474507
13629481465
13629487691
13629494588
13629499837
13629504659
13629510579
13629515584
13629520650
13629528340
13629533772
13629539937
13629546101
13629552022
13629557149
13629563496
13629569966
13629576070
13629579427
13629587422
13629592183
13629599019
13629605000
13629611104
13629617207
13629623067
13629629902
13629636860
13629642171
13629648274
13629655110
13629659993
13629667256
13629671345
13629679097
13629683979
13629692463
13629698567
13629704426
13629710896
13629716572
13629721699
13629729084
13629735432
13629741658
13629747761
13629754048
13629760090
13629765949
13629770222
13629777363
13629781880
13629790669
13629795063
13629802265
13629807270
13629813007
13629819416
13629826740
13629833698
13629840717
13629847126
13629854939
13629860127
13629865559
13629870747
13629878193
13629885395
13629891071
13629896564
13629901508
13629906757
13629912372
13629917072
13629923054
13629929584
13629936603
13629942951
13629951008
13629957660
13629963703
13629971515
13629977131
13629986225
13629993305
13630001239
13630007770
13630015644
13630021137
13630029132
13630037799
13630045246
13630052082
13630057636
13630064655
13630072772
13630081317
13630087238
13630097858
13630105121
13630112140
13630118976
13630126117
13630133868
13630141193
13630150104
13630158649
13630166217
13630173724
13630181110
13630188556
13630195209
13630202960
13630212787
13630220599
13630228229
13630237445
13630243121
13630250751
13630258624
13630266192
13630273883
13630284869
13630294513
13630304217
13630312457
13630318866
13630326678
13630334857
13630343341
13630350848
13630358050
13630365679
13630373431
13630380450
13630387774
13630392962
13630404131
13630413165
13630419146
13630426898
13630433184
13630443133
13630448809
13630458941
13630465472
13630476214
13630481707
13630491045
13630497759
13630505633
13630514910
13630522539
13630529436
13630537981
13630544878
13630553118
13630560686
13630569109
13630576189
13630584002
13630593279
13630600908
13630607378
13630618242
13630625017
13630633623
13630641008
13630649309
13630655779
13630663469
13630670366
13630678179
13630685442
13630693559
13630700639
13630709367
13630718950
13630727190
13630735796
13630742021
13630750627
13630758745
13630766069
13630774675
13630783464
13630792009
13630799760
13630808000
13630813737
13630822404
13630830461
13630839311
13630846208
13630854692
13630862260
13630870927
13630878190
13630888139
13630896440
13630903947
13630913346
13630920854
13630928666
13630935746
13630941728
13630949601
13630957414
13630964250
13630971940
13630979142
13630986894
13630994767
13631001359
13631009538
13631017716
13631024247
13631032609
13631038895
13631048234
13631054887
13631061234
13631069047
13631077225
13631083939
13631094376
13631100114
13631109513
13631116471
13631126053
13631136124
13631145890
13631153092
13631163224
13631170609
13631180008
13631188065
13631195084
13631201737
13631209549
13631215592
13631224869
13631231949
13631239945
13631247025
13631254654
13631262772
13631270218
13631276688
13631284134
13631290116
13631300369
13631309342
13631317215
13631323685
13631331192
13631336624
13631342178
13631349136
13631356949
13631363052
13631368179
13631372757
13631379532
13631385269
13631392959
13631397537
13631404800
13631409988
13631417007
13631422012
13631427139
13631431534
13631436844
13631442703
13631450332
13631455581
13631460586
13631465164
13631470962
13631475662
13631481704
13631485244
13631492080
13631496414
13631502273
13631506424
13631511550
13631517593
13631523086
13631529739
13631536514
13631542617
13631547988
13631553115
13631558486
13631563369
13631569045
13631573989
13631580398
13631584915
13631590103
13631596328
13631601211
13631607559
13631611892
13631618667
13631625869
13631632705
13631639236
13631643569
13631648879
13631654556
13631659805
13631666701
13631672195
13631677383
13631683669
13631688552
13631693740
13631699782
13631706740
13631712173
13631717055
13631724563
13631729934
13631735793
13631742324
13631747512
13631752883
13631758620
13631763015
13631772292
13631777724
13631783278
13631788344
13631794082
13631799636
13631805739
13631811843
13631819899
13631824904
13631831191
13631837416
13631840773
13631847365
13631852309
13631858718
13631865004
13631871718
13631876113
13631882521
13631887343
13631892653
13631900160
13631905837
13631911391
13631917616
13631923232
13631929579
13631936293
13631942213
13631947035
13631954726
13631962538
13631970167
13631977187
13631983900
13631988905
13631994826
13632002028
13632005812
13632012037
13632018141
13632023939
13632028822
13632034681
13632040297
13632044569
13632051039
13632055067
13632064222
13632070387
13632075575
13632080885
13632085890
13632090529
13632095961
13632101881
13632108534
13632113234
13632118788
13632125196
13632130629
13632134901
13632139906
13632145521
13632151502
13632155836
13632162733
13632168836
13632174391
13632179945
13632183668
13632190199
13632202650
13632209852
13632217176
13632223463
13632231580
13632238294
13632245802
13632252576
13632261060
13632270582
13632278333
13632285657
13632292798
13632299634
13632306409
13632313550
13632320814
13632330884
13632336988
13632344800
13632351209
13632359571
13632367749
13632375135
13632381421
13632391492
13632398267
13632405591
13632412122
13632421765
13632427869
13632434583
13632443250
13632451673
13632458997
13632466748
13632474744
13632480786
13632487134
13632494336
13632504773
13632512830
13632522412
13632532788
13632540662
13632545239
13632554028
13632559521
13632568738
13632577161
13632587475
13632599072
13632607312
13632616650
13632624341
13632634839
13632642102
13632654065
13632664135
13632673230
13632680737
13632688488
13632698681
13632706372
13632713940
13632722973
13632730175
13632738598
13632746472
13632753552
13632762097
13632768444
13632777172
13632784435
13632792309
13632799755
13632807690
13632815502
13632822521
13632830334
13632837841
13632844250
13632851513
13632860302
13632866772
13632873608
13632882152
13632890575
13632898571
13632907787
13632914013
13632922619
13632928661
13632937450
13632944774
13632951427
13632959301
13632966198
13632974010
13632981090
13632989574
13632996349
13633003185
13633010326
13633016918
13633026622
13633032787
13633041515
13633046215
13633054820
13633061168
13633068248
13633075939
13633083568
13633090404
13633097728
13633105113
13633112254
13633119579
13633125255
13633134227
13633142162
13633150462
13633158214
13633164683
13633172557
13633178905
13633187511
13633193492
13633201366
13633212474
13633217662
13633227733
13633235606
13633241588
13633248607
13633257457
13633264048
13633275218
13633284129
13633291392
13633301219
13633309703
13633314402
13633321360
13633333445
13633340586
13633348216
13633356028
13633363902
13633371226
13633376597
13633386729
13633394602
13633401560
13633409007
13633417551
13633422312
13633431467
13633437022
13633447581
13633456004
13633466379
13633472544
13633481882
13633487864
13633495676
13633505015
13633513071
13633519175
13633527414
13633536631
13633543039
13633551218
13633557322
13633564097
13633571482
13633578989
13633589121
13633597116
13633606882
13633613291
13633620310
13633625681
13633631540
13633637155
13633642588
13633648935
13633656320
13633659067
13633668100
13633671396
13633678110
13633682565
13633690500
13633695932
13633702829
13633706979
13633714182
13633719858
13633724802
13633731332
13633738290
13633742563
13633747629
13633752389
13633757455
13633761545
13633766672
13633771738
13633777475
13633782663
13633788888
13633794259
13633800485
13633805978
13633811838
13633818918
13633824716
13633829599
13633836068
13633842843
13633847848
13633855233
13633860116
13633865793
13633870858
13633874887
13633882394
13633887704
13633892648
13633897348
13633902352
13633908517
13633913644
13633919137
13633924264
13633929818
13633935433
13633941537
13633947518
13633954721
13633960458
13633967050
13633972604
13633976083
13633982736
13633990975
13633995675
13634003060
13634008798
13634014108
13634019662
13634024972
13634030709
13634035592
13634042855
13634047738
13634056466
13634062020
13634068551
13634077340
13634083382
13634089730
13634096078
13634103768
13634110055
13634117074
13634122078
13634130013
13634136361
13634141427
13634147591
13634152657
13634159737
13634165108
13634171578
13634176827
13634183052
13634188485
13634193917
13634199410
13634202034
13634210274
13634215096
13634221321
13634225533
13634230477
13634236397
13634241097
13634246773
13634252022
13634256661
13634263619
13634267769
13634274727
13634279183
13634286751
13634292122
13634298775
13634304451
13634309944
13634316536
13634321968
13634327583
13634332405
13634339485
13634346138
13634350838
13634357979
13634363655
13634369148
13634375191
13634381294
13634388679
13634394234
13634401253
13634406807
13634412300
13634418098
13634424324
13634430061
13634436165
13634443001
13634448494
13634454475
13634460762
13634466438
13634474189
13634481697
13634488288
13634499336
13634505867
13634514350
13634524238
13634531806
13634540412
13634547981
13634555671
13634565009
13634571601
13634580207
13634587165
13634593879
13634600288
13634607978
13634616950
13634625190
13634634589
13634641425
13634646979
13634656257
13634663581
13634671577
13634675422
13634687202
13634693610
13634701118
13634711249
13634721381
13634728278
13634737800
13634748969
13634756476
13634764106
13634771308
13634778754
13634786078
13634793158
13634800788
13634808356
13634818122
13634825812
13634832099
13634838202
13634845404
13634853644
13634861151
13634864630
13634876959
13634884345
13634891364
13634898505
13634905951
13634913336
13634920721
13634926947
13634937079
13634943732
13634950812
13634957465
13634964361
13634971930
13634978644
13634985174
13634994452
13635000433
13635009161
13635016119
13635023443
13635029303
13635036322
13635044684
13635052557
13635060858
13635068243
13635074408
13635082159
13635090155
13635097540
13635103460
13635112371
13635118841
13635127691
13635134039
13635141424
13635150457
13635157354
13635164007
13635171575
13635180670
13635188543
13635195318
13635203069
13635210577
13635219305
13635226873
13635235357
13635242986
13635251348
13635258794
13635265508
13635273931
13635281866
13635290166
13635298162
13635306280
13635315130
13635321782
13635330022
13635338262
13635346013
13635354009
13635361760
13635371587
13635379583
13635387700
13635395696
13635404058
13635411748
13635419988
13635426457
13635435124
13635441777
13635451055
13635457890
13635465093
13635472600
13635480718
13635490483
13635496831
13635506535
13635514531
13635522832
13635530705
13635538396
13635546696
13635556401
13635563115
13635571110
13635580022
13635587834
13635595402
13635603215
13635609501
13635619572
13635626896
13635634343
13635642888
13635650883
13635659306
13635667118
13635674748
13635683964
13635691349
13635701481
13635707585
13635716252
13635723454
13635731266
13635738468
13635746281
13635752934
13635761112
13635768620
13635776859
13635783329
13635791264
13635798771
13635806828
13635814152
13635822147
13635830143
13635838810
13635846256
13635852726
13635860538
13635869266
13635875614
13635884647
13635893009
13635901371
13635906498
13635913517
13635918583
13635925419
13635932132
13635938297
13635943119
13635949955
13635956302
13635961185
13635967228
13635972049
13635977359
13635980167
13635989749
13635995609
13636000736
13636005252
13636010807
13636016666
13636023441
13636027713
13636035831
13636040470
13636045963
13636051212
13636057254
13636062381
13636067813
13636072269
13636080447
13636086673
13636092044
13636096988
13636103641
13636108463
13636113467
13636119937
13636125064
13636132327
13636138492
13636144107
13636150760
13636156131
13636161990
13636167300
13636173404
13636179507
13636186709
13636191348
13636198367
13636202456
13636209292
13636214908
13636221621
13636228274
13636237185
13636243228
13636249575
13636255557
13636263858
13636270755
13636276553
13636284549
13636290469
13636296389
13636302981
13636307498
13636312564
13636317691
13636325320
13636330386
13636337039
13636342593
13636349246
13636356204
13636361575
13636364626
13636371035
13636378237
13636385806
13636392458
13636397219
13636402956
13636408328
13636412600
13636418276
13636425051
13636431338
13636438174
13636443117
13636448061
13636453371
13636458315
13636463320
13636470766
13636475588
13636481447
13636487673
13636493288
13636498659
13636504091
13636507082
13636514895
13636521059
13636527041
13636532106
13636537600
13636541933
13636548708
13636552797
13636559816
13636564577
13636570314
13636577089
13636581057
13636587343
13636592836
13636598513
13636604799
13636610353
13636617372
13636624025
13636630068
13636635256
13636641542
13636646913
13636652223
13636658510
13636665834
13636671938
13636677919
13636684206
13636689760
13636695924
13636702699
13636709230
13636716432
13636724611
13636730287
13636736818
13636742799
13636749513
13636755189
13636764162
13636772340
13636780336
13636789796
13636800172
13636809572
13636822328
13636830385
13636842531
13636855287
13636865419
13636878297
13636890016
13636899476
13636909242
13636920106
13636930482
13636941590
13636951173
13636962403
13636971497
13636980653
13636991883
13637001954
13637012208
13637020875
13637031922
13637041505
13637048402
13637059449
13637072571
13637080445
13637091614
13637100220
13637111085
13637120423
13637132569
13637142762
13637154419
13637164124
13637174988
13637184082
13637194336
13637205628
13637216553
13637228577
13637238342
13637248902
13637258911
13637270691
13637279602
13637289490
13637300537
13637309814
13637319519
13637330872
13637340942
13637357727
13637375732
13637394653
13637414001
13637431457
13637450256
13637467956
13637485534
13637502807
13637524291
13637537048
13637545715
13637557067
13637574767
13637593566
13637612304
13637632507
13637645385
13637655150
13637665465
13637675231
13637683959
13637693603
13637703856
13637712157
13637722472
13637731505
13637741515
13637751281
13637760436
13637770324
13637779967
13637790282
13637799010
13637809020
13637818724
13637825865
13637836485
13637844786
13637852843
13637864684
13637874083
13637882262
13637891478
13637904478
13637914000
13637926451
13637937132
13637945128
13637955504
13637965636
13637974791
13637984495
13637995115
13638006773
13638018858
13638028441
13638036680
13638045958
13638054808
13638064817
13638075254
13638084715
13638095762
13638104368
13638113645
13638122984
13638133116
13638143308
13638152830
13638161863
13638171323
13638181944
13638190488
13638199705
13638210630
13638218992
13638229124
13638239255
13638249692
13638259397
13638268064
13638279172
13638288267
13638296628
13638305723
13638315793
13638325193
13638334653
13638343503
13638354673
13638363156
13638373777
13638382016
13638392820
13638401242
13638409360
13638419553
13638432004
13638439084
13638451657
13638462277
13638471677
13638479306
13638490842
13638499204
13638511777
13638520383
13638533078
13638542111
13638551999
13638561093
13638570859
13638580075
13638591366
13638601681
13638609311
13638616513
13638623410
13638628476
13638636837
13638640561
13638645688
13638649472
13638654171
13638659115
13638662350
13638670163
13638674984
13638680233
13638684872
13638690487
13638696224
13638700192
13638706723
13638712521
13638717343
13638722836
13638729244
13638733517
13638738400
13638742367
13638747982
13638753292
13638756771
13638761837
13638767391
13638773556
13638779293
13638783627
13638788509
13638792721
13638797970
13638803707
13638807858
13638813656
13638818905
13638823788
13638828121
13638832210
13638837154
13638843319
13638848873
13638851498
13638861202
13638864864
13638870907
13638875057
13638879818
13638885128
13638889522
13638894893
13638899410
13638903743
13638909298
13638913082
13638919246
13638925350
13638929866
13638936702
13638942379
13638947078
13638952022
13638957698
13638962886
13638970699
13638977535
13638982357
13638988033
13638994930
13639000972
13639005550
13639010738
13639016048
13639023982
13639029170
13639036006
13639040950
13639046626
13639052364
13639060115
13639065608
13639071956
13639077449
13639081905
13639088985
13639094295
13639099544
13639104243
13639110713
13639115291
13639122432
13639127498
13639133845
13639139339
13639143794
13639150813
13639156856
13639162837
13639168635
13639175105
13639180354
13639186641
13639194331
13639200374
13639206416
13639213984
13639219294
13639225825
13639230647
13639236995
13639246699
13639250850
13639256099
13639262019
13639266841
13639271418
13639277705
13639282038
13639290583
13639296687
13639302180
13639307002
13639312251
13639317134
13639323420
13639329646
13639334467
13639339350
13639344782
13639351191
13639356318
13639361323
13639368708
13639374079
13639381281
13639388972
13639394526
13639400324
13639409052
13639417658
13639423762
13639432123
13639440058
13639447504
13639455500
13639462824
13639470942
13639481867
13639489130
13639497370
13639506159
13639513178
13639520258
13639527643
13639534784
13639543818
13639551081
13639558832
13639566828
13639576044
13639583979
13639593012
13639600824
13639609003
13639618097
13639624628
13639632013
13639641779
13639649591
13639656549
13639664362
13639672052
13639680658
13639690240
13639697504
13639704218
13639712030
13639718866
13639727045
13639735467
13639743402
13639751153
13639759637
13639767389
13639775689
13639782586
13639790765
13639799920
13639806878
13639813409
13639821344
13639829522
13639838189
13639845697
13639853692
13639860894
13639869317
13639878411
13639886346
13639895074
13639902215
13639910638
13639919183
13639927850
13639936334
13639945977
13639953607
13639963006
13639970330
13639978509
13639987359
13639994683
13640001458
13640008904
13640016656
13640024285
13640031182
13640039361
13640048089
13640055840
13640062005
13640070000
13640078850
13640086846
13640091118
13640103814
13640111138
13640120842
13640127922
13640136834
13640145562
13640152336
13640158867
13640168450
13640176689
13640184136
13640191399
13640197747
13640205620
13640213371
13640221367
13640230034
13640236015
13640244560
13640252373
13640256767
13640266228
13640272698
13640282158
13640288811
13640299126
13640308464
13640317131
13640325371
13640330498
13640339958
13640347648
13640353996
13640361442
13640368950
13640379265
13640385673
13640393242
13640400322
13640407768
13640417045
13640424431
13640434074
13640439079
13640449150
13640456596
13640466545
13640473686
13640480705
13640488151
13640495353
13640503349
13640510856
13640516654
13640526176
13640533317
13640540641
13640547843
13640556510
13640563285
13640573539
13640580070
13640587821
13640594230
13640602287
13640611503
13640619620
13640625968
13640634940
13640644340
13640650809
13640660148
13640666251
13640674918
13640683585
13640692252
13640701163
13640705741
13640715628
13640723563
13640732047
13640740104
13640749259
13640755790
13640766227
13640776175
13640784720
13640792044
13640800101
13640806937
13640812613
13640820670
13640825858
13640831961
13640836661
13640841544
13640847525
13640853262
13640858939
13640863455
13640869742
13640874075
13640880057
13640883963
13640889456
13640893851
13640900626
13640905264
13640911612
13640916983
13640921927
13640927359
13640932242
13640936941
13640943594
13640948477
13640954764
13640959097
13640965506
13640971487
13640975516
13640980826
13640986990
13640991995
13640996145
13641003347
13641008169
13641013601
13641018484
13641025320
13641030508
13641036245
13641041922
13641047537
13641054800
13641059805
13641064932
13641072195
13641077810
13641083242
13641088796
13641095632
13641101614
13641106191
13641112051
13641117910
13641123403
13641127981
13641134634
13641143179
13641149770
13641154104
13641159597
13641165395
13641170828
13641176565
13641182424
13641187368
13641193227
13641199453
13641205312
13641211965
13641217092
13641221792
13641228872
13641236196
13641241323
13641247610
13641252736
13641260000
13641265859
13641270315
13641278676
13641282827
13641304799
13641311208
13641318837
13641325856
13641330922
13641338002
13641342824
13641349477
13641353688
13641358754
13641365712
13641371877
13641376332
13641382375
13641388173
13641393483
13641398122
13641403493
13641407765
13641413564
13641420827
13641425588
13641432179
13641438405
13641443898
13641449513
13641455251
13641461232
13641466542
13641472707
13641477406
13641484059
13641488454
13641493886
13641500233
13641505360
13641512501
13641517628
13641522877
13641528859
13641534413
13641541005
13641546925
13641552296
13641559132
13641564320
13641570790
13641577565
13641584034
13641589283
13641592946
13641600880
13641606312
13641613331
13641621266
13641630726
13641635731
13641644886
13641650502
13641660328
13641668202
13641675526
13641684437
13641690724
13641700123
13641706593
13641713429
13641723072
13641731373
13641737904
13641746815
13641754444
13641762074
13641769520
13641778248
13641787830
13641793934
13641804188
13641811756
13641819141
13641826282
13641835132
13641842213
13641849842
13641861866
13641871448
13641877735
13641889271
13641894825
13641904834
13641911487
13641921436
13641929371
13641936695
13641943470
13641953540
13641961597
13641970020
13641978504
13641986377
13641994434
13642001941
13642011218
13642019092
13642025134
13642034900
13642041492
13642048755
13642059497
13642067004
13642073657
13642084583
13642091785
13642099048
13642105640
13642113513
13642120898
13642128894
13642135852
13642144397
13642153186
13642161670
13642169055
13642176928
13642183825
13642191882
13642199572
13642207568
13642213977
13642221850
13642226184
13642236438
13642243945
13642252978
13642261462
13642269580
13642276354
13642284167
13642290393
13642298754
13642307116
13642315417
13642322009
13642329821
13642338366
13642343554
13642353198
13642360949
13642368395
13642373827
13642383654
13642391589
13642398730
13642405199
13642415331
13642423327
13642430590
13642441759
13642448534
13642457201
13642463427
13642469958
13642479113
13642484972
13642494127
13642501635
13642509752
13642519335
13642527025
13642536547
13642542711
13642550402
13642557604
13642567491
13642573839
13642583116
13642589464
13642596849
13642606371
13642611498
13642618761
13642629259
13642639452
13642648180
13642655870
13642661058
13642668199
13642678270
13642684679
13642690843
13642700792
13642707994
13642717943
13642725206
13642732591
13642740220
13642749010
13642758409
13642768541
13642776964
13642783433
13642793626
13642799852
13642808091
13642816880
13642827256
13642834459
13642844102
13642850389
13642859727
13642867051
13642874742
13642882920
13642889512
13642900376
13642908250
13642916673
13642924424
13642932664
13642940598
13642948411
13642956467
13642964402
13642972092
13642980027
13642986985
13642995347
13643003220
13643013108
13643020005
13643026414
13643032029
13643037644
13643043748
13643050156
13643056138
13643061570
13643067734
13643073227
13643078721
13643083298
13643088425
13643093674
13643100022
13643106797
13643112717
13643117539
13643123093
13643128586
13643134812
13643139328
13643144455
13643149643
13643155136
13643162033
13643166977
13643174423
13643179611
13643186203
13643191635
13643197617
13643204148
13643210190
13643215683
13643221542
13643227951
13643232407
13643238815
13643245285
13643251389
13643257431
13643264328
13643269821
13643277390
13643283554
13643287704
13643297775
13643303451
13643309555
13643316086
13643322250
13643325363
13643332809
13643337509
13643344528
13643350998
13643355392
13643361313
13643367294
13643372665
13643380111
13643385238
13643393539
13643399337
13643404831
13643411361
13643419052
13643424545
13643433029
13643437301
13643444381
13643448654
13643456161
13643460800
13643466781
13643472885
13643478744
13643483993
13643490463
13643496139
13643501571
13643507675
13643512985
13643518234
13643524276
13643529769
13643535445
13643540450
13643546066
13643552413
13643558212
13643563400
13643569259
13643574264
13643581283
13643585616
13643592452
13643597884
13643603133
13643608199
13643613875
13643620345
13643625899
13643632308
13643637557
13643642745
13643648910
13643654159
13643661788
13643666610
13643672591
13643677535
13643683761
13643690596
13643696517
13643702498
13643708358
13643714339
13643720748
13643726973
13643731795
13643738448
13643744368
13643749922
13643756636
13643762923
13643767562
13643774336
13643779708
13643785750
13643791792
13643795455
13643803877
13643809920
13643816329
13643821333
13643827864
13643832625
13643839217
13643844466
13643852583
13643857954
13643864180
13643868941
13643876814
13643885481
13643891219
13643897810
13643908491
13643916792
13643925398
13643929915
13643938338
13643946882
13643954817
13643962874
13643970808
13643978132
13643986250
13643994551
13644002119
13644010725
13644018049
13644025190
13644033064
13644042219
13644050581
13644059614
13644067366
13644072553
13644080976
13644090071
13644097456
13644104475
13644115095
13644123701
13644131574
13644138288
13644146467
13644154646
13644163862
13644171491
13644180524
13644184858
13644196882
13644204206
13644212324
13644219099
13644225873
13644235517
13644244672
13644251081
13644260419
13644268293
13644276105
13644283551
13644290143
13644298871
13644308332
13644317060
13644324323
13644332441
13644336896
13644348188
13644355146
13644362897
13644373212
13644381024
13644391278
13644399091
13644407025
13644415936
13644423993
13644432904
13644441693
13644446332
13644458173
13644466351
13644475018
13644482465
13644490094
13644496075
13644506146
13644512067
13644521588
13644527936
13644536908
13644543194
13644551251
13644560284
13644566937
13644573834
13644581891
13644591412
13644596905
13644606854
13644612103
13644619488
13644626507
13644634320
13644643109
13644651165
13644658489
13644666180
13644674481
13644682415
13644688275
13644697125
13644703411
13644714459
13644721722
13644729656
13644736065
13644744549
13644750469
13644758160
13644765606
13644774883
13644783794
13644791607
13644798809
13644806377
13644813213
13644819744
13644827129
13644836407
13644846172
13644853679
13644862102
13644868450
13644876262
13644885173
13644891155
13644900798
13644909893
13644918438
13644926250
13644935161
13644940837
13644949810
13644957805
13644964580
13644974224
13644983440
13644991252
13644999370
13645006816
13645014201
13645021648
13645030864
13645038982
13645046062
13645053630
13645061320
13645068767
13645077006
13645084636
13645091594
13645102214
13645109599
13645117229
13645124797
13645132304
13645139689
13645147075
13645154399
13645162333
13645170817
13645178325
13645186442
13645194316
13645202006
13645209697
13645217570
13645225871
13645234355
13645241618
13645248088
13645255900
13645265116
13645272868
13645276835
13645288737
13645294535
13645304484
13645311991
13645320048
13645324687
13645333659
13645340434
13645347758
13645354350
13645359232
13645363749
13645370463
13645375346
13645380900
13645388041
13645393534
13645400065
13645405619
13645411783
13645417460
13645423929
13645429239
13645436075
13645442850
13645447794
13645452067
13645456888
13645462687
13645468180
13645473185
13645480570
13645486918
13645492228
13645496195
13645503214
13645507853
13645513407
13645519510
13645526590
13645531839
13645539591
13645545328
13645552530
13645556864
13645565470
13645570719
13645578348
13645585306
13645591837
13645597940
13645604349
13645611063
13645616068
13645620584
13645628275
13645633096
13645639139
13645646768
13645650125
13645656595
13645661478
13645669473
13645674173
13645682352
13645688272
13645693582
13645698648
13645704202
13645709756
13645715249
13645720621
13645727884
13645733072
13645738626
13645743509
13645750955
13645756509
13645761941
13645764871
13645774331
13645779702
13645785257
13645790384
13645795816
13645801065
13645807229
13645814126
13645822000
13645827249
13645833230
13645839822
13645845254
13645849649
13645855752
13645860757
13645867044
13645874185
13645880105
13645885171
13645891641
13645897134
13645902322
13645907327
13645914712
13645921365
13645926614
13645931619
13645937478
13645942971
13645947854
13645953408
13645959939
13645966225
13645971474
13645977761
13645984597
13645989052
13645995827
13646000039
13646007302
13646014931
13646021828
13646028054
13646033669
13646039834
13646045815
13646051247
13646056130
13646064614
13646069497
13646076821
13646083230
13646091591
13646098793
13646106362
13646113625
13646119912
13646128823
13646135903
13646142556
13646153298
13646161904
13646167275
13646177162
13646188088
13646195595
13646203163
13646213295
13646221291
13646232765
13646238319
13646252052
13646260902
13646272865
13646281654
13646288795
13646307167
13646314674
13646327675
13646339454
13646351112
13646360878
13646371315
13646384620
13646395973
13646405799
13646415138
13646426124
13646438636
13646450294
13646457801
13646470130
13646482520
13646491859
13646500587
13646512672
13646520179
13646531226
13646542579
13646551063
13646558326
13646572059
13646580360
13646590919
13646602454
13646611121
13646622413
13646629737
13646640113
13646651832
13646662208
13646669959
13646681678
13646687781
13646700293
13646710974
13646720496
13646733130
13646741004
13646754309
13646764929
13646772376
13646785559
13646797034
13646807044
13646816992
13646828894
13646840186
13646847571
13646860815
13646870825
13646878882
13646893835
13646904455
13646912634
13646923315
13646931250
13646945776
13646955725
13646967810
13646977514
13646990026
13647214391
13647226903
13647237340
13647244359
13647264013
13647276281
13647285619
13647296849
13647307408
13647320470
13647330297
13647342382
13647351598
13647363194
13647371373
13647381078
13647392186
13647400304
13647412816
13647421300
13647435155
13647443700
13647454930
13647466283
13647476720
13647485203
13647498570
13647505162
13647521397
13647531407
13647541905
13647557469
13647565342
13647576817
13647589024
13647599278
13647608738
13647618138
13647628331
13647638035
13647647679
13647658482
13647668919
13647679722
13647691136
13647702122
13647711033
13647723240
13647733311
13647744114
13647753635
13647764378
13647772678
13647784153
13647794773
13647806614
13647812717
13647826755
13647833591
13647848606
13647854831
13647869175
13647879306
13647891269
13647900058
13647910984
13647921604
13647930088
13647939975
13647949619
13647957614
13647964511
13647971286
13647980197
13647988132
13647999240
13648005893
13648016818
13648025668
13648034091
13648045749
13648053134
13648060519
13648067844
13648075046
13648079257
13648088656
13648097751
13648107638
13648113925
13648118808
13648127475
13648136996
13648143161
13648154330
13648160067
13648171542
13648179904
13648185214
13648195834
13648198336
13648208102
13648217623
13648224459
13648234164
13648241610
13648249789
13648259493
13648268832
13648275973
13648285983
13648293734
13648299227
13648307833
13648319125
13648327242
13648333651
13648343233
13648351290
13648357699
13648362887
13648369662
13648376742
13648383395
13648391451
13648397860
13648403536
13648409029
13648415438
13648423067
13648429415
13648433809
13648439242
13648445589
13648448519
13648457613
13648465548
13648473482
13648478365
13648486177
13648493013
13648499788
13648505465
13648510897
13648517183
13648522615
13648527742
13648531649
13648535616
13648544161
13648550264
13648555513
13648560457
13648565462
13648569734
13648574739
13648578707
13648585787
13648590120
13648595857
13648599825
13648605318
13648610201
13648616426
13648623323
13648628633
13648636263
13648639558
13648646028
13648650850
13648657930
13648663301
13648668611
13648674043
13648680940
13648685701
13648693208
13648697236
13648702791
13648708162
13648714204
13648720918
13648727144
13648732759
13648738191
13648744356
13648748384
13648755586
13648759797
13648766023
13648773164
13648777986
13648785493
13648790132
13648796113
13648800569
13648806611
13648812287
13648819978
13648827180
13648832368
13648837434
13648841523
13648849031
13648852571
13648860688
13648866120
13648872834
13648875947
13648885590
13648889192
13648897004
13648902741
13648910371
13648915620
13648923615
13648928925
13648934541
13648941682
13648946503
13648953339
13648958405
13648964020
13648970673
13648979096
13648986542
13648993867
13649001679
13649008515
13649015290
13649023224
13649032441
13649040070
13649045746
13649055512
13649062165
13649069550
13649076447
13649083649
13649091339
13649098786
13649104523
13649112458
13649119416
13649126923
13649133820
13649141083
13649144867
13649154267
13649160492
13649169403
13649176361
13649182709
13649192108
13649199921
13649207794
13649215912
13649223175
13649228668
13649238617
13649245880
13649254059
13649259796
13649267975
13649277801
13649283844
13649291046
13649298736
13649307037
13649315338
13649323150
13649328338
13649336029
13649345611
13649353119
13649361419
13649368621
13649376678
13649385772
13649392486
13649400299
13649407806
13649413909
13649423248
13649429656
13649437042
13649446014
13649450408
13649460479
13649467071
13649476653
13649483550
13649493926
13649500762
13649510162
13649516998
13649527679
13649532073
13649542693
13649549163
13649559966
13649566253
13649573455
13649582915
13649589873
13649597381
13649605132
13649615691
13649621978
13649630095
13649637786
13649646026
13649654876
13649661712
13649670684
13649679595
13649687957
13649696746
13649705168
13649713958
13649720549
13649728606
13649736846
13649745391
13649753996
13649762602
13649770049
13649777556
13649785613
13649793425
13649797453
13649810515
13649817534
13649824980
13649831267
13649839201
13649846892
13649854948
13649861845
13649868071
13649878630
13649885527
13649892363
13649899382
13649907622
13649916044
13649921782
13649930632
13649939116
13649946684
13649954252
13649961271
13649969206
13649975004
13649983976
13649990263
13650000151
13650006620
13650015776
13650021818
13650030485
13650039457
13650046537
13650053434
13650059782
13650070463
13650076627
13650086637
13650092863
13650100492
13650107755
13650115995
13650123563
13650131498
13650138883
13650146513
13650153959
13650162076
13650165983
13650175504
13650183317
13650194303
13650200956
13650209928
13650216459
13650223844
13650230619
13650239103
13650246610
13650252652
13650262967
13650270902
13650277860
13650285550
13650292752
13650300443
13650307828
13650314298
13650324613
13650331815
13650339627
13650345609
13650353116
13650360196
13650368375
13650374417
13650385404
13650391690
13650401151
13650405484
13650410672
13650414700
13650421536
13650426846
13650432400
13650439236
13650444730
13650449734
13650455044
13650462186
13650469327
13650474148
13650480618
13650485928
13650494778
13650501370
13650507535
13650512417
13650520535
13650525662
13650532010
13650538418
13650544644
13650550686
13650556851
13650562527
13650568509
13650574917
13650581997
13650587674
13650593411
13650598782
13650604336
13650609463
13650615017
13650620755
13650626553
13650632717
13650637966
13650642666
13650649319
13650653530
13650658901
13650664395
13650671658
13650677212
13650682461
13650687954
13650693264
13650697659
13650704067
13650711391
13650716824
13650722988
13650729763
13650735012
13650740566
13650746975
13650752224
13650758511
13650764248
13650770046
13650776394
13650779995
13650786403
13650791836
13650797329
13650804775
13650810451
13650815700
13650822292
13650826503
13650833339
13650838955
13650844265
13650849453
13650855190
13650860378
13650867946
13650873378
13650878933
13650883693
13650889675
13650892788
13650903591
13650909267
13650915493
13650920253
13650925868
13650930202
13650935817
13650941371
13650950160
13650955348
13650960842
13650967983
13650974086
13650980129
13650985744
13650991908
13650997951
13651004665
13651010097
13651014613
13651019740
13651026454
13651033656
13651039088
13651045314
13651051845
13651057521
13651065822
13651069972
13651075465
13651083156
13651089137
13651097011
13651102138
13651110011
13651119349
13651125026
13651132167
13651138514
13651143519
13651151027
13651156031
13651162013
13651167384
13651174525
13651182154
13651186732
13651193812
13651198939
13651205348
13651209864
13651215602
13651220423
13651224940
13651228968
13651236292
13651242640
13651248011
13651253748
13651258692
13651263880
13651271754
13651276698
13651285426
13651291773
13651300684
13651308192
13651314295
13651322474
13651329920
13651336939
13651344324
13651352442
13651360377
13651368555
13651375941
13651383875
13651391810
13651398951
13651406458
13651410364
13651422449
13651429896
13651437708
13651444788
13651452173
13651458765
13651466211
13651474939
13651481958
13651491114
13651496973
13651505762
13651513025
13651521509
13651527368
13651537195
13651545740
13651553369
13651560144
13651569605
13651576318
13651584070
13651592432
13651598047
13651604944
13651615198
13651622156
13651629724
13651636865
13651645044
13651651392
13651657922
13651664758
13651675806
13651682153
13651691492
13651697961
13651705957
13651713220
13651720361
13651730432
13651739404
13651748010
13651756250
13651765649
13651772668
13651779443
13651788232
13651797631
13651805139
13651814843
13651822412
13651831506
13651838891
13651846154
13651854028
13651861535
13651868615
13651878503
13651883325
13651892907
13651899926
13651907311
13651913781
13651921654
13651930749
13651939233
13651947900
13651953820
13651962670
13651968407
13651974572
13651982628
13651991967
13652002526
13652010155
13652017968
13652023888
13652032494
13652038475
13652046166
13652053124
13652061669
13652068810
13652077599
13652084801
13652091698
13652099327
13652106713
13652114708
13652123436
13652131920
13652138939
13652146568
13652153649
13652161522
13652167503
13652176964
13652183556
13652193016
13652202232
13652210045
13652218773
13652226158
13652232262
13652240562
13652247032
13652257896
13652264549
13652273277
13652280540
13652288231
13652295067
13652303550
13652310997
13652318016
13652327964
13652332969
13652342979
13652350242
13652357689
13652364158
13652371605
13652379539
13652388023
13652396019
13652403953
13652412254
13652417869
13652426292
13652434226
13652440391
13652450218
13652456687
13652466392
13652474754
13652479942
13652488670
13652494895
13652503623
13652511314
13652518882
13652525962
13652535728
13652541831
13652549338
13652556174
13652564231
13652572593
13652580955
13652587913
13652596152
13652604697
13652612998
13652620749
13652628623
13652633139
13652646506
13652653830
13652662192
13652668418
13652677512
13652683554
13652689963
13652698203
13652706809
13652711142
13652717368
13652722434
13652729025
13652734030
13652740866
13652745444
13652753012
13652759787
13652765402
13652770590
13652776144
13652781271
13652786826
13652792929
13652801657
13652806357
13652813559
13652819174
13652824606
13652829672
13652837668
13652843222
13652850119
13652855124
13652861471
13652866537
13652871603
13652878134
13652882467
13652889120
13652896261
13652902182
13652907309
13652913351
13652920370
13652926596
13652932150
13652938314
13652943991
13652949606
13652955099
13652960714
13652967245
13652974020
13652979025
13652986776
13652991781
13652998068
13653003683
13653009664
13653015463
13653021993
13653026876
13653035238
13653040487
13653046102
13653052084
13653057638
13653064230
13653069296
13653076070
13653082235
13653087118
13653094503
13653099020
13653107626
13653113973
13653120260
13653128011
13653135519
13653141866
13653148824
13653154928
13653163167
13653167989
13653174581
13653180318
13653187642
13653191732
13653200826
13653207601
13653214864
13653218526
13653228475
13653233663
13653242513
13653247945
13653254171
13653261190
13653266744
13653272176
13653278463
13653285176
13653292073
13653299275
13653304402
13653309407
13653314412
13653322042
13653326741
13653332173
13653337789
13653344258
13653350728
13653355733
13653361165
13653366841
13653371785
13653377034
13653382344
13653390523
13653396016
13653401570
13653406087
13653411519
13653417683
13653421162
13653428181
13653434590
13653441182
13653444722
13653451436
13653456746
13653462361
13653468465
13653473286
13653481465
13653486775
13653492268
13653498799
13653503926
13653509358
13653515706
13653520833
13653527302
13653533101
13653538777
13653544880
13653550496
13653555928
13653561665
13653565876
13653573201
13653580525
13653587544
13653595173
13653603535
13653611347
13653618061
13653625630
13653631428
13653642475
13653650044
13653657551
13653664814
13653673298
13653680683
13653687397
13653694904
13653705341
13653715473
13653720783
13653730610
13653736591
13653744282
13653752704
13653761249
13653768452
13653776020
13653784382
13653792255
13653800007
13653807453
13653811481
13653819599
13653826679
13653835895
13653843525
13653853839
13653859821
13653866535
13653875568
13653883808
13653890766
13653897418
13653907489
13653916950
13653924030
13653931598
13653938922
13653946124
13653953998
13653961627
13653970294
13653978839
13653987018
13653995807
13654003253
13654010089
13654017535
13654025165
13654036395
13654043964
13654049579
13654058490
13654066608
13654070636
13654080523
13654086383
13654098285
13654104449
13654112384
13654118304
13654126605
13654133380
13654141986
13654148883
13654155963
13654166583
13654172869
13654180926
13654187579
13654197222
13654203143
13654211077
13654218218
13654228289
13654235797
13654241839
13654250628
13654258135
13654265521
13654272967
13654279192
13654288409
13654295123
13654305071
13654311297
13654318255
13654327105
13654334307
13654341692
13654348284
