13578170684
13578176116
13578181731
13578188384
13578193999
13578199614
13578204741
13578210967
13578216338
13578222136
13578227751
13578234526
13578240752
13578246123
13578251189
13578258025
13578265227
13578271636
13578276457
13578284880
13578290617
13578296782
13578301970
13578309355
13578314726
13578322478
13578328764
13578334624
13578341093
13578347746
13578355742
13578361967
13578368681
13578375029
13578382719
13578390227
13578396696
13578403898
13578410673
13578417509
13578425383
13578432646
13578439665
13578445951
13578453032
13578462309
13578471220
13578477995
13578482695
13578489592
13578495390
13578501005
13578508024
13578512785
13578519499
13578524442
13578531523
13578537565
13578543607
13578549711
13578556120
13578561430
13578567472
13578573209
13578578275
13578584989
13578591581
13578597562
13578605558
13578610258
13578616300
13578622831
13578629056
13578634367
13578641691
13578649503
13578655485
13578661710
13578667753
13578673612
13578680692
13578687589
13578693143
13578700712
13578706571
13578713590
13578719999
13578726529
13578732755
13578737638
13578745389
13578750943
13578757474
13578763211
13578772184
13578778409
13578788419
13578795438
13578802335
13578811978
13578817349
13578825040
13578832669
13578838529
13578846463
13578853909
13578860196
13578868009
13578875638
13578881558
13578886990
13578893277
13578901822
13578908475
13578915738
13578922086
13578929044
13578936001
13578942532
13578949307
13578956570
13578963406
13578969876
13578976834
13578983731
13578991116
13578997708
13579005215
13579011258
13579016140
13579023831
13579030667
13579036221
13579043118
13579049282
13579054959
13579062344
13579067715
13579074795
13579080227
13579087673
13579093167
13579099514
13579107937
13579114834
13579121426
13579128628
13579132534
13579140103
13579145535
13579153530
13579161770
13579168728
13579175625
13579182400
13579188442
13579195095
13579201077
13579207363
13579214565
13579219387
13579227016
13579233852
13579240383
13579246364
13579255520
13579261013
13579269375
13579274563
13579282070
13579287258
13579296047
13579301296
13579309597
13579315151
13579323879
13579329555
13579337001
13579344509
13579352504
13579358181
13579365993
13579373256
13579379970
13579387538
13579393764
13579401638
13579407497
13579415492
13579422206
13579431178
13579440334
13579444911
13579454494
13579461147
13579469692
13579475734
13579484340
13579491542
13579499171
13579503810
13579513454
13579519618
13579528163
13579535243
13579541225
13579547206
13579555690
13579562037
13579569423
13579575648
13579584498
13579590480
13579598231
13579604030
13579612391
13579618373
13579625026
13579631434
13579640773
13579647303
13579654750
13579661402
13579669764
13579676173
13579684291
13579690821
13579700343
13579706568
13579715418
13579724452
13579729395
13579734583
13579740687
13579746913
13579752162
13579756983
13579760584
13579767848
13579772181
13579778956
13579784327
13579789759
13579795252
13579801051
13579805628
13579811732
13579816737
13579823695
13579829493
13579831690
13579840296
13579846094
13579850977
13579856714
13579862269
13579866663
13579872523
13579879542
13579886133
13579891260
13579896082
13579901087
13579906641
13579912928
13579918177
13579924280
13579929773
13579934778
13579940577
13579945215
13579950586
13579957178
13579962305
13579967371
13579972071
13579978113
13579983057
13579990137
13579994654
13579999842
13580006433
13580011804
13580017603
13580022913
13580028162
13580034204
13580040064
13580044214
13580051721
13580055994
13580062524
13580067529
13580072961
13580077600
13580085779
13580092554
13580100122
13580107263
13580113184
13580120203
13580126062
13580131311
13580135828
13580145227
13580151452
13580158533
13580165246
13580171533
13580177881
13580183618
13580188257
13580193567
13580199670
13580203821
13580210046
13580216211
13580221277
13580225793
13580230005
13580236291
13580241113
13580246667
13580252893
13580259179
13580263879
13580271264
13580276269
13580281640
13580287316
13580292749
13580298974
13580305139
13580312646
13580318383
13580325280
13580331811
13580337731
13580342004
13580347924
13580352258
13580359155
13580364037
13580370324
13580374963
13580380395
13580386254
13580391564
13580398156
13580403466
13580407738
13580413598
13580419335
13580424645
13580430932
13580437035
13580441430
13580447411
13580453087
13580465172
13580471276
13580476342
13580482567
13580486413
13580493554
13580498009
13580504235
13580508873
13580515709
13580519066
13580526757
13580530480
13580537255
13580541344
13580546959
13580553002
13580557579
13580562584
13580569725
13580574364
13580580468
13580585717
13580593102
13580597801
13580607079
13580613365
13580622093
13580628563
13580635826
13580645470
13580655052
13580663414
13580671349
13580678795
13580686363
13580693809
13580700157
13580710106
13580717003
13580725731
13580734337
13580742515
13580750084
13580761131
13580767662
13580776390
13580782921
13580790916
13580800377
13580808006
13580819420
13580827049
13580835350
13580843101
13580851158
13580857566
13580866966
13580873374
13580882225
13580888450
13580897850
13580904502
13580910606
13580920677
13580925681
13580935020
13580942344
13580950706
13580957847
13580965354
13580974326
13580982871
13580990379
13580997947
13581004295
13581013633
13581020530
13581025413
13581036216
13581045066
13581052695
13581060386
13581070212
13581075156
13581085654
13581092856
13581100119
13581106406
13581115134
13581123496
13581132590
13581138999
13581147849
13581157492
13581164450
13581173728
13581183005
13581189475
13581198996
13581207846
13581213095
13581222861
13581230673
13581239157
13581246237
13581254477
13581264121
13581271994
13581278220
13581287436
13581294394
13581301718
13581310019
13581316244
13581325644
13581330649
13581340842
13581349142
13581357138
13581364096
13581371481
13581378134
13581387289
13581395712
13581405111
13581411276
13581420370
13581426657
13581435751
13581442404
13581451071
13581459494
13581464559
13581474264
13581482931
13581491049
13581498190
13581504843
13581511556
13581521322
13581527975
13581537191
13581544088
13581549886
13581560934
13581563741
13581576315
13581584982
13581593282
13581601705
13581613424
13581621236
13581628377
13581636251
13581645284
13581652364
13581661641
13581668599
13581679220
13581688680
13581696920
13581703389
13581712423
13581720662
13581726155
13581734334
13581743306
13581749105
13581755574
13581764974
13581769612
13581779683
13581786458
13581792439
13581800984
13581808003
13581816243
13581822896
13581829060
13581838033
13581843892
13581852254
13581860005
13581867268
13581875020
13581882344
13581888203
13581896260
13581904500
13581910054
13581919148
13581927266
13581935567
13581940510
13581950459
13581957539
13581966267
13581973347
13581980549
13581989766
13581996052
13582004292
13582011799
13582020466
13582027241
13582037251
13582042378
13582052937
13582057942
13582067707
13582076435
13582083760
13582090901
13582096638
13582102192
13582106953
13582111897
13582119038
13582123921
13582131062
13582135700
13582139240
13582146565
13582149983
13582157856
13582163837
13582170856
13582176350
13582182209
13582187824
13582192768
13582197468
13582203999
13582209186
13582216511
13582221210
13582227619
13582232624
13582236286
13582244098
13582247761
13582254047
13582259418
13582266010
13582269794
13582276813
13582282306
13582288349
13582293415
13582298481
13582305133
13582310321
13582315632
13582317890
13582329120
13582334491
13582340656
13582344562
13582352314
13582361957
13582367328
13582371540
13582380268
13582384479
13582393390
13582397602
13582404071
13582409015
13582414935
13582420612
13582426471
13582429950
13582437030
13582440448
13582446246
13582451495
13582459064
13582463702
13582469074
13582475482
13582480365
13582487140
13582492389
13582498737
13582502277
13582509723
13582513873
13582521564
13582526446
13582532245
13582538165
13582543536
13582548358
13582554034
13582558917
13582565204
13582571307
13582575641
13582582049
13582585650
13582593402
13582598712
13582604449
13582609515
13582615313
13582621234
13582627948
13582632525
13582638873
13582644305
13582650164
13582655963
13582660723
13582665911
13582672625
13582677142
13582688616
13582696063
13582699603
13582706683
13582712176
13582716631
13582722064
13582727435
13582733538
13582738665
13582743914
13582750079
13582755022
13582760699
13582766436
13582772295
13582778216
13582783526
13582788287
13582792315
13582801287
13582805071
13582812517
13582818499
13582823687
13582831011
13582836504
13582841509
13582847491
13582853899
13582857683
13582864947
13582870012
13582876787
13582883745
13582889605
13582895891
13582901262
13582906755
13582911943
13582918291
13582922197
13582929949
13582936235
13582944292
13582949053
13582956987
13582961748
13582967974
13582973833
13582979448
13582984758
13582993059
13583003008
13583016435
13583020830
13583032121
13583036699
13583046098
13583053423
13583061113
13583068071
13583075761
13583082048
13583091264
13583098405
13583105241
13583112566
13583120317
13583130144
13583136918
13583143510
13583152055
13583160417
13583167375
13583175981
13583184709
13583191362
13583199540
13583207841
13583212907
13583221818
13583229509
13583237809
13583245134
13583253190
13583261918
13583269975
13583277177
13583286088
13583293107
13583302201
13583310746
13583321610
13583328263
13583337052
13583342179
13583353288
13583363114
13583369218
13583376908
13583385880
13583393143
13583400223
13583409196
13583417130
13583423661
13583432755
13583438981
13583447037
13583455765
13583464188
13583472611
13583480240
13583487198
13583495865
13583502274
13583509293
13583518021
13583526505
13583536270
13583542801
13583550492
13583557572
13583565750
13583571610
13583581803
13583591141
13583599564
13583606644
13583614395
13583621048
13583628616
13583637039
13583643387
13583649796
13583659317
13583665237
13583674576
13583680557
13583689896
13583696121
13583704605
13583711197
13583719437
13583727554
13583734146
13583742325
13583750015
13583758621
13583764236
13583775345
13583782974
13583791458
13583797561
13583806839
13583811660
13583821304
13583829788
13583835403
13583843765
13583849136
13583855239
13583864151
13583871475
13583879470
13583883743
13583892654
13583899856
13583908584
13583912979
13583926894
13583933730
13583947891
13583957961
13583968398
13583979324
13583991164
13584003310
13584013686
13584027663
13584039382
13584048842
13584058364
13584067702
13584076613
13584086135
13584096511
13584107924
13584118056
13584129470
13584140273
13584151992
13584164138
13584174575
13584185561
13584195632
13584204299
13584214186
13584224074
13584231947
13584241286
13584250197
13584259169
13584268752
13584278212
13584287184
13584296278
13584304823
13584313978
13584323256
13584332777
13584341749
13584350111
13584358717
13584369215
13584376906
13584387159
13584396071
13584404127
13584414442
13584422255
13584433180
13584442457
13584451551
13584460707
13584469923
13584477979
13584487867
13584498365
13584507765
13584515211
13584524610
13584534498
13584543958
13584551344
13584557691
13584566846
13584573865
13584582532
13584589307
13584599988
13584613599
13584621046
13584628065
13584635084
13584648206
13584658155
13584665296
13584679334
13584688733
13584693311
13584703260
13584708081
13584717847
13584726270
13584733106
13584738050
13584747205
13584755994
13584763623
13584772046
13584782727
13584789929
13584796460
13584804212
13584810376
13584819409
13584828381
13584836316
13584844128
13584852246
13584859570
13584867871
13584875317
13584883191
13584891553
13584899792
13584906872
13584914746
13584922681
13584928723
13584935864
13584945386
13584951428
13584960156
13584967724
13584976208
13584981945
13584990735
13584999463
13585005993
13585014416
13585021252
13585029675
13585036999
13585043408
13585052197
13585058605
13585066235
13585073681
13585083019
13585090100
13585098339
13585103222
13585114391
13585122570
13585130444
13585139538
13585145458
13585157299
13585165478
13585172680
13585179211
13585187939
13585195324
13585206066
13585214489
13585220653
13585229320
13585238903
13585246288
13585254650
13585261974
13585268627
13585278637
13585283703
13585288829
13585293285
13585299327
13585304454
13585309642
13585312633
13585319164
13585322765
13585329235
13585332103
13585338085
13585339916
13585348522
13585351879
13585360179
13585364330
13585369213
13585374156
13585379955
13585387035
13585390575
13585395213
13585399852
13585404491
13585408031
13585412792
13585418590
13585422923
13585426341
13585431651
13585435313
13585440501
13585445567
13585449657
13585456004
13585460155
13585464061
13585473338
13585478648
13585483470
13585488292
13585492503
13585497874
13585504405
13585510936
13585516551
13585523204
13585528819
13585536693
13585540782
13585549083
13585555919
13585562632
13585569590
13585577281
13585589000
13585596507
13585604075
13585610545
13585615306
13585621104
13585628916
13585634471
13585641917
13585645945
13585657176
13585662913
13585670420
13585674998
13585684336
13585691783
13585699046
13585705760
13585712840
13585718821
13585725718
13585732249
13585737254
13585744578
13585752024
13585758372
13585765513
13585771738
13585778452
13585783701
13585790842
13585795054
13585803293
13585807627
13585816599
13585821055
13585830332
13585835825
13585845225
13585852427
13585859385
13585869333
13585876963
13585885263
13585893198
13585898752
13585909983
13585917978
13585928110
13585932077
13585945139
13585950693
13585963693
13585969309
13585981027
13585988779
13585999826
13586005869
13586016184
13586024545
13586032236
13586039926
13586047006
13586053842
13586059640
13586068735
13586074106
13586080759
13586087595
13586095102
13586102548
13586112009
13586120248
13586126596
13586135080
13586141672
13586147104
13586155099
13586159433
13586168771
13586173654
13586183725
13586188668
13586198251
13586206308
13586213021
13586217782
13586229379
13586235543
13586245126
13586251290
13586260018
13586265206
13586275460
13586280221
13586289254
13586294564
13586305123
13586309640
13586321053
13586326852
13586335580
13586339974
13586348031
13586356881
13586363229
13586370858
13586378304
13586385689
13586392647
13586400155
13586408333
13586417733
13586423836
13586431588
13586439217
13586443795
13586453438
13586462044
13586470101
13586478524
13586484261
13586492257
13586500252
13586506050
13586513558
13586520882
13586528450
13586536141
13586544441
13586553047
13586563606
13586570320
13586579415
13586586128
13586595711
13586603584
13586611214
13586617683
13586626778
13586634407
13586643379
13586650276
13586658821
13586665779
13586673897
13586680855
13586694588
13586703316
13586712532
13586719795
13586725899
13586735481
13586743294
13586750984
13586760750
13586768257
13586777107
13586784126
13586792427
13586801399
13586808235
13586814338
13586822883
13586831001
13586837348
13586845527
13586851387
13586860115
13586867988
13586874214
13586879463
13586884773
13586890449
13586894782
13586898628
13586906318
13586910102
13586917121
13586920783
13586928840
13586932380
13586939277
13586944404
13586950080
13586955451
13586961188
13586965522
13586972114
13586978828
13586984077
13586988471
13586994147
13586999030
13587005561
13587011664
13587015693
13587022895
13587026313
13587033576
13587037055
13587044074
13587049018
13587056159
13587062018
13587066535
13587071418
13587078132
13587084174
13587088630
13587095038
13587100531
13587106757
13587113532
13587118170
13587125128
13587129767
13587135627
13587142279
13587148810
13587154242
13587159430
13587165656
13587170294
13587176764
13587182135
13587189337
13587194220
13587199347
13587207953
13587211554
13587220160
13587223822
13587231024
13587236151
13587242560
13587247748
13587254156
13587260504
13587266974
13587271551
13587275336
13587283453
13587287115
13587295233
13587302374
13587307684
13587313482
13587320074
13587324774
13587332098
13587336859
13587343329
13587350897
13587360418
13587365240
13587371893
13587377264
13587382330
13587389532
13587395147
13587400702
13587407598
13587413519
13587420111
13587425787
13587431280
13587435858
13587440740
13587445745
13587452276
13587456610
13587461737
13587466314
13587472662
13587477423
13587482366
13587487615
13587494879
13587499517
13587505560
13587509954
13587515875
13587522222
13587527227
13587533208
13587537725
13587543279
13587549322
13587555242
13587558599
13587565557
13587568914
13587574956
13587579839
13587586187
13587592290
13587596807
13587602422
13587608770
13587613592
13587618719
13587624639
13587630681
13587636907
13587640081
13587648076
13587651433
13587658574
13587662175
13587669194
13587675603
13587680974
13587687383
13587692571
13587698735
13587703008
13587707952
13587714727
13587719365
13587723699
13587730596
13587737126
13587741643
13587745854
13587757390
13587762334
13587773320
13587778325
13587788945
13587796758
13587803960
13587811467
13587818852
13587827763
13587836064
13587845036
13587852605
13587859257
13587866826
13587875432
13587882451
13587889287
13587899174
13587909306
13587916264
13587922978
13587936589
13587944584
13587953862
13587960759
13587971623
13587978520
13587987736
13587995060
13588000492
13588014897
13588023442
13588032780
13588041874
13588048222
13588053959
13588067814
13588078190
13588087589
13588090946
13588104130
13588113346
13588123051
13588129826
13588138187
13588143131
13588152836
13588159855
13588168705
13588175785
13588185184
13588193363
13588203617
13588208439
13588220218
13588226017
13588236698
13588244571
13588252933
13588262272
13588269901
13588276798
13588284732
13588291141
13588300235
13588308902
13588315433
13588323917
13588332462
13588339359
13588348636
13588354923
13588363040
13588371707
13588376834
13588387332
13588394901
13588404056
13588411258
13588419070
13588425967
13588435062
13588441959
13588450687
13588460513
13588468753
13588474612
13588482242
13588488589
13588495730
13588503421
13588510623
13588517093
13588526858
13588535342
13588542056
13588549746
13588555850
13588563357
13588567874
13588577884
13588586428
13588592654
13588599734
13588608950
13588616275
13588623294
13588630130
13588638735
13588647097
13588655947
13588663333
13588672061
13588678408
13588685916
13588691897
13588700198
13588706606
13588716372
13588722720
13588730593
13588738650
13588745913
13588751894
13588760805
13588769594
13588778322
13588784731
13588793581
13588800051
13588808840
13588814699
13588822329
13588833620
13588844545
13588851870
13588859255
13588868837
13588880617
13588887514
13588897890
13588907350
13588914980
13588923220
13588931520
13588937624
13588945375
13588951540
13588962099
13588968569
13588976991
13588983034
13588989198
13588998781
13589006593
13589011964
13589020021
13589027406
13589032472
13589040041
13589047304
13589054994
13589059633
13589070253
13589080018
13589085939
13589093446
13589099183
13589107911
13589115419
13589122255
13589129579
13589137513
13589143617
13589152589
13589158571
13589164003
13589173158
13589178407
13589184694
13589189454
13589195741
13589200685
13589205262
13589210145
13589216310
13589220643
13589226930
13589232667
13589238038
13589244203
13589250306
13589255006
13589261842
13589265870
13589272401
13589278260
13589285096
13589289735
13589294923
13589300782
13589305848
13589310609
13589317628
13589322572
13589328370
13589335145
13589339722
13589346436
13589351746
13589358155
13589363648
13589369813
13589374451
13589380738
13589386475
13589392457
13589397584
13589404664
13589410340
13589415467
13589422120
13589428345
13589434144
13589439515
13589445923
13589451539
13589456604
13589461914
13589467408
13589473938
13589479126
13589485474
13589491028
13589513001
13589518006
13589523804
13589533509
13589540772
13589546814
13589554444
13589558899
13589566345
13589572022
13589576538
13589582825
13589587219
13589592529
13589598084
13589603638
13589608337
13589614685
13589618835
13589625610
13589629517
13589635254
13589640503
13589645569
13589650146
13589656433
13589660461
13589663940
13589672302
13589675598
13589682983
13589686767
13589693847
13589701172
13589707214
13589712341
13589719055
13589723938
13589728943
13589735656
13589740967
13589745666
13589750305
13589756591
13589761596
13589767395
13589771423
13589778015
13589783813
13589789184
13589794311
13589798950
13589805969
13589814392
13589819152
13589824829
13589829101
13589836303
13589841430
13589848083
13589854370
13589858581
13589865417
13589871215
13589876098
13589879760
13589887451
13589897155
13589903137
13589908630
13589913573
13589919006
13589924316
13589928710
13589935058
13589940673
13589947387
13589953124
13589957641
13589964172
13589968993
13589974853
13589980285
13589985717
13589990722
13589997436
13590001098
13590007201
13590013244
13590018249
13590022582
13590028991
13590033446
13590043883
13590050292
13590058593
13590067077
13590073058
13590080626
13590087706
13590098265
13590103942
13590114135
13590121764
13590131102
13590138121
13590147093
13590156859
13590167601
13590173338
13590184081
13590191893
13590202147
13590210020
13590217467
13590226988
13590233214
13590242796
13590249876
13590256651
13590266051
13590272398
13590281370
13590287779
13590296141
13590305174
13590310179
13590320067
13590327696
13590336485
13590343565
13590352171
13590359739
13590367064
13590373716
13590383604
13590390318
13590398436
13590406797
13590412962
13590423338
13590428160
13590438230
13590446958
13590454222
13590461363
13590469602
13590475828
13590483762
13590493589
13590502317
13590509275
13590519407
13590525816
13590531980
13590541990
13590546873
13590559019
13590568540
13590577085
13590585020
13590591916
13590600400
13590606809
13590614072
13590622312
13590628476
13590638547
13590646299
13590654050
13590660764
13590669004
13590678830
13590687436
13590693662
13590698667
13590709531
13590718625
13590725156
13590732358
13590740842
13590747922
13590756223
13590762753
13590771420
13590778012
13590786740
13590795407
13590802548
13590808713
13590817441
13590824033
13590831357
13590839658
13590847653
13590857419
13590864987
13590872128
13590878476
13590886105
13590894528
13590903256
13590910153
13590920346
13590927365
13590935727
13590942379
13590947995
13590960934
13590970211
13590976864
13590984555
13590994137
13591001767
13591011959
13591019955
13591026608
13591036068
13591045590
13591054074
13591062191
13591068600
13591077694
13591086788
13591094479
13591100704
13591109798
13591116573
13591124935
13591131344
13591138973
13591147640
13591154598
13591162228
13591171932
13591179500
13591185909
13591193416
13591202328
13591208736
13591217708
13591222591
13591232601
13591240474
13591247860
13591254696
13591265499
13591273677
13591280696
13591287777
13591296199
13591302547
13591311275
13591317806
13591326839
13591335445
13591343929
13591350215
13591355342
13591365962
13591371517
13591380489
13591387691
13591397029
13591404598
13591411861
13591418269
13591426265
13591435237
13591443599
13591450008
13591458552
13591467647
13591472590
13591482356
13591489314
13591497188
13591504085
13591512996
13591519587
13591525996
13591530452
13591536921
13591542720
13591547236
13591552852
13591556514
13591563899
13591567927
13591575190
13591580867
13591586177
13591590876
13591596614
13591601680
13591606990
13591611506
13591617671
13591623469
13591627619
13591634028
13591639643
13591644465
13591649775
13591656306
13591664729
13591670222
13591675593
13591682246
13591687129
13591692378
13591698786
13591704157
13591710871
13591715388
13591724726
13591731806
13591737666
13591741267
13591747614
13591755122
13591762202
13591769037
13591775629
13591782282
13591787592
13591794428
13591799250
13591804682
13591808771
13591815912
13591820551
13591823664
13591830744
13591835199
13591841486
13591846369
13591852350
13591855829
13591861994
13591866449
13591871759
13591877619
13591882624
13591887018
13591893671
13591898615
13591905390
13591909662
13591916010
13591920587
13591926203
13591930841
13591936029
13591941644
13591949518
13591954523
13591960626
13591966058
13591971124
13591977045
13591981683
13591986749
13591992609
13591998041
13592004022
13592007562
13592014032
13592017755
13592024774
13592029657
13592034967
13592041986
13592047540
13592051996
13592058160
13592064081
13592070001
13592074212
13592080682
13592084955
13592089044
13592096124
13592102167
13592107171
13592111993
13592117669
13592123163
13592128290
13592132989
13592138849
13592144586
13592150689
13592155389
13592161370
13592166986
13592170465
13592176751
13592183343
13592190118
13592193658
13592200311
13592206475
13592211968
13592216302
13592222100
13592227227
13592235650
13592241998
13592246453
13592252374
13592255670
13592263543
13592267266
13592274041
13592278375
13592286981
13592293572
13592299310
13592305108
13592311761
13592318841
13592326531
13592330987
13592337640
13592344109
13592348626
13592355157
13592358452
13592366753
13592371148
13592379204
13592386040
13592390679
13592398675
13592404473
13592410821
13592419671
13592427483
13592435662
13592442437
13592449517
13592457634
13592463799
13592472466
13592480217
13592485894
13592493706
13592501885
13592508171
13592514031
13592521782
13592529412
13592535820
13592544426
13592550835
13592560417
13592565422
13592574944
13592582634
13592590263
13592597405
13592606804
13592614128
13592622063
13592628532
13592637993
13592644707
13592650688
13592660515
13592665520
13592676140
13592681633
13592691948
13592699394
13592707756
13592714775
13592723198
13592729362
13592738212
13592744804
13592754387
13592760734
13592767021
13592776847
13592781791
13592792167
13592797172
13592807304
13592814750
13592823844
13592832145
13592840019
13592846366
13592854423
13592863395
13592870963
13592879264
13592886771
13592893668
13592901786
13592908805
13592916557
13592926444
13592933402
13592941337
13592948417
13592957633
13592964103
13592972281
13592981132
13592987662
13592996268
13593004691
13593010978
13593018912
13593026969
13593034720
13593042960
13593049918
13593057669
13593064505
13593074271
13593080619
13593089652
13593098319
13593111869
13593120169
13593128470
13593136160
13593144034
13593154471
13593166190
13593175101
13593184500
13593187674
13593199698
13593209219
13593216177
13593224661
13593231680
13593239737
13593249747
13593256766
13593264090
13593273489
13593280264
13593286612
13593295706
13593302542
13593311087
13593319876
13593327871
13593334341
13593339468
13593350515
13593358511
13593365347
13593372915
13593381582
13593388540
13593395925
13593402578
13593411550
13593419973
13593427419
13593433889
13593442373
13593452688
13593462698
13593469717
13593479910
13593486135
13593494253
13593501760
13593509512
13593521474
13593528738
13593536977
13593545034
13593553945
13593561147
13593568838
13593578603
13593586904
13593593435
13593603750
13593611806
13593622182
13593629934
13593638723
13593645253
13593654348
13593660878
13593669057
13593677419
13593682607
13593691518
13593699208
13593707631
13593717824
13593723866
13593733205
13593739614
13593747670
13593755788
13593762502
13593771291
13593778249
13593787404
13593794057
13593802541
13593808888
13593815968
13593825551
13593832997
13593840565
13593847157
13593855946
13593862660
13593868886
13593874684
13593879750
13593885792
13593889943
13593896779
13593904469
13593908864
13593913685
13593919728
13593925404
13593932240
13593940724
13593946278
13593950306
13593957386
13593963551
13593971485
13593974476
13593982350
13593989369
13593994190
13594002186
13594006825
13594013172
13594017140
13594020863
13594026295
13594031056
13594036549
13594042652
13594046681
13594052235
13594056812
13594059742
13594066700
13594072193
13594077808
13594081043
13594087635
13594092701
13594097401
13594102283
13594108814
13594113514
13594119007
13594124744
13594130726
13594134876
13594140736
13594147144
13594152454
13594156849
13594160206
13594168262
13594175953
13594180164
13594184986
13594191211
13594197193
13594203174
13594208362
13594213001
13594217823
13594224170
13594230213
13594232288
13594240467
13594244007
13594251941
13594255298
13594261463
13594267627
13594273609
13594279895
13594285755
13594290699
13594297534
13594301685
13594308521
13594313404
13594320667
13594325122
13594331592
13594336292
13594341174
13594347766
13594351734
13594358386
13594363696
13594369067
13594374072
13594379871
13594385669
13594390308
13594396594
13594402209
13594406604
13594412707
13594417041
13594421863
13594428332
13594433765
13594440295
13594445544
13594452136
13594457202
13594462512
13594469348
13594473742
13594480456
13594484668
13594492419
13594497790
13594503344
13594508838
13594518054
13594524890
13594532275
13594536853
13594542346
13594548938
13594556323
13594561389
13594567919
13594574328
13594576525
13594588183
13594594165
13594598620
13594604602
13594611071
13594616442
13594621081
13594626147
13594631823
13594637866
13594641894
13594647265
13594652331
13594658923
13594662951
13594670031
13594674792
13594680163
13594685839
13594687792
13594696459
13594700549
13594708910
13594713122
13594720995
13594725207
13594735705
13594743456
13594750292
13594758349
13594767382
13594774401
13594780687
13594789599
13594796373
13594805346
13594812914
13594821947
13594824450
13594836351
13594840868
13594849840
13594857531
13594863817
13594870348
13594880724
13594889208
13594896349
13594903856
13594911913
13594919176
13594926744
13594933458
13594943407
13594949815
13594956896
13594965868
13594971727
13594980028
13594984972
13594996446
13595004259
13595010667
13595018480
13595028062
13595034959
13595042772
13595049119
13595057603
13595064561
13595072862
13595081346
13595087571
13595096727
13595101793
13595112657
13595120042
13595128587
13595135545
13595145494
13595152940
13595162522
13595174119
13595181626
13595188340
13595197434
13595204331
13595213548
13595220750
13595229173
13595236009
13595244615
13595252366
13595262864
13595271043
13595279771
13595290269
13595298203
13595306016
13595315537
13595323045
13595334458
13595346909
13595353562
13595359849
13595370896
13595378892
13595387192
13595393906
13595402451
13595407456
13595418076
13595423508
13595433701
13595440659
13595449265
13595457077
13595465195
13595471543
13595479355
13595488693
13595497177
13595503525
13595512253
13595518723
13595523667
13595534043
13595541367
13595550461
13595558151
13595566879
13595574631
13595581589
13595590744
13595597397
13595606308
13595612717
13595621262
13595629867
13595636764
13595644943
13595652206
13595660263
13595668503
13595678024
13595686447
13595694442
13595704330
13595712143
13595718795
13595727707
13595733993
13595742599
13595750717
13595759079
13595766403
13595775497
13595780319
13595790756
13595795883
13595805099
13595812057
13595820053
13595829574
13595835800
13595842330
13595853011
13595859420
13595866439
13595875350
13595880538
13595890792
13595895919
13595906600
13595913802
13595921676
13595928756
13595937667
13595944076
13595951278
13595959640
13595968673
13595974959
13595983077
13595989974
13595999251
13596005599
13596013533
13596021407
13596028670
13596037520
13596044478
13596052901
13596059310
13596068038
13596074324
13596083296
13596091841
13596100020
13596107588
13596121199
13596128279
13596136885
13596143477
13596154646
13596164595
13596176192
13596181441
13596192671
13596195906
13596206160
13596209273
13596217024
13596221663
13596230086
13596233504
13596240462
13596246565
13596251265
13596256697
13596261946
13596268904
13596273665
13596278120
13596283308
13596287581
13596294966
13596299238
13596304731
13596310957
13596313520
13596322493
13596328596
13596333174
13596336531
13596344404
13596348005
13596355024
13596361677
13596367292
13596372053
13596377790
13596382551
13596387678
13596393354
13596397810
13596404341
13596410078
13596414350
13596420271
13596424848
13596429914
13596436811
13596441694
13596446516
13596451399
13596458906
13596464155
13596469892
13596474897
13596478498
13596487043
13596491010
13596497602
13596503828
13596510480
13596515302
13596521528
13596528059
13596533735
13596540510
13596545942
13596550947
13596556623
13596565595
13596572309
13596576764
13596581586
13596587018
13596591901
13596598493
13596604291
13596611799
13596616193
13596622907
13596627851
13596632367
13596639936
13596643598
13596650006
13596655927
13596662702
13596667951
13596674359
13596679608
13596686261
13596690900
13596697064
13596701764
13596710187
13596714826
13596720563
13596727460
13596732831
13596740033
13596746259
13596753034
13596758771
13596763837
13596771100
13596776532
13596781598
13596788007
13596793378
13596800946
13596807965
13596813458
13596819440
13596824506
13596829083
13596835065
13596840375
13596843548
13596849713
13596855450
13596860760
13596863995
13596870892
13596874188
13596880841
13596885296
13596891095
13596896466
13596901715
13596905865
13596912152
13596917523
13596922772
13596928814
13596933148
13596939618
13596945233
13596949688
13596956768
13596961712
13596967633
13596973370
13596977337
13596986492
13596993145
13596999432
13597004132
13597009564
13597014202
13597020001
13597024639
13597030987
13597037640
13597043133
13597048870
13597052960
13597059918
13597063213
13597070354
13597077740
13597084881
13597094402
13597100689
13597109661
13597115765
13597124004
13597130596
13597139446
13597145428
13597155559
13597160686
13597171123
13597176189
13597185405
13597192302
13597200542
13597207439
13597217022
13597223430
13597231487
13597240459
13597247600
13597256023
13597262065
13597270610
13597278667
13597288188
13597296489
13597303996
13597310527
13597320049
13597326640
13597334880
13597344157
13597347209
13597360698
13597366313
13597376323
13597384196
13597393291
13597401103
13597410319
13597417155
13597427836
13597435283
13597444743
13597455241
13597464091
13597474040
13597481181
13597489482
13597498637
13597505595
13597511332
13597523845
13597532450
13597539531
13597547526
13597556864
13597566142
13597573527
13597580546
13597588664
13597597453
13597605082
13597611491
13597620524
13597628764
13597634440
13597644511
13597650919
13597659831
13597667399
13597675272
13597684489
13597691386
13597701273
13597709391
13597715861
13597723368
13597731730
13597739725
13597747965
13597754069
13597762674
13597767740
13597777872
13597786600
13597798197
13597805277
13597813334
13597822611
13597830545
13597836710
13597843851
13597852518
13597858805
13597868509
13597873636
13597883768
13597888834
13597898905
13597905985
13597913370
13597923502
13597929727
13597939005
13597945963
13597952310
13597961588
13597968118
13597977457
13597984048
13597991861
13597999307
13598006448
13598015848
13598023416
13598030679
13598036966
13598045694
13598054849
13598063333
13598071878
13598078103
13598086343
13598091470
13598102700
13598107766
13598117410
13598125894
13598136087
13598143228
13598151223
13598157693
13598167642
13598173928
13598183145
13598189492
13598198586
13598204873
13598209695
13598221230
13598226296
13598236672
13598244668
13598252663
13598260781
13598266824
13598275918
13598282510
13598291360
13598298379
13598307839
13598321267
13598326760
13598336465
13598343667
13598356301
13598368996
13598376626
13598383889
13598393776
13598401223
13598410195
13598418679
13598424904
13598433876
13598442726
13598450356
13598458962
13598466164
13598472573
13598480751
13598490639
13598495583
13598505531
13598512856
13598520790
13598528420
13598536965
13598543251
13598551735
13598558144
13598567116
13598575783
13598582436
13598588539
13598592262
13598599647
13598603187
13598609779
13598614540
13598620155
13598626808
13598630958
13598638161
13598642982
13598647926
13598653541
13598659584
13598665687
13598669899
13598673256
13598680946
13598689186
13598698585
13598704078
13598711586
13598715919
13598721595
13598726905
13598732338
13598738868
13598745155
13598749549
13598755897
13598760353
13598766273
13598771949
13598776100
13598782447
13598789039
13598794105
13598799598
13598804054
13598809059
13598815711
13598820350
13598825782
13598831519
13598837806
13598842017
13598847022
13598853004
13598859168
13598863319
13598869117
13598874671
13598881507
13598888160
13598894324
13598899207
13598904578
13598911719
13598915076
13598920692
13598927589
13598932960
13598937354
13598943397
13598947791
13598954200
13598959571
13598965369
13598970191
13598974891
13598986304
13598992713
13598997657
13599002356
13599008765
13599016211
13599023597
13599030921
13599039283
13599047217
13599051367
13599056433
13599061621
13599067481
13599072058
13599076514
13599081275
13599086341
13599091101
13599096900
13599101599
13599107947
13599113135
13599117468
13599121192
13599126685
13599131506
13599137061
13599141638
13599147681
13599152625
13599157019
13599161841
13599166357
13599170996
13599176794
13599181128
13599189246
13599193945
13599197607
13599203955
13599212500
13599216772
13599221777
13599227514
13599232702
13599238379
13599243445
13599249609
13599254614
13599260351
13599264197
13599271399
13599279455
13599283239
13599288855
13599294592
13599300268
13599306433
13599311377
13599316565
13599322729
13599328772
13599333776
13599339636
13599344580
13599349829
13599354223
13599359960
13599366796
13599371313
13599377539
13599380895
13599386083
13599390844
13599395910
13599401037
13599410803
13599417455
13599424963
13599433019
13599443212
13599451269
13599460119
13599468114
13599479345
13599487524
13599496252
13599504919
13599511266
13599516271
13599527746
13599537328
13599544286
13599549169
13599559789
13599567785
13599575536
13599583837
13599592321
13599600377
13599610387
13599617223
13599627721
13599635472
13599643346
13599650304
13599659154
13599668920
13599680699
13599688024
13599696874
13599703710
13599712987
13599718114
13599728063
13599735753
13599744603
13599751927
13599759801
13599766759
13599777257
13599784215
13599793370
13599799901
13599809361
13599817357
13599819981
13599831517
13599837010
13599845616
13599850377
13599861119
13599871006
13599877598
13599886387
13599892308
13599898777
13599907383
13599914158
13599922825
13599933140
13599942417
13599949864
13599956761
13599967076
13599974766
13599981297
13599988621
13599997471
13600008518
13600016331
13600023594
13600030735
13600038792
13600045261
13600053013
13600060825
13600070774
13600077732
13600084446
13600093479
13600099216
13600107029
13600113621
13600119663
13600129551
13600135959
13600144626
13600152805
13600158359
13600166660
13600171299
13600181431
13600186802
13600197361
13600204197
13600210971
13600219272
13600226474
13600233554
13600241428
13600248081
13600258762
13600265720
13600272312
13600280918
13600287021
13600294711
13600301914
13600308750
13600317783
13600326267
13600332736
13600340366
13600345737
13600355075
13600359470
13600368381
13600380222
13600389682
13600397739
13600408908
13600418124
13600428195
13600439120
13600446567
13600457370
13600467624
13600476169
13600484286
13600496249
13600504123
13600513339
13600521395
13600530184
13600537631
13600546115
13600552584
13600560885
13600569186
13600578036
13600581637
13600593417
13600598788
13600609774
13600618014
13600624484
13600633212
13600639742
13600648531
13600654391
13600662630
13600670687
13600676607
13600684725
13600689547
13600698458
13600708651
13600715121
13600719820
13600730318
13600734774
13600743685
13600748629
13600759066
13600766329
13600774447
13600781771
13600789644
13600797335
13600803011
13600807711
13600816622
13600828463
13600835237
13600840425
13600846102
13600851717
13600856539
13600861544
13600869173
13600875215
13600881197
13600886873
13600891695
13600895052
13600901705
13600905184
13600912813
13600920931
13600926058
13600932100
13600937044
13600942476
13600947603
13600952119
13600958223
13600965730
13600971773
13600977022
13600982210
13600986482
13600992769
13600997468
13601004243
13601009309
13601015169
13601021516
13601026826
13601032075
13601037874
13601042390
13601048005
13601052949
13601060823
13601067354
13601073213
13601078157
13601083162
13601089143
13601095735
13601105378
13601111604
13601117891
13601123201
13601129792
13601135224
13601143159
13601149324
13601156159
13601163056
13601169099
13601174348
13601178620
13601184113
13601189790
13601194428
13601198945
13601203889
13601207673
13601212617
13601215974
13601223725
13601226533
13601234956
13601240632
13601246552
13601251557
13601256806
13601261750
13601266633
13601273286
13601277863
13601283234
13601289277
13601294160
13601300385
13601304597
13601308503
13601315095
13601318635
13601324860
13601329560
13601336701
13601340485
13601346345
13601352692
13601357636
13601361847
13601367829
13601373749
13601380280
13601385102
13601390290
13601394440
13601397797
13601406037
13601409394
13601415497
13601419159
13601425568
13601431000
13601436188
13601440766
13601445404
13601451874
13601456696
13601462067
13601467865
13601473725
13601478607
13601483490
13601487091
13601495392
13601501312
13601506317
13601512909
13601517059
13601520722
13601527313
13601532196
13601538361
13601543549
13601548676
13601554230
13601561981
13601566559
13601571686
13601576691
13601582672
13601587128
13601591095
13601598785
13601603546
13601610565
13601615753
13601623932
13601627960
13601634796
13601639801
13601644256
13601649688
13601657989
13601665924
13601672393
13601681244
13601691070
13601696563
13601710052
13601719757
13601729766
13601733062
13601746551
13601755462
13601763214
13601768585
13601778106
13601782928
13601793487
13601798492
13601809600
13601817107
13601825164
13601832549
13601840545
13601847381
13601856109
13601865264
13601873626
13601879912
13601885772
13601895415
13601900176
13601911956
13601917083
13601928252
13601933745
13601944060
13601951018
13601958648
13601966155
13601974456
13601981170
13601991729
13601998565
13602007048
13602014739
13602022734
13602028594
13602034453
13602045073
13602054045
13602062529
13602069243
13602076872
13602082366
13602091521
13602096221
13602105559
13602115202
13602122344
13602128874
13602137541
13602144072
13602150908
13602159697
13602167143
13602174895
13602183928
13602190703
13602196989
13602204741
13602211638
13602219816
13602226652
13602234892
13602243803
13602250456
13602257780
13602266081
13602271635
13602281157
13602289824
13602296049
13602304960
13602313688
13602318327
13602327909
13602335050
13602343290
13602349882
13602358000
13602364958
13602375578
13602382597
13602391203
13602397123
13602404630
13602412382
13602419218
13602427580
13602436369
13602442838
13602451505
13602457426
13602464994
13602472257
13602479459
13602491361
13602496854
13602509122
13602516569
13602525907
13602534513
13602543302
13602546415
13602559110
13602565824
13602577848
13602583768
13602594754
13602602018
13602609769
13602617520
13602626248
13602633267
13602641507
13602651578
13602659635
13602672086
13602679654
13602687100
13602695096
13602702603
13602712308
13602719510
13602728177
13602734525
13602742459
13602749234
13602758450
13602764981
13602774075
13602782437
13602788296
13602796170
13602800870
13602810879
13602815579
13602825039
13602833462
13602841153
13602847928
13602854947
13602861477
13602870205
13602876553
13602885525
13602892849
13602902615
13602909634
13602916531
13602922818
13602931546
13602937405
13602944912
13602953518
13602961880
13602970242
13602977688
13602984158
13602992092
13602999966
13603005459
13603014980
13603020474
13603030727
13603038418
13603044949
13603051846
13603059841
13603066372
13603075771
13603082851
13603090359
13603096584
13603106106
13603112026
13603119167
13603127224
13603131862
13603137905
13603144436
13603149196
13603152981
13603161281
13603165310
13603171291
13603174953
13603182399
13603187587
13603194851
13603198452
13603204555
13603209255
13603215602
13603220912
13603225307
13603230373
13603238246
13603243312
13603250087
13603256130
13603262782
13603266872
13603274318
13603280422
13603289272
13603296291
13603302699
13603308620
13603315395
13603321498
13603326625
13603332423
13603336879
13603343166
13603347499
13603354335
13603359218
13603364162
13603368800
13603374782
13603379726
13603386806
13603392238
13603397975
13603403163
13603408473
13603413417
13603419398
13603423793
13603430140
13603434718
13603440028
13603445460
13603449977
13603457118
13603462672
13603467677
13603471827
13603477870
13603487208
13603491542
13603497523
13603504420
13603510951
13603514308
13603522181
13603525538
13603533168
13603539088
13603548060
13603552516
13603562953
13603572779
13603580775
13603590357
13603599879
13603608790
13603615992
13603622645
13603633570
13603637110
13603644312
13603647669
13603654505
13603658472
13603666041
13603671839
13603676966
13603683008
13603691553
13603695887
13603703028
13603707117
13603713038
13603717737
13603724817
13603729822
13603736231
13603740809
13603747034
13603751185
13603757166
13603762476
13603769007
13603773218
13603778650
13603784876
13603790003
13603794641
13603799952
13603804895
13603811060
13603815515
13603822046
13603826441
13603832239
13603838098
13603845545
13603852259
13603858789
13603865686
13603871729
13603879968
13603885339
13603891748
13603898035
13603906213
13603912683
13603916834
13603922632
13603928491
13603933740
13603939355
13603945947
13603951257
13603956689
13603960962
13603967615
13603972497
13603979333
13603983728
13603992273
13604000757
13604008569
13604015405
13604023584
13604032251
13604037500
13604049585
13604058740
13604065027
13604069665
13604080774
13604085168
13604093896
13604100427
13604110070
13604115441
13604126367
13604133264
13604140466
13604146935
13604157311
13604162377
13604170251
13604180200
13604187524
13604194360
13604203027
13604209496
13604217614
13604224450
13604232140
13604238427
13604247094
13604253503
13604261376
13604269372
13604276269
13604283837
13604290612
13604298730
13604308800
13604315392
13604323327
13604329247
13604337426
13604343651
13604350487
13604358483
13604365990
13604373803
13604380272
13604389122
13604396141
13604403832
13604409752
13604417015
13604426781
13604436424
13604443505
13604449669
13604458885
13604464623
13604473656
13604481224
13604487755
13604499596
13604506554
13604515343
13604523460
13604530907
13604536644
13604543053
13604552269
13604560387
13604570640
13604576256
13604588585
13604598533
13604605919
13604614036
13604622947
13604630333
13604643089
13604651939
13604661949
13604671898
13604679527
13604687339
13604694786
13604704612
13604712242
13604721397
13604728721
13604736045
13604742515
13604751731
13604759910
13604767112
13604776206
13604784507
13604790733
13604800071
13604806297
13604814780
13604823325
13604832175
13604839439
13604845847
13604853477
13604860129
13604869590
13604878623
13604888083
13604896567
13604905845
13604912375
13604919700
13604926108
13604934165
13604943931
13604951255
13604961387
13604969931
13604976767
13604984397
13604990256
13604997824
13605006675
13605013449
13605019553
13605028952
13605035300
13605044455
13605050315
13605058249
13605065817
13605071738
13605080039
13605089682
13605098349
13605102988
13605113303
13605117941
13605127890
13605132834
13605142111
13605149313
13605156515
13605164816
13605172690
13605179526
13605186728
13605192526
13605199850
13605207907
13605217611
13605223837
13605232626
13605238546
13605247641
13605253500
13605261251
13605269125
13605277548
13605283957
13605291647
13605299948
13605307211
13605313742
13605320211
13605328085
13605335897
13605345114
13605352072
13605360067
13605366232
13605373739
13605382467
13605391927
13605402181
13605409994
13605415060
13605420187
13605426839
13605433248
13605438436
13605446615
13605454061
13605461324
13605465536
13605473592
13605476827
13605485189
13605489034
13605497823
13605501302
13605509603
13605515951
13605520528
13605525777
13605531209
13605536214
13605543233
13605547139
13605553121
13605559346
13605564901
13605570272
13605574971
13605581380
13605586385
13605592549
13605598775
13605603170
13605608113
13605613607
13605618733
13605623982
13605627156
13605633260
13605639424
13605643636
13605648580
13605655049
13605658223
13605664571
13605668965
13605674275
13605679341
13605685872
13605690755
13605697347
13605703267
13605709615
13605713399
13605719930
13605725545
13605732869
13605739461
13605745991
13605751607
13605758870
13605764851
13605769429
13605779622
13605789387
13605794880
13605803914
13605807149
13605817341
13605825032
13605833210
13605839802
13605842732
13605857624
13605861409
13605872456
13605879353
13605884785
13605893818
13605896809
13605906208
13605913471
13605919087
13605926838
13605938130
13605945332
13605950947
13605957539
13605965290
13605972675
13605982929
13605986286
13605997089
13606004292
13606012836
13606019550
13606028828
13606035908
13606043110
13606051899
13606058247
13606066547
13606072162
13606080097
13606089985
13606093159
13606103657
13606112140
13606119465
13606126850
13606133381
13606141437
13606151020
13606162006
13606171405
13606179523
13606184772
13606194843
13606203449
13606210041
13606218585
13606227252
13606233356
13606242511
13606245258
13606256732
13606263690
13606272174
13606277484
13606284869
13606292377
13606300433
13606307269
13606315570
13606322162
13606327838
13606337360
13606344989
13606351886
13606359393
13606366962
13606373859
13606379108
13606389300
13606397174
13606404254
13606410663
13606416034
13606424457
13606432818
13606438861
13606444842
13606458270
13606465777
13606473040
13606480914
13606485919
13606492877
13606501849
13606509051
13606515948
13606524554
13606534258
13606542559
13606557940
13606564471
13606578448
13606588458
13606598650
13606610918
13606623064
13606633440
13606642413
13606653826
13606664324
13606672442
13606683977
13606695513
13606705401
13606716326
13606728655
13606739580
13606747393
13606759539
13606770708
13606782671
13606793047
13606797808
13606814226
13606822527
13606834612
13606845476
13606857988
13606868120
13606876177
13606890459
13606897722
13606914934
13606925371
13606929948
13606949052
13606958452
13606968706
13606982255
13606987199
13607002519
13607015519
13607026384
13607037004
13607048478
13607062333
13607072343
13607083268
13607090165
13607102861
13607116471
13607121354
13607138749
13607152238
13607160844
13607171708
13607184342
13607194413
13607203324
13607215653
13607229264
13607242448
13607254594
13607266190
13607279008
13607289200
13607303055
13607312272
13607328385
13607341324
13607349869
13607360611
13607374283
13607384903
13607393143
13607407608
13607415909
13607426956
13607438309
13607451615
13607461624
13607469559
13607482376
13607490433
13607503250
13607510147
13607520584
13607534195
13607538834
13607553238
13607563614
13607573501
13607583633
13607594131
13607604080
13607615432
13607627945
13607637832
13607647354
13607654373
13607666824
13607676773
13607685012
13607693985
13607705764
13607716567
13607725479
13607736648
13607747512
13607756545
13607769790
13607774062
13607790542
13607798782
13607811355
13607818740
13607828262
13607841567
13607849380
13607861465
13607871230
13607882339
13607892837
13607900588
13607913527
13607924453
13607935561
13607946059
13607956130
13607966140
13607977126
13607985121
13607995314
13608008986
13608019118
13608027175
13608040175
13608049758
13608059767
13608068007
13608075453
13608087477
13608097365
13608108229
13608118056
13608131300
13608141188
13608148390
13608159193
13608168593
13608179152
13608188429
13608199965
13608207655
13608221205
13608232801
13608239271
13608252333
13608262342
13608270155
13608284803
13608295851
13608305799
13608314894
13608323866
13608335890
13608343336
13608355177
13608364820
13608368910
13608385755
13608394239
13608404859
13608414991
13608424757
13608433973
13608440748
13608462293
13608475049
13608485547
13608498731
13608506177
13608510206
13608522840
13608527784
13608538526
13608545057
13608551709
13608559522
13608565808
13608571180
13608575818
13608581678
13608586316
13608591931
13608595838
13608601148
13608605542
13608611035
13608615186
13608620069
13608625623
13608630750
13608635816
13608642163
13608648267
13608652539
13608656690
13608663098
13608667737
13608675000
13608679700
13608685437
13608690015
13608695752
13608701550
13608705334
13608712598
13608716199
13608722241
13608729321
13608734509
13608741772
13608746655
13608752698
13608757336
13608763196
13608768933
13608773572
13608780346
13608784619
13608790661
13608796338
13608799573
13608806469
13608811963
13608817639
13608822583
13608827588
13608833142
13608840283
13608846264
13608850842
13608857129
13608861706
13608868298
13608871899
13608878857
13608884716
13608889660
13608894482
13608901196
13608906018
13608911206
13608915539
13608921643
13608927624
13608932995
13608937451
13608944042
13608948559
13608955090
13608959423
13608965649
13608971142
13608977123
13608982128
13608987194
13608993481
13608997753
13609002941
13609009655
13609014904
13609020397
13609027111
13609031994
13609036327
13609044567
13609049877
13609057506
13609062267
13609068615
13609074596
13609081798
13609089367
13609095409
13609101635
13609108715
13609115612
13609124462
13609128917
13609135814
13609141185
13609148571
13609153698
13609159008
13609162914
13609170421
13609176281
13609181591
13609185314
13609191844
13609194896
13609202159
13609206249
13609213146
13609216564
13609222545
13609227062
13609232555
13609237743
13609245677
13609250194
13609255870
13609261730
13609268443
13609272899
13609278270
13609283214
13609288768
13609295360
13609299998
13609304698
13609310191
13609316356
13609321544
13609327220
13609330821
13609338084
13609343516
13609348888
13609354747
13609360545
13609367320
13609375621
13609382213
13609390330
13609396678
13609405406
13609413951
13609416942
13609428416
13609434275
13609446360
13609451609
13609460521
13609467601
13609475779
13609485362
13609492259
13609499095
13609507273
13609515818
13609522959
13609531870
13609539866
13609546153
13609555186
13609562205
13609569163
13609578684
13609583872
13609592722
13609602000
13609608469
13609617503
13609625010
13609631235
13609640574
13609647166
13609655344
13609663584
13609669138
13609680124
13609685434
13609695322
13609700693
13609710581
13609717722
13609724985
13609731699
13609742197
13609748728
13609756968
13609765451
13609772226
13609781565
13609787973
13609798288
13609807077
13609813425
13609821054
13609830698
13609838205
13609847299
13609855295
13609863352
13609870187
13609880258
13609889108
13609897348
13609903818
13609909982
13609922617
13609929147
13609938608
13609947031
13609954965
13609962839
13609969430
13609977548
13609986032
13609991281
13610000680
13610007638
13610016549
13610023996
13610032174
13610042855
13610049447
13610059701
13610066781
13610076058
13610083016
13610091561
13610099740
13610106332
13610111459
13610122994
13610128610
13610138131
13610145272
13610154183
13610162972
13610173043
13610181039
13610191109
13610200143
13610211617
13610220956
13610233407
13610242928
13610253731
13610260628
13610268258
13610274117
13610282113
13610290413
13610296700
13610305428
13610313973
13610319893
13610328377
13610334298
13610339913
13610349800
13610357796
13610366402
13610372383
13610381539
13610386483
13610396492
13610403816
13610412728
13610419686
13610427193
13610436775
13610443611
13610450447
13610460213
13610466805
13610475349
13610482857
13610490486
13610499519
13610506233
13610514778
13610519783
13610530464
13610535530
13610545967
13610553535
13610562202
13610569404
13610576912
13610583687
13610593269
13610599739
13610608589
13610615486
13610624092
13610633308
13610642952
13610650459
13610660163
13610667060
13610674263
13610685493
13610691169
13610702217
13610709968
13610719062
13610726997
13610735847
13610743049
13610752631
13610759101
13610767402
13610777534
13610784126
13610793220
13610801093
13610807563
13610816962
13610823859
13610828803
13610839423
13610847785
13610855842
13610865485
13610871711
13610877143
13610884833
13610889594
13610896979
13610903388
13610909186
13610912421
13610918952
13610924018
13610930304
13610935004
13610941474
13610946723
13610952765
13610957587
13610963263
13610968268
13610974982
13610981208
13610987982
13610993415
13611000128
13611006049
13611011908
13611016364
13611021979
13611026434
13611031317
13611036505
13611042548
13611047064
13611052374
13611056830
13611062384
13611068060
13611072455
13611078436
13611083014
13611088019
13611094916
13611099127
13611105597
13611109991
13611114020
13611122259
13611128668
13611133002
13611139166
13611143927
13611148627
13611154425
13611159186
13611165716
13611171332
13611176520
13611181158
13611187750
13611192206
13611198736
13611203314
13611209601
13611214056
13611219000
13611227606
13611230902
13611237616
13611243353
13611248663
13611253302
13611258917
13611264654
13611270208
13611275213
13611281256
13611288030
13611293402
13611300482
13611307257
13611312261
13611318731
13611324224
13611329656
13611336614
13611340337
13611348150
13611354131
13611361517
13611366949
13611372564
13611377081
13611382940
13611387945
13611393316
13611397710
13611404058
13611408819
13611413213
13611419317
13611423894
13611429937
13611434453
13611438421
13611443670
13611449895
13611455449
13611461187
13611467656
13611472661
13611479192
13611483831
13611489751
13611494146
13611498235
13611505864
13611509343
13611515813
13611521245
13611526250
13611532354
13611537786
13611543157
13611550664
13611555181
13611561101
13611566045
13611571782
13611577153
13611582097
13611588567
13611592778
13611599675
13611604558
13611610417
13611614873
13611620915
13611626592
13611630803
13611636784
13611642339
13611648381
13611653935
13611659062
13611664494
13611669988
13611674931
13611680180
13611687566
13611692876
13611697575
13611704167
13611708440
13611712529
13611719670
13611724736
13611733952
13611741154
13611750676
13611758305
13611767399
13611775212
13611782658
13611789555
13611800297
13611807866
13611816594
13611823674
13611832524
13611841313
13611847477
13611858525
13611866276
13611875492
13611884098
13611893193
13611900822
13611911564
13611918522
13611928715
13611935978
13611942509
13611953983
13611961308
13611973576
13611982792
13611989384
13611996647
13612007023
13612014530
13612023991
13612030826
13612042850
13612048282
13612058414
13612065616
13612073734
13612083561
13612090091
13612100589
13612107914
13612114261
13612123600
13612132633
13612140262
13612147525
13612152408
13612163455
13612169437
13612180912
13612186405
13612196109
13612203189
13612211246
13612218936
13612227237
13612234073
13612243167
13612252445
13612259525
13612268131
13612274722
13612283084
13612291385
13612299991
13612307498
13612316409
13612321597
13612332828
13612337955
13612347049
13612354617
13612364932
13612372195
13612379519
13612386355
13612396975
13612403262
13612412356
13612418582
13612428225
13612434878
13612442996
13612451419
13612456546
13612467532
13612472659
13612482669
13612490359
13612498782
13612506106
13612514956
13612521975
13612531680
13612538821
13612546206
13612552615
13612562441
13612569033
13612578310
13612586672
13612592715
13612602724
13612607790
13612617861
13612626711
13612634585
13612641848
13612650637
13612657717
13612666323
13612673647
13612681032
13612690127
13612696779
13612705507
13612716127
13612723085
13612730654
13612739138
13612745790
13612754824
13612759951
13612771608
13612782656
13612789064
13612794191
13612806154
13612812135
13612823732
13612831484
13612841371
13612848756
13612858156
13612866701
13612876527
13612883791
13612892335
13612901186
13612912172
13612919008
13612928773
13612935914
13612944398
13612952028
13612960451
13612969545
13612977174
13612984315
13612992067
13613000489
13613007692
13613016298
13613025026
13613033326
13613040956
13613049745
13613056031
13613065553
13613070680
13613081605
13613087037
13613097047
13613104066
13613113038
13613120789
13613128846
13613135133
13613143739
13613152284
13613159730
13613168031
13613174012
13613183045
13613193177
13613201966
13613206788
13613216798
13613223817
13613231751
13613238709
13613246827
13613253663
13613258668
13613263001
13613269471
13613274415
13613281128
13613285401
13613288819
13613297120
13613300904
13613308411
13613311890
13613319336
13613325440
13613330506
13613335938
13613341309
13613349488
13613354676
13613359070
13613365906
13613370972
13613376404
13613382141
13613386841
13613393250
13613399475
13613404175
13613407593
13613419312
13613425659
13613431458
13613435181
13613442505
13613447754
13613453735
13613458801
13613465698
13613470520
13613475769
13613480103
13613486267
13613492371
13613499206
13613503601
13613508850
13613514831
13613520569
13613526184
13613531799
13613538330
13613545410
13613550354
13613557129
13613562683
13613566223
13613573181
13613580261
13613585876
13613591736
13613599426
13613606079
13613611206
13613616577
13613622253
13613626770
13613633178
13613639038
13613686584
13613691894
13613697265
