13939506612
13939513570
13939519429
13939525716
13939530171
13939536031
13939542073
13939546651
13939552876
13939559590
13939565083
13939570637
13939577229
13939583455
13939589070
13939596272
13939600972
13939608540
13939612324
13939619893
13939625142
13939631184
13939636799
13939642964
13939651631
13939658528
13939662922
13939669819
13939675923
13939682331
13939687702
13939694599
13939700276
13939709065
13939715840
13939722370
13939729450
13939735371
13939743061
13939748188
13939754414
13939761067
13939767658
13939773823
13939779987
13939786274
13939792133
13939797993
13939804218
13939809406
13939815327
13939821064
13939827412
13939835102
13939841389
13939847919
13939854145
13939860615
13939867267
13939872516
13939879352
13939887836
13939894123
13939900715
13939905536
13939914081
13939919697
13939927753
13939935688
13939943256
13939954670
13939962970
13939968952
13939975238
13939983905
13939990070
13939996662
13940004596
13940010517
13940018268
13940023639
13940032855
13940039325
13940045734
13940052814
13940059100
13940065509
13940072345
13940079913
13940086078
13940091693
13940099017
13940104877
13940111896
13940118549
13940124713
13940131610
13940139239
13940145160
13940154376
13940161761
13940169879
13940177203
13940184833
13940190875
13940196917
13940202777
13940210345
13940215716
13940223651
13940231280
13940237201
13940243975
13940250506
13940256488
13940264300
13940271991
13940278033
13940283953
13940287493
13940297015
13940303240
13940310382
13940316851
13940323992
13940331133
13940336382
13940344256
13940350237
13940356524
13940363604
13940370135
13940376543
13940383135
13940389727
13940396258
13940401873
13940409563
13940417864
13940424639
13940430682
13940437273
13940443987
13940451128
13940456316
13940463885
13940472063
13940478655
13940485308
13940491045
13940500506
13940506975
13940515520
13940523638
13940531328
13940539446
13940549578
13940556536
13940564714
13940571550
13940579668
13940584917
13940591631
13940599687
13940606462
13940611528
13940619341
13940625810
13940632158
13940638078
13940644731
13940652055
13940659075
13940665727
13940676164
13940682634
13940691911
13940698442
13940704851
13940710771
13940716936
13940723650
13940729753
13940736040
13940743852
13940751115
13940757158
13940763627
13940770036
13940775957
13940782792
13940790361
13940798173
13940804460
13940812822
13940817582
13940826371
13940834062
13940841508
13940851091
13940857316
13940865800
13940871659
13940879106
13940886918
13940893815
13940901994
13940908708
13940916520
13940923356
13940929826
13940938188
13940943925
13940952470
13940959062
13940964616
13940969376
13940974503
13940979081
13940984147
13940988297
13940992631
13940999955
13941005021
13941010514
13941015275
13941021073
13941026444
13941031693
13941039506
13941044694
13941048112
13941055680
13941059220
13941066056
13941069596
13941076798
13941083512
13941088395
13941095231
13941100174
13941107621
13941114213
13941121109
13941127518
13941134842
13941141434
13941146988
13941154129
13941157181
13941165604
13941167252
13941175980
13941180497
13941184281
13941189591
13941193985
13941199600
13941205643
13941211197
13941215836
13941220474
13941225418
13941230057
13941235916
13941242081
13941247635
13941254044
13941259232
13941265091
13941270218
13941274674
13941280777
13941285843
13941292252
13941297073
13941301956
13941306961
13941311600
13941315506
13941321854
13941328567
13941334122
13941339554
13941344864
13941349686
13941355423
13941360611
13941365127
13941371902
13941376663
13941382217
13941387893
13941392105
13941397293
13941403152
13941408340
13941415420
13941422500
13941427017
13941434402
13941440811
13941447586
13941449600
13941457351
13941462783
13941468399
13941471450
13941478591
13941483657
13941489944
13941496719
13941500869
13941506484
13941511184
13941516189
13941522109
13941526748
13941532424
13941538101
13941542617
13941548660
13941552993
13941558608
13941563857
13941569900
13941575576
13941581557
13941587539
13941593459
13941599929
13941605544
13941611892
13941619765
13941625503
13941633681
13941640212
13941646743
13941653823
13941658950
13941666640
13941673110
13941678786
13941684951
13941690078
13941694777
13941700576
13941706313
13941714919
13941721389
13941729323
13941735915
13941742019
13941750136
13941758437
13941765639
13941774001
13941781630
13941788161
13941797377
13941803908
13941813979
13941823683
13941831740
13941838149
13941845412
13941850722
13941860610
13941869032
13941875929
13941886916
13941893629
13941903212
13941909254
13941917128
13941924940
13941931898
13941941176
13941951185
13941957960
13941966688
13941973341
13941981215
13941989821
13941996962
13942004896
13942013563
13942022047
13942029310
13942035780
13942044447
13942051283
13942059156
13942068251
13942076185
13942083692
13942090956
13942097425
13942105665
13942112074
13942119520
13942127149
13942137647
13942145216
13942153578
13942161085
13942167493
13942174024
13942182630
13942189954
13942201551
13942206739
13942217542
13942224927
13942232679
13942239759
13942248243
13942256605
13942262952
13942271314
13942279065
13942286451
13942294263
13942301404
13942310560
13942318372
13942326551
13942334363
13942344739
13942355420
13942363050
13942374036
13942385511
13942394300
13942401929
13942410535
13942419812
13942428967
13942437268
13942444531
13942452222
13942458875
13942466443
13942470471
13942480176
13942487744
13942495251
13942502698
13942510571
13942517895
13942525220
13942531079
13942538220
13942545483
13942553540
13942560620
13942569043
13942575574
13942581067
13942589367
13942596997
13942604748
13942611157
13942620984
13942626965
13942635144
13942643200
13942649975
13942658337
13942664318
13942673352
13942680737
13942689221
13942695507
13942703259
13942709118
13942716259
13942724987
13942733044
13942742626
13942749157
13942757031
13942765514
13942772472
13942778820
13942788097
13942795361
13942804943
13942811779
13942819836
13942826183
13942831127
13942842357
13942847240
13942856212
13942863598
13942871349
13942878246
13942886364
13942894298
13942904125
13942913707
13942927806
13942938610
13942950817
13942963085
13942973278
13942986644
13942996105
13943012828
13943022289
13943033580
13943043651
13943052745
13943061229
13943070689
13943082957
13943091869
13943102122
13943109996
13943118419
13943128429
13943137462
13943147899
13943158946
13943167430
13943177196
13943188060
13943198314
13943208629
13943217662
13943228343
13943237437
13943246531
13943253062
13943261973
13943269725
13943276927
13943287303
13943292308
13943302867
13943311411
13943319407
13943327830
13943336802
13943345652
13943352366
13943362132
13943366953
13943377207
13943386668
13943395213
13943402842
13943411692
13943420359
13943425242
13943435923
13943444285
13943452646
13943460459
13943468699
13943477183
13943483347
13943492014
13943500620
13943508799
13943516062
13943524546
13943531992
13943540110
13943547251
13943558908
13943564402
13943576181
13943585337
13943592295
13943601450
13943610666
13943617075
13943626413
13943631662
13943645090
13943653757
13943660776
13943670175
13943677805
13943685068
13943692209
13943700876
13943708932
13943717660
13943728281
13943738107
13943745492
13943751840
13943759103
13943767648
13943776132
13943786386
13943794198
13943801767
13943810617
13943818246
13943826608
13943834298
13943842538
13943851754
13943859445
13943867501
13943875619
13943883370
13943893197
13943902596
13943910836
13943920175
13943929208
13943939767
13943946908
13943957528
13943962960
13943974923
13943980355
13943992135
13943999886
13944009103
13944018136
13944027169
13944034127
13944042672
13944052193
13944058907
13944068123
13944072701
13944083809
13944088570
13944099678
13944104256
13944114998
13944123848
13944132943
13944142403
13944150215
13944157723
13944166756
13944173348
13944181771
13944188484
13944196846
13944205635
13944211922
13944218697
13944222542
13944228279
13944232979
13944237862
13944244270
13944249947
13944256233
13944263069
13944269600
13944276131
13944283516
13944289986
13944296638
13944301582
13944308968
13944315681
13944322639
13944330147
13944336861
13944343818
13944350227
13944355964
13944363167
13944369026
13944376350
13944384651
13944392891
13944402107
13944409187
13944416633
13944423347
13944428596
13944434883
13944442634
13944450202
13944456794
13944464241
13944469612
13944476753
13944482551
13944489814
13944497199
13944503974
13944511482
13944515632
13944524787
13944531440
13944538459
13944542426
13944551460
13944558723
13944565925
13944571052
13944579780
13944584296
13944594428
13944602302
13944611152
13944617011
13944626105
13944633979
13944642707
13944651435
13944658515
13944667792
13944675971
13944682319
13944691230
13944697211
13944704841
13944710639
13944717780
13944724067
13944732062
13944738349
13944745246
13944749091
13944759406
13944766059
13944773749
13944780585
13944787970
13944793952
13944800727
13944806952
13944813300
13944821356
13944826911
13944835822
13944841803
13944849616
13944857611
13944864569
13944872137
13944878668
13944886603
13944894598
13944902411
13944909125
13944917242
13944925604
13944931769
13944940191
13944948004
13944954596
13944962408
13944967962
13944976690
13944985113
13944990912
13944999151
13945006964
13945011847
13945021551
13945026190
13945036505
13945044989
13945051153
13945057562
13945068609
13945075018
13945084295
13945092779
13945099005
13945106329
13945114019
13945118597
13945129461
13945135015
13945145147
13945149786
13945159185
13945165716
13945174078
13945181158
13945189825
13945198553
13945207769
13945215215
13945223760
13945230108
13945240362
13945247259
13945255803
13945265569
13945272344
13945278875
13945288945
13945295903
13945304570
13945312932
13945320989
13945330083
13945336187
13945345403
13945353887
13945360540
13945368413
13945378301
13945386174
13945396977
13945405889
13945413091
13945420293
13945428533
13945441106
13945447759
13945457646
13945466740
13945474980
13945480778
13945488957
13945495000
13945503361
13945511601
13945519841
13945527470
13945533513
13945541264
13945548771
13945556401
13945563420
13945571965
13945577702
13945586735
13945594792
13945603215
13945609562
13945613713
13945618473
13945624394
13945629582
13945635319
13945640934
13945646061
13945651188
13945656803
13945661930
13945667179
13945670658
13945676823
13945682316
13945689640
13945694950
13945699711
13945704289
13945709599
13945714665
13945721195
13945727482
13945734135
13945739018
13945744633
13945749149
13945754948
13945760502
13945766239
13945771854
13945778324
13945784550
13945789677
13945794193
13945800663
13945806705
13945811039
13945817081
13945823124
13945828800
13945834476
13945840519
13945844364
13945851688
13945857242
13945862064
13945867191
13945873539
13945879093
13945885318
13945890140
13945894901
13945901371
13945907169
13945912967
13945919193
13945923587
13945927616
13945935855
13945941898
13945946842
13945953678
13945960208
13945965030
13945972171
13945975589
13945982669
13945986392
13945993778
13945998783
13946004276
13946011112
13946019351
13946023441
13946030460
13946036014
13946042667
13946050113
13946054935
13946062076
13946067813
13946072635
13946079471
13946086368
13946091006
13946096744
13946100894
13946106692
13946111331
13946116885
13946123538
13946128238
13946134891
13946140445
13946145572
13946151675
13946156192
13946161563
13946166873
13946172671
13946177859
13946181888
13946185244
13946193362
13946197085
13946204165
13946209536
13946215091
13946218447
13946225772
13946231326
13946237002
13946243533
13946250430
13946254275
13946261477
13946266421
13946271731
13946276492
13946282961
13946287905
13946294558
13946300784
13946306338
13946310854
13946317141
13946322207
13946325564
13946334658
13946338442
13946347231
13946351443
13946357302
13946363406
13946369326
13946374148
13946380617
13946385561
13946390749
13946397219
13946402651
13946407534
13946413637
13946418154
13946424746
13946429934
13946436526
13946442385
13946447085
13946452944
13946457827
13946468630
13946476870
13946483278
13946490542
13946499025
13946506838
13946515810
13946524782
13946531679
13946541017
13946547853
13946557070
13946565126
13946571596
13946580812
13946587526
13946596864
13946603212
13946608217
13946620302
13946625734
13946637331
13946642519
13946652101
13946660280
13946670351
13946678407
13946690492
13946700319
13946709413
13946718446
13946725160
13946734804
13946746400
13946756471
13946764650
13946772462
13946779603
13946788514
13946795411
13946804078
13946810609
13946820069
13946829652
13946837953
13946844361
13946853639
13946859986
13946866456
13946877015
13946881959
13946893617
13946900025
13946908570
13946917176
13946924745
13946931886
13946939698
13946947022
13946955750
13946965699
13946972901
13946981934
13946989320
13946999634
13947006959
13947017029
13947024537
13947034119
13947041504
13947047730
13947057435
13947063355
13947072266
13947078125
13947086304
13947095032
13947103455
13947109681
13947118470
13947126526
13947135132
13947140992
13947148133
13947155762
13947164185
13947172730
13947179627
13947189392
13947195984
13947204651
13947213318
13947220215
13947229065
13947237976
13947245178
13947253906
13947263123
13947269592
13947277832
13947286499
13947294983
13947302795
13947309997
13947318298
13947325561
13947333923
13947341125
13947349609
13947359314
13947368225
13947375793
13947384338
13947390869
13947400024
13947406494
13947416809
13947423584
13947432495
13947440795
13947448425
13947456909
13947465576
13947472289
13947477172
13947488952
13947502624
13947510314
13947518066
13947525634
13947535644
13947543029
13947552428
13947561584
13947575988
13947584045
13947592406
13947599059
13947606689
13947614806
13947623656
13947631713
13947639892
13947642455
13947654357
13947659850
13947669860
13947675902
13947685180
13947693114
13947700988
13947708434
13947716124
13947720824
13947729857
13947737975
13947745665
13947753417
13947761168
13947768675
13947776427
13947781859
13947790404
13947798766
13947806578
13947812254
13947820677
13947829283
13947835326
13947843199
13947851866
13947860228
13947866515
13947872862
13947885008
13947893309
13947899473
13947906615
13947914244
13947918944
13947925047
13947931395
13947937132
13947942442
13947946959
13947951475
13947958311
13947963560
13947967833
13947973326
13947979490
13947984739
13947990538
13947996275
13948001829
13948006712
13948012571
13948017576
13948023191
13948027647
13948033445
13948038450
13948044615
13948049620
13948055601
13948063841
13948069273
13948074827
13948081175
13948086302
13948093382
13948098509
13948104002
13948109190
13948116880
13948122251
13948127683
13948133665
13948139036
13948143003
13948149717
13948155271
13948160581
13948165159
13948170896
13948177000
13948182188
13948187742
13948193601
13948199644
13948208921
13948213743
13948217344
13948223081
13948228574
13948234495
13948240110
13948245054
13948250486
13948254880
13948260007
13948263913
13948268796
13948273130
13948278501
13948282346
13948287839
13948292356
13948298215
13948302243
13948307676
13948313962
13948318051
13948323728
13948329648
13948335446
13948341306
13948345822
13948352964
13948358518
13948363889
13948368772
13948374204
13948378781
13948384458
13948390866
13948395810
13948402402
13948406613
13948411740
13948417050
13948422238
13948427548
13948432980
13948438413
13948443906
13948449643
13948454282
13948460202
13948465512
13948471310
13948476987
13948481747
13948487302
13948493710
13948500241
13948504635
13948509579
13948515683
13948520993
13948527829
13948534237
13948539853
13948544858
13948550961
13948555722
13948561886
13948566342
13948572140
13948580075
13948586911
13948592038
13948598202
13948603146
13948609127
13948614682
13948620846
13948627072
13948634030
13948638180
13948645260
13948649899
13948657894
13948665096
13948670895
13948678524
13948684689
13948691281
13948696530
13948701779
13948709530
13948714413
13948721188
13948731869
13948739864
13948745663
13948756039
13948764584
13948772457
13948779842
13948786251
13948798458
13948805233
13948812801
13948822506
13948830440
13948837276
13948844356
13948853573
13948861446
13948867855
13948874996
13948883236
13948890499
13948896297
13948904781
13948914302
13948921505
13948927486
13948937313
13948943111
13948952388
13948958492
13948966670
13948975093
13948983516
13948989559
13948999507
13949005306
13949012508
13949020931
13949029903
13949036983
13949043636
13949054378
13949059199
13949070186
13949075130
13949086055
13949094722
13949101741
13949109004
13949119685
13949127192
13949135066
13949142207
13949151668
13949158687
13949167720
13949174922
13949183650
13949192744
13949199763
13949208918
13949216059
13949225093
13949232051
13949240412
13949251155
13949257685
13949265620
13949274226
13949281977
13949290278
13949298335
13949304987
13949314204
13949322993
13949328120
13949337336
13949344538
13949353693
13949361384
13949369623
13949379328
13949386591
13949396052
13949403498
13949409968
13949418818
13949428583
13949436518
13949446039
13949453791
13949460260
13949469416
13949476313
13949486017
13949492426
13949501337
13949508661
13949519586
13949528009
13949530939
13949543024
13949549555
13949561762
13949570185
13949579462
13949590265
13949596491
13949607721
13949616083
13949625787
13949632867
13949642938
13949649713
13949658685
13949666559
13949673395
13949681634
13949689508
13949697198
13949704156
13949711969
13949718744
13949726556
13949732171
13949741327
13949749811
13949757196
13949764520
13949770807
13949778863
13949787347
13949795282
13949803765
13949811456
13949817254
13949823846
13949832879
13949840814
13949848077
13949854730
13949862725
13949869622
13949879449
13949886041
13949893731
13949900628
13949910577
13949917474
13949924981
13949931817
13949941705
13949948724
13949956658
13949966241
13949973382
13949983147
13949990105
13949999444
13950005852
13950014336
13950022454
13950031426
13950040398
13950046929
13950057244
13950063775
13950072136
13950081292
13950089531
13950096123
13950104973
13950113518
13950122185
13950129204
13950136467
13950146477
13950154473
13950162041
13950170281
13950176445
13950180046
13950186882
13950192009
13950196587
13950201225
13950210014
13950216301
13950221184
13950227776
13950232353
13950239738
13950244011
13950250603
13950256157
13950263969
13950270317
13950274956
13950280266
13950287712
13950292534
13950297355
13950304497
13950313713
13950319511
13950324272
13950331840
13950337700
13950343803
13950351555
13950361381
13950366081
13950374443
13950379387
13950387138
13950391166
13950397148
13950401481
13950407890
13950412040
13950418571
13950423027
13950428947
13950433097
13950439262
13950443901
13950448966
13950454521
13950460746
13950464713
13950471183
13950475700
13950482475
13950487663
13950494071
13950498344
13950504874
13950509513
13950516105
13950522208
13950525565
13950532096
13950538444
13950544608
13950548270
13950554191
13950559379
13950565787
13950572135
13950577323
13950582267
13950587760
13950594840
13950600455
13950604728
13950608817
13950616263
13950621757
13950628348
13950632865
13950639151
13950642569
13950650382
13950653983
13950661185
13950667350
13950673331
13950679679
13950685233
13950690116
13950695914
13950701102
13950707694
13950712027
13950717459
13950723746
13950729972
13950736380
13950740958
13950747428
13950751944
13950759146
13950763114
13950771781
13950775992
13950783316
13950790030
13950795889
13950801199
13950807974
13950813101
13950818106
13950825552
13950831229
13950836172
13950841910
13950846915
13950853567
13950857901
13950863516
13950870596
13950875540
13950881460
13950887381
13950892447
13950898733
13950906424
13950910269
13950918936
13950926687
13950935415
13950943228
13950950003
13950957632
13950967337
13950974173
13950980154
13950984610
13950990713
13950995840
13951002249
13951006765
13951011953
13951018972
13951024465
13951029226
13951036306
13951042898
13951051382
13951057974
13951067007
13951073354
13951082815
13951090505
13951098074
13951107168
13951113210
13951121633
13951129629
13951136221
13951142263
13951153432
13951162588
13951169179
13951174184
13951186147
13951191213
13951202321
13951207631
13951217519
13951224721
13951233999
13951241323
13951249807
13951257070
13951264577
13951274892
13951282827
13951289296
13951297475
13951306691
13951314687
13951321645
13951329763
13951338368
13951341542
13951351674
13951360646
13951369557
13951374623
13951385060
13951392995
13951400197
13951408315
13951418629
13951424062
13951434499
13951443105
13951450673
13951458485
13951466908
13951476063
13951484425
13951491322
13951497243
13951506642
13951514882
13951521962
13951530262
13951536488
13951545155
13951554371
13951562001
13951570424
13951577931
13951584401
13951593861
13951602589
13951611988
13951620716
13951630360
13951636830
13951646412
13951652638
13951661793
13951668446
13951677296
13951686878
13951696888
13951704212
13951715015
13951723316
13951735096
13951744923
13951754505
13951765125
13951774525
13951780567
13951788074
13951797413
13951805286
13951813038
13951819324
13951827015
13951831470
13951842518
13951851185
13951857288
13951867237
13951873218
13951882190
13951887683
13951897144
13951903797
13951911731
13951919239
13951927906
13951934070
13951942737
13951948902
13951957202
13951964465
13951973255
13951981311
13951989307
13951998584
13952007312
13952015613
13952022205
13952031970
13952040576
13952048938
13952055225
13952063953
13952072558
13952080859
13952085803
13952097949
13952104114
13952112353
13952116931
13952128711
13952137500
13952143786
13952150378
13952160510
13952165454
13952176806
13952181323
13952192919
13952197436
13952206652
13952214526
13952222766
13952232653
13952241015
13952247180
13952255053
13952262560
13952270373
13952275988
13952286425
13952296374
13952302905
13952310778
13952318652
13952326525
13952334460
13952342333
13952348986
13952358935
13952365282
13952373217
13952381151
13952388293
13952396044
13952404467
13952410998
13952419665
13952428331
13952437121
13952443346
13952450670
13952457201
13952463732
13952468798
13952476976
13952484484
13952490648
13952496141
13952503405
13952510057
13952518419
13952522753
13952528185
13952533922
13952538256
13952542528
13952549181
13952552721
13952558275
13952561449
13952566942
13952571947
13952576402
13952580980
13952586717
13952592638
13952597093
13952602647
13952610582
13952616441
13952623582
13952629869
13952634569
13952639940
13952646715
13952652757
13952657945
13952663255
13952669664
13952675401
13952681810
13952687791
13952692613
13952698411
13952704088
13952709947
13952716600
13952721299
13952728929
13952732713
13952739488
13952743150
13952751268
13952754930
13952763536
13952767198
13952776414
13952780259
13952787583
13952793077
13952800645
13952807298
13952812425
13952818345
13952825303
13952830674
13952837388
13952842454
13952848680
13952853868
13952859300
13952864976
13952871995
13952877305
13952882859
13952890550
13952895738
13952902818
13952907945
13952913377
13952919785
13952926011
13952933579
13952939866
13952946946
13952953171
13952959397
13952966111
13952973374
13952978623
13952986008
13952989915
13952996140
13952999924
13953008408
13953016465
13953023301
13953029221
13953034043
13953039536
13953050400
13953057785
13953065232
13953073655
13953080002
13953085190
13953090927
13953095993
13953101059
13953105515
13953110825
13953115464
13953120835
13953125962
13953129990
13953135788
13953141831
13953147934
13953153793
13953159409
13953164597
13953170212
13953174973
13953180222
13953185165
13953191574
13953197189
13953203903
13953208969
13953214584
13953219467
13953225571
13953231125
13953236862
13953242783
13953247848
13953253586
13953258957
13953268600
13953274032
13953283798
13953293197
13953299850
13953309250
13953318100
13953324386
13953336166
13953344101
13953352768
13953362350
13953368881
13953377914
13953386764
13953393112
13953403915
13953412582
13953421493
13953428329
13953437118
13953445907
13953454696
13953460800
13953470016
13953478378
13953486984
13953495467
13953504256
13953509383
13953520126
13953529586
13953538497
13953544662
13953554244
13953562545
13953570418
13953575423
13953587569
13953595748
13953603805
13953612838
13953618941
13953627547
13953636153
13953644393
13953650374
13953661422
13953670028
13953677413
13953683882
13953693160
13953700728
13953707930
13953715315
13953725814
13953738143
13953744856
13953756331
13953764143
13953773970
13953780196
13953789595
13953799910
13953808821
13953815657
13953826033
13953831892
13953840742
13953847029
13953855391
13953861555
13953870589
13953876448
13953885237
13953891463
13953900435
13953906660
13953914656
13953922590
13953929487
13953937361
13953944014
13953951399
13953956953
13953964766
13953969343
13953980818
13953988142
13953994062
13954001936
13954011335
13954020002
13954027754
13954036665
13954044660
13954053144
13954059370
13954066694
13954074445
13954081709
13954089704
13954097700
13954106489
13954113020
13954121076
13954126691
13954136152
13954141828
13954151899
13954157758
13954167341
13954172712
13954181623
13954189008
13954195966
13954203534
13954210920
13954215436
13954224164
13954232099
13954238141
13954246564
13954253339
13954260724
13954268964
13954275800
13954284833
13954294599
13954301923
13954309003
13954316510
13954323346
13954333173
13954339581
13954347882
13954354474
13954362348
13954371686
13954378156
13954386517
13954391461
13954400616
13954407880
13954418072
13954423444
13954432050
13954439679
13954447064
13954454144
13954463055
13954469586
13954477643
13954483990
13954495221
13954506573
13954515240
13954524762
13954533368
13954546795
13954558148
13954569439
13954575543
13954586468
13954593121
13954602276
13954609417
13954616314
13954620831
13954631512
13954636212
13954645123
13954650005
13954660809
13954666180
13954675884
13954684002
13954690472
13954693584
13954698895
13954703533
13954709576
13954714153
13954719646
13954724285
13954730633
13954734051
13954740276
13954744549
13954750469
13954756145
13954763042
13954766277
13954771831
13954776104
13954781841
13954787090
13954791729
13954798931
13954804668
13954809307
13954816021
13954820049
13954825969
13954830242
13954835613
13954840740
13954846477
13954851604
13954856182
13954860088
13954865154
13954869548
13954876628
13954882671
13954892742
13954898967
13954904216
13954913066
13954918376
13954923931
13954929180
13954937724
13954943889
13954952373
13954957866
13954963481
13954968242
13954973552
13954979289
13954984111
13954994853
13955001811
13955007793
13955014568
13955018718
13955025676
13955030925
13955037334
13955043010
13955049846
13955053630
13955061442
13955065959
13955073283
13955079753
13955086162
13955091289
13955098308
13955104533
13955111552
13955120341
13955127238
13955132304
13955139079
13955145121
13955150981
13955157389
13955166056
13955170390
13955175151
13955180522
13955186320
13955190898
13955196391
13955201457
13955205912
13955212565
13955216960
13955222758
13955228861
13955233683
13955240397
13955245646
13955251200
13955257975
13955263834
13955269816
13955275126
13955283244
13955289957
13955294962
13955299967
13955306864
13955310282
13955317606
13955321024
13955329264
13955335001
13955339396
13955345011
13955352030
13955355875
13955363077
13955368876
13955375529
13955380900
13955388712
13955394571
13955401468
13955407389
13955414469
13955420145
13955426615
13955433329
13955439737
13955446939
13955454203
13955459024
13955464762
13955470804
13955476297
13955481729
13955487589
13955493753
13955499246
13955508036
13955515482
13955522806
13955532450
13955537027
13955547586
13955551859
13955561929
13955566507
13955577615
13955586649
13955592752
13955601114
13955608743
13955616739
13955625101
13955634378
13955640909
13955649209
13955658121
13955665567
13955671731
13955681863
13955688638
13955697305
13955707437
13955715555
13955720926
13955734964
13955742471
13955752176
13955762796
13955770242
13955782632
13955790444
13955801248
13955809976
13955819192
13955826516
13955835183
13955844033
13955850686
13955858376
13955864846
13955874368
13955880898
13955888589
13955895303
13955905434
13955912698
13955922097
13955929055
13955938821
13955943459
13955953530
13955963174
13955971474
13955977456
13955985879
13955994057
13956001809
13956006569
13956017128
13956027138
13956035622
13956041787
13956049660
13956057656
13956065651
13956073464
13956080239
13956090798
13956096779
13956104592
13956111855
13956119728
13956125221
13956133644
13956142189
13956149147
13956157204
13956164162
13956170326
13956178627
13956184670
13956193581
13956200539
13956210304
13956214577
13956224098
13956231666
13956239601
13956244301
13956253822
13956261879
13956271766
13956276283
13956286964
13956296364
13956304359
13956312355
13956319435
13956329933
13956336342
13956346840
13956356056
13956363624
13956371070
13956381996
13956388160
13956398048
13956405738
13956414222
13956421302
13956429115
13956434974
13956444618
13956452552
13956461646
13956468421
13956477454
13956488929
13956497108
13956504371
13956515601
13956523597
13956533851
13956540809
13956548926
13956554664
13956565101
13956570899
13956579932
13956589454
13956599158
13956606482
13956613685
13956620765
13956628760
13956633155
13956642493
13956650794
13956658423
13956663245
13956672583
13956679969
13956687171
13956691443
13956700537
13956707923
13956716895
13956721289
13956732031
13956736121
13956746008
13956750342
13956759863
13956768408
13956775977
13956781104
13956789709
13956797339
13956804541
13956808874
13956817969
13956826269
13956833777
13956838049
13956847998
13956852759
13956862219
13956869238
13956877112
13956884558
13956891577
13956895178
13956902990
13956907446
13956913488
13956918737
13956923559
13956930883
13956937231
13956941870
13956947180
13956951757
13956958776
13956963171
13956968481
13956973364
13956980749
13956985388
13956990270
13956996252
13957001806
13957007421
13957012365
13957017065
13957024389
13957029699
13957033178
13957040563
13957046179
13957050878
13957057043
13957061071
13957066442
13957073339
13957078710
13957082616
13957087743
13957093969
13957098913
13957104101
13957112402
13957118444
13957123693
13957129797
13957135473
13957141637
13957146886
13957151342
13957156469
13957163854
13957170019
13957175939
13957179357
13957185888
13957191625
13957198705
13957204870
13957212865
13957218358
13957225133
13957229772
13957235570
13957240209
13957246068
13957251805
13957258336
13957264928
13957270177
13957274999
13957282079
13957286290
13957292028
13957297582
13957304235
13957309850
13957314488
13957318700
13957324803
13957329991
13957335790
13957342503
13957349095
13957354649
13957360204
13957365514
13957368932
13957377477
13957381566
13957387852
13957394444
13957398900
13957402623
13957410008
13957414952
13957420628
13957425328
13957431615
13957439244
13957444310
13957448155
13957456334
13957461094
13957465245
13957471654
13957476536
13957482518
13957488804
13957493626
13957499363
13957503758
13957510777
13957515965
13957521519
13957526829
13957533177
13957539280
13957545201
13957551731
13957556858
13957563328
13957567906
13957574620
13957581700
13957587376
13957593724
13957600193
13957605625
13957612705
13957620457
13957622898
13957633091
13957644138
13957651035
13957658543
13957665684
13957673008
13957675877
13957688206
13957693333
13957700962
13957708591
13957717503
13957723728
13957732761
13957738987
13957744785
13957754001
13957760593
13957763279
13957774631
13957780185
13957791660
13957802097
13957813877
13957823398
13957833713
13957844089
13957853977
13957869052
13957882602
13957894138
13957903903
13957915134
13957923679
13957936374
13957944919
13957955356
13957963107
13957973422
13957981723
13957990329
13957997531
13958005527
13958014194
13958022311
13958030612
13958039584
13958047580
13958055697
13958063754
13958068393
13958077609
13958084445
13958092135
13958102084
13958109225
13958117343
13958124484
13958131442
13958140414
13958146273
13958153109
13958161410
13958169833
13958179049
13958186007
13958192111
13958200167
13958208346
13958214877
13958223116
13958228854
13958239047
13958246737
13958253268
13958261507
13958269747
13958274752
13958284457
13958292330
13958301424
13958306002
13958316195
13958320956
13958331148
13958339083
13958346773
13958356356
13958363253
13958370699
13958381563
13958386751
13958397188
13958405611
13958412691
13958420137
13958429049
13958436312
13958445040
13958452242
13958460421
13958467928
13958476900
13958485933
13958495760
13958503816
13958512178
13958517122
13958526766
13958533296
13958541902
13958548799
13958557527
13958564180
13958572847
13958579500
13958587373
13958593904
13958603609
13958611421
13958620393
13958627595
13958634798
13958642610
13958649873
13958657991
13958666170
13958672395
13958676912
13958687288
13958698701
13958708162
13958720430
13958730256
13958737153
13958749849
13958759065
13958768098
13958777253
13958786347
13958794465
13958801911
13958810517
13958817597
13958829011
13958831574
13958843842
13958852448
13958860383
13958868073
13958873933
13958882600
13958890717
13958899445
13958905549
13958913666
13958922822
13958931245
13958939545
13958947846
13958954682
13958963288
13958970002
13958979706
13958987397
13958995820
13959004120
13959010590
13959017914
13959027192
13959034394
13959043549
13959050995
13959061798
13959066925
13959077851
13959085053
13959095185
13959100373
13959112274
13959117706
13959128204
13959136505
13959144013
13959151154
13959159515
13959166595
13959176910
13959185150
13959196503
13959201813
13959212433
13959220734
13959228241
13959235443
13959245331
13959252838
13959258758
13959264313
13959270599
13959277191
13959282440
13959288482
13959294098
13959301117
13959306671
13959313141
13959318145
13959324066
13959330047
13959337982
13959343292
13959349456
13959354705
13959359649
13959365325
13959371795
13959377288
13959383392
13959389556
13959393585
13959401275
13959407379
13959411346
13959417999
13959425384
13959431243
13959436553
13959442962
13959449737
13959454681
13959461150
13959467559
13959474639
13959482635
13959488433
13959495452
13959500823
13959506438
13959513335
13959519927
13959527740
13959532744
13959538360
13959543487
13959548308
13959553557
13959558379
13959566924
13959570952
13959579925
13959585357
13959591216
13959594451
13959602507
13959606047
13959614348
13959620574
13959624968
13959629790
13959635344
13959640715
13959646209
13959648101
13959657256
13959662383
13959669280
13959675261
13959679534
13959685820
13959690032
13959695037
13959701140
13959707060
13959711821
13959717314
13959721587
13959727324
13959733183
13959739104
13959743987
13959750517
13959757170
13959762236
13959766264
13959772307
13959778349
13959782317
13959788054
13959795134
13959800017
13959806731
13959813872
13959819548
13959824858
13959830839
13959837797
13959841398
13959849272
13959855253
13959860075
13959866728
13959872770
13959878874
13959884245
13959890104
13959895964
13959904448
13959910490
13959918791
13959927092
13959935698
13959942228
13959949308
13959956083
13959962004
13959974638
13959984464
13959991484
13959997404
13960007902
13960017606
13960026151
13960034696
13960041898
13960049955
13960064298
13960069242
13960078580
13960086820
13960095792
13960103727
13960111783
13960119657
13960126432
13960131986
13960137479
13960148527
13960156766
13960164823
13960176359
13960183622
13960192472
13960199979
13960209256
13960215177
13960224820
13960233915
13960242887
13960250089
13960257535
13960267545
13960274381
13960284268
13960289090
13960299588
13960307401
13960316678
13960325162
13960334012
13960342618
13960349210
13960360379
13960367947
13960376981
13960386685
13960394803
13960401517
13960412076
13960418606
13960427579
13960437161
13960445828
13960452420
13960462491
13960469510
13960479397
13960486172
13960494839
13960504544
13960513516
13960522915
13960531643
13960541775
13960550381
13960558499
13960567044
13960573025
13960583401
13960588162
13960598171
13960603970
13960613003
13960617397
13960627895
13960634731
13960643581
13960652981
13960659023
13960667507
13960676907
13960684780
13960692226
13960700649
13960708401
13960716823
13960739101
13960743923
13960754726
13960760097
13960770473
13960775173
13960784511
13960792446
13960800991
13960805568
13960820034
13960828823
13960836208
13960843837
13960850917
13960860988
13960869533
13960877773
13960884731
13960893825
13960898403
13960910060
13960919460
13960925502
13960933803
13960941859
13960949550
13960956142
13960964687
13960973354
13960981410
13960988124
13960995875
13961003139
13961012660
13961020351
13961028163
13961035792
13961043483
13961049586
13961057704
13961065761
13961073573
13961082423
13961092311
13961100489
13961109156
13961120326
13961130091
13961136561
13961145533
13961154078
13961158656
13961169520
13961178370
13961187098
13961195704
13961204005
13961211085
13961217188
13961225855
13961234217
13961245142
13961251490
13961261378
13961270594
13961277369
13961285303
13961293665
13961302393
13961311365
13961319910
13961326929
13961335718
13961343226
13961353419
13961359766
13961368250
13961373682
13961380457
13961387720
13961395227
13961403955
13961412195
13961418787
13961426416
13961432459
13961439356
13961447779
13961454492
13961460657
13961469141
13961478540
13961487146
13961494409
13961504541
13961508753
13961515405
13961522424
13961528467
13961535181
13961541467
13961547632
13961554712
13961561731
13961567651
13961578088
13961584253
13961592737
13961598718
13961604578
13961610864
13961616907
13961622339
13961626733
13961632654
13961635766
13961642419
13961645654
13961653161
13961659143
13961664270
13961668908
13961674463
13961680322
13961686242
13961691186
13961695703
13961701440
13961705835
13961711206
13961716088
13961722802
13961727380
13961734155
13961737695
13961745019
13961751306
13961755700
13961762170
13961767541
13961773034
13961779260
13961785119
13961790917
13961798974
13961802941
13961810815
13961814904
13961824548
13961829003
13961836511
13961843102
13961847924
13961851525
13961859765
13961865929
13961870812
13961878503
13961885522
13961891137
13961897301
13961904259
13961910241
13961917931
13961923302
13961931603
13961935509
13961943139
13961946801
13961954674
13961960595
13961965294
13961973839
13961978905
13961985314
13961991539
13961998314
13962004540
13962013207
13962017418
13962028160
13962030541
13962039147
13962045983
13962050499
13962056603
13962063256
13962068321
13962072899
13962079491
13962083336
13962091271
13962094567
13962103661
13962108666
13962117577
13962124962
13962130211
13962137291
13962142540
13962148766
13962157310
13962162132
13962169212
13962174217
13962180260
13962185142
13962190330
13962195396
13962200584
13962203880
13962211632
13962216637
13962221763
13962226341
13962232994
13962238792
13962244407
13962248985
13962255638
13962261741
13962265526
13962272972
13962278892
13962284385
13962290062
13962295982
13962301170
13962307945
13962314598
13962321556
13962329917
13962336998
13962345909
13962352684
13962363121
13962367881
13962377525
13962385215
13962393699
13962398338
13962409202
13962418296
13962427024
13962433860
13962443137
13962453147
13962459800
13962468162
13962477317
13962485923
13962495078
13962500266
13962511497
13962516685
13962528586
13962533713
13962546348
13962551475
13962562034
13962567588
13962579551
13962588828
13962596946
13962606467
13962615683
13962623984
13962633506
13962641989
13962649436
13962658530
13962665915
13962675131
13962683310
13962694480
13962704062
13962712851
13962721945
13962730917
13962739523
13962748312
13962756796
13962765707
13962774008
13962780600
13962790671
13962799216
13962808249
13962815695
13962825094
13962833883
13962843588
13962852682
13962855612
13962874533
13962881369
13962889486
13962899130
13962906881
13962915487
13962925192
13962932943
13962939901
13962947714
13962954000
13962961935
13962967611
13962977987
13962986532
13962995138
13963001425
13963010336
13963018453
13963027181
13963034506
13963043478
13963054098
13963060384
13963069295
13963077962
13963087301
13963093770
13963101766
13963111165
13963118978
13963127523
13963135702
13963144185
13963153402
13963159810
13963169454
13963175924
13963185628
13963191854
13963201558
13963211202
13963219503
13963225850
13963235616
13963245442
13963255147
13963262532
13963270894
13963278157
13963286824
13963294148
13963303914
13963311238
13963321065
13963328328
13963336568
13963346028
13963354268
13963361470
13963369649
13963379475
13963388142
13963395466
13963403340
13963412678
13963420979
13963428486
13963437337
13963445088
13963454793
13963462300
13963473042
13963480610
13963488301
13963497578
13963505696
13963513264
13963522541
13963530110
13963538716
13963546101
13963555744
13963563008
13963573139
13963580403
13963588154
13963595661
13963605793
13963613056
13963622639
13963631123
13963641254
13963647175
13963659260
13963664387
13963676716
13963682453
13963694538
13963700703
13963712421
13963723896
13963733417
13963741779
13963751117
13963759235
13963766498
13963776386
13963781696
13963789386
13963793110
13963800556
13963806232
13963813495
13963818866
13963825885
13963830402
13963837421
13963843219
13963849079
13963852802
13963860431
13963866413
13963872760
13963876911
13963884662
13963890460
13963898151
13963902423
13963910480
13963916644
13963922504
13963927020
13963934772
13963941730
13963948016
13963952655
13963958881
13963964252
13963970843
13963976703
13963982745
13963988238
13963994708
13964000751
13964005389
13964011493
13964017779
13964023639
13964028399
13964034503
13964040790
13964046710
13964053912
13964059405
13964066180
13964071490
13964077655
13964082782
13964088824
13964094622
13964100299
13964107684
13964113604
13964120379
13964125079
13964128924
13964137042
13964141925
13964148577
13964153033
13964162799
13964168841
13964175860
13964181414
13964188006
13964193865
13964199725
13964206927
13964213824
13964220477
13964224505
13964232928
13964236834
13964244769
13964250994
13964260149
13964266924
13964272234
13964277666
13964283587
13964292071
13964298357
13964306780
13964313128
13964320147
13964326250
13964334429
13964338640
13964349444
13964353838
13964363665
13964369402
13964376360
13964383440
13964388201
13964394243
13964400286
13964405779
13964410540
13964417559
13964422136
13964428606
13964434404
13964440447
13964447466
13964452226
13964459734
13964464922
13964470293
13964476885
13964483660
13964490129
13964494524
13964502641
13964508562
13964514116
13964517900
13964523515
13964529009
13964533769
13964538774
13964543718
13964551591
13964555742
13964562273
13964566545
13964573137
13964577287
13964582414
13964590410
13964597002
13964601335
13964606828
13964612260
13964617448
13964622758
13964627275
13964632951
13964638566
13964646135
13964653581
13964659501
13964669389
13964675920
13964684648
13964693010
13964700700
13964709123
13964716386
13964722367
13964732560
13964739396
13964747514
13964754777
13964763688
13964770280
13964778092
13964786759
13964793046
13964801408
13964807755
13964816972
13964826554
13964833146
13964840897
13964847611
13964856461
13964863847
13964873002
13964881058
13964890092
13964896500
13964905045
13964914322
13964922989
13964929642
13964940140
13964948319
13964959427
13964969742
13964978898
13964984391
13964996537
13965007462
13965015091
13965021378
13965033768
13965040360
13965050980
13965060074
13965068802
13965077164
13965083939
13965093460
13965101090
13965108231
13965116776
13965125382
13965133133
13965140518
13965149429
13965158340
13965164566
13965175857
13965182999
13965193497
13965201919
13965211197
13965216263
13965228042
13965236404
13965244827
13965251968
13965260452
13965269302
13965278762
13965287979
13965294571
13965303543
13965312149
13965318313
13965327774
13965332839
13965344131
13965352676
13965361221
13965367813
13965377700
13965382705
13965394424
13965403396
13965412673
13965419936
13965433364
13965443862
13965454604
13965463027
13965474929
13965483779
13965491286
13965500197
13965507583
13965515578
13965522841
13965530227
13965538772
13965547561
13965555190
13965562209
13965570449
13965578749
13965586013
13965594497
13965604445
13965613723
13965621657
13965629531
13965639052
13965646804
13965653395
13965665419
13965672255
13965681777
13965688429
13965697524
13965703932
13965713576
13965720473
13965728468
13965737318
13965746291
13965755080
13965757704
13965768996
13965780409
13965786635
13965797621
13965805433
13965815443
13965821303
13965835035
13965843763
13965854200
13965864088
13965872267
13965881117
13965886976
13965896315
13965902479
13965909925
13965915968
13965924147
13965933729
13965942213
13965948744
13965955824
13965965162
13965972914
13965979383
13965987318
13965993910
13966002699
13966011366
13966019727
13966026075
13966034376
13966040968
13966049512
13966058179
13966066053
13966074476
13966081617
13966086622
13966090223
13966096998
13966100538
13966107068
13966113538
13966119459
13966122571
13966129407
13966132520
13966139356
13966144239
13966148816
13966154859
13966161023
13966166517
13966172071
13966176404
13966181531
13966185743
13966190198
13966197156
13966201795
13966205457
13966212537
13966218274
13966223706
13966228833
13966233655
13966241223
13966246655
13966252515
13966257154
13966262097
13966269238
13966274732
13966279981
13966285352
13966290906
13966295117
13966301221
13966306653
13966312024
13966316663
13966323193
13966328564
13966335278
13966342419
13966347302
13966351697
13966357312
13966362988
13966368176
13966373120
13966380688
13966385327
13966389966
13966397229
13966401745
13966408398
13966411938
13966419690
13966423413
13966431958
13966437573
13966444531
13966451489
13966456616
13966463574
13966468396
13966475598
13966482129
13966488171
13966493786
13966498791
13966503491
13966510449
13966517041
13966522778
13966527233
13966534497
13966538891
13966545239
13966550305
13966558178
13966563183
13966569897
13966573742
13966581677
13966586010
13966593578
13966597729
13966607372
13966611767
13966618359
13966621838
13966628307
13966634045
13966639904
13966645397
13966652355
13966660473
13966665661
13966669811
13966677379
13966681591
13966687511
13966691234
13966699169
13966703380
13966710216
13966715404
13966719860
13966725475
13966731701
13966735424
13966742992
13966747020
13966753185
13966758312
13966764782
13966770641
13966776073
13966782116
13966787487
13966793407
13966800060
13966803722
13966810192
13966814891
13966820690
13966826915
13966832836
13966838695
13966844066
13966849010
13966856029
13966859630
13966866832
13966873363
13966878490
13966885814
13966890209
13966897533
13966904613
13966908519
13966918224
13966926891
13966932994
13966943004
13966950206
13966957896
13966966197
13966973277
13966982799
13966989207
13966997752
13967006480
13967013438
13967022471
13967028758
13967038707
13967044688
13967055796
13967061412
13967075450
13967083567
13967092845
13967098521
13967115061
13967124278
13967132701
13967140635
13967150096
13967156748
13967164561
13967171458
13967177073
13967185496
13967191477
13967200327
13967209849
13967217661
13967223887
13967233775
13967240977
13967250071
13967256907
13967266367
13967273508
13967284067
13967290720
13967299509
13967307444
13967314402
13967320688
13967325205
13967337595
13967342966
13967353708
13967357920
13967367197
13967371470
13967381235
13967388376
13967396799
13967402048
13967411997
13967419809
13967425241
13967432321
13967440561
13967444956
13967456247
13967461984
13967470896
13967478708
13967484201
13967492624
13967498483
13967506601
13967514291
13967521799
13967529062
13967534860
13967542123
13967550180
13967556100
13967564401
13967570810
13967579477
13967587900
13967596078
13967604074
13967611459
13967618844
13967625497
13967633371
13967641000
13967650277
13967657174
13967667184
13967674936
13967681710
13967687631
13967696786
13967705514
13967713693
13967719674
13967728280
13967734811
13967744393
13967750619
13967759164
13967768014
13967776559
13967783029
13967791573
13967797677
13967805978
13967814156
13967822274
13967828622
13967839791
13967847298
13967855355
13967863778
13967873055
13967882149
13967892830
13967904061
13967914010
13967923287
13967933297
13967941597
13967948433
13967957894
13967964791
13967972420
13967979927
13967990731
13967997994
13968007332
13968014839
13968024788
13968033089
13968039986
13968047005
13968054695
13968061287
13968070259
13968078438
13968087898
13968093941
13968102303
13968110542
13968118355
13968125130
13968135078
13968143501
13968154610
13968162422
13968169563
13968178108
13968184639
13968191841
13968198738
13968209053
13968214546
13968225044
13968232673
13968240181
13968246528
13968252937
13968261055
13968267280
13968277839
13968284675
13968291877
13968298774
13968307563
13968315986
13968322761
13968330512
13968335456
13968338630
13968347175
13968352851
13968357734
13968363593
13968368293
13968373847
13968378608
13968384834
13968389533
13968394843
13968399360
13968405097
13968411262
13968415473
13968420051
13968425117
13968430000
13968435676
13968440681
13968447028
13968453010
13968459296
13968463080
13968470527
13968473456
13968482062
13968487983
13968492866
13968500617
13968505561
13968511786
13968516364
13968523627
13968530341
13968536445
13968544257
13968550788
13968556647
13968562629
13968568854
13968576667
13968583075
13968591864
13968596503
13968602729
13968609442
13968615180
13968620124
13968624823
13968633002
13968638129
13968641913
13968648932
13968652411
13968658026
13968663275
13968669928
13968674933
13968681159
13968685919
13968691657
13968697272
13968702277
13968708990
13968715277
13968720831
13968727423
13968732123
13968737128
13968743353
13968748358
13968752997
13968760687
13968765204
13968771673
13968777777
13968781378
13968788031
13968793951
13968799322
13968806646
13968811896
13968817877
13968822638
13968828314
13968832159
13968837652
13968844366
13968848944
13968854864
13968859686
13968864813
13968869818
13968874151
13968879766
13968887518
13968893621
13968898626
13968904913
13968908209
13968915838
13968921514
13968927862
13968934576
13968940191
13968946783
13968952154
13968957342
13968964239
13968968267
13968974798
13968981756
13968988775
13968993536
13968999456
13969006048
13969012212
13969015997
13969022771
13969029302
13969036016
13969039922
13969048467
13969053594
13969059209
13969063848
13969070623
13969076116
13969084600
13969089849
13969096013
13969104314
13969110967
13969116277
13969123174
13969130315
13969141240
13969152227
13969160039
13969169133
13969176397
13969186162
13969191777
13969204534
13969213506
13969219670
13969229497
13969238103
13969245244
13969253972
13969262517
13969271123
13969273869
13969287175
13969294804
13969303349
13969311223
13969317998
13969327519
13969334416
13969343877
13969350407
13969359196
13969365544
13969374089
13969383916
13969391728
13969397832
13969410954
13969419865
13969428166
13969435063
13969443181
13969450932
13969460209
13969467656
13969475834
13969481205
13969490666
13969498844
13969505619
13969514042
13969526188
13969536198
13969544804
13969552006
13969562687
13969570988
13969580509
13969588078
13969596195
13969603458
13969611210
13969619999
13969628727
13969633671
13969642765
13969649784
13969659000
13969666630
13969675236
13969683475
13969691837
13969698978
13969706974
13969713199
13969721134
13969730716
13969737796
13969746097
13969754459
13969763370
13969771183
13969779239
13969783817
13969794193
13969799869
13969809696
13969818546
13969827152
13969835330
13969844852
13969853824
13969863956
13969872196
13969882999
13969891299
13969898807
13969907413
13969915652
13969922549
13969933108
13969940555
13969949100
13969955630
13969965640
13969973941
13969981753
13969991580
13969999698
13970007266
13970013675
13970022708
13970031009
13970039492
13970048648
13970055056
13970063662
13970069339
13970076907
13970084170
13970091311
13970097476
13970104617
13970112124
13970122134
13970126650
13970136172
13970140627
13970150210
13970154788
13970165530
13970174441
13970182131
13970184756
13970195071
13970202151
13970209719
13970216433
13970225527
13970233523
13970242739
13970250490
13970258242
13970268984
13970274355
13970286135
13970292788
13970302797
13970309267
13970319155
13970324160
13970336062
13970341005
13970353701
13970361757
13970370058
13970373354
13970385561
13970393495
13970400148
13970408998
13970416628
13970426393
13970432863
13970441713
13970447634
13970456545
13970462526
13970470827
13970477480
13970488405
13970495790
13970501222
13970507875
13970511964
13970516542
13970523134
13970530641
13970535585
13970540468
13970546693
13970552492
13970558717
13970563356
13970569459
13970576906
13970584596
13970590211
13970596864
13970602357
13970607118
13970612916
13970618898
13970627809
13970635255
13970641114
13970646241
13970650148
13970655946
13970662965
13970667360
13970671937
13970678651
13970681886
13970688050
13970693116
13970697572
13970704591
13970709840
13970716065
13970721620
13970727174
13970732850
13970737428
13970742005
13970749268
13970754762
13970760926
13970766053
13970772096
13970776795
13970780824
13970787049
13970793214
13970799805
13970804322
13970809449
13970815125
13970820679
13970826417
13970832032
13970836976
13970845032
13970849427
13970852418
13970859559
13970862733
13970870423
13970873658
13970880921
13970886170
13970890687
13970895081
13970901490
13970906373
13970911927
13970916749
13970922242
13970927613
13970933777
13970938904
13970944153
13970949891
13970954834
13970958863
13970964661
13970969483
13970976197
13970982361
13970987305
13970991577
13970997193
13971002930
13971007385
13971013977
13971022339
13971027039
13971032715
13971038513
13971043762
13971049866
13971055237
13971061279
13971067322
13971075195
13971080750
13971086121
13971090881
13971097534
13971102112
13971108582
13971115234
13971122742
13971128235
13971134094
13971139282
13971148193
13971154541
13971161316
13971168396
13971175659
13971180420
13971190002
13971196777
13971202209
13971209900
13971215088
13971221313
13971226013
13971231750
13971235229
13971241089
13971245788
13971252075
13971257629
13971263977
13971267334
13971274597
13971280761
13971287231
13971291198
13971299865
13971303649
13971311462
13971314941
13971323242
13971327392
13971339050
13971346313
13971355651
13971365539
13971374389
13971381164
13971389220
13971396972
13971403320
13971408202
13971419799
13971426635
13971434753
13971442443
13971450683
13971457885
13971466735
13971473144
13971481444
13971489928
13971498168
13971503173
13971512755
13971517699
13971526488
13971533751
13971544493
13971549559
13971560851
13971565917
13971575988
13971584044
13971591490
13971599120
13971607604
13971615721
13971624449
13971631468
13971638915
13971645873
13971655333
13971662474
13971669737
13971678099
13971688109
13971695128
13971702452
13971708678
13971719359
13971727232
13971735533
13971742735
13971750365
13971757384
13971765562
13971775084
13971783384
13971788572
13971802244
13971809996
13971816221
13971827147
13971833921
13971843016
13971849974
13971858885
13971868345
13971877134
13971885618
13971897703
13971907957
13971916624
13971926573
13971937071
13971949339
13971958860
13971968748
13971977354
13971984129
13971992124
13972000181
13972007200
13972015867
13972023557
13972031309
13972038389
13972048093
13972057187
13972063962
13972071042
13972080503
13972085996
13972096067
13972103086
13972111081
13972119016
13972126950
13972133542
13972144712
13972151670
13972159299
13972166135
13972174680
13972182614
13972191220
13972198545
13972206418
13972213681
13972225766
13972233396
13972247556
13972259030
13972268613
13972272702
13972286984
13972297177
13972306393
13972318173
13972329953
13972339108
13972354428
13972361386
13972377560
13972387692
13972396908
13972408993
13972418881
13972430417
13972441098
13972450619
13972460751
13972471371
13972481015
13972491574
13972502072
13972513119
13972523617
13972532406
13972543942
13972554440
13972564938
13972574581
13972584530
13972594540
13972604794
13972614925
13972624752
13972635982
13972645931
13972656612
13972665218
13972675411
13972686886
13972694820
13972706478
13972717281
13972728267
13972739803
13972748958
13972759639
13972770870
13972782039
13972795345
13972807918
13972818050
13972826717
13972837154
13972846858
13972854183
13972865230
13972877620
13972886531
13972893916
13972902827
13972910762
13972918208
13972929256
13972936519
13972945125
13972954402
13972961177
13972970576
13972977595
13972989680
13973002314
13973014094
13973022761
13973030513
13973039363
13973048213
13973059443
13973067378
13973074702
13973082820
13973090998
13973099909
13973107173
13973117610
13973124934
13973132197
13973140376
13973148005
13973156916
13973164790
13973171931
13973180598
13973191279
13973200190
13973206965
13973214411
13973222101
13973231257
13973239985
13973247675
13973255976
13973263605
13973271540
13973279352
13973287043
13973295221
13973302912
13973311213
13973319635
13973328547
13973336237
13973341547
13973353937
13973358637
13973369989
13973374750
13973384027
13973393366
13973401117
13973409296
13973417291
13973425348
13973433710
13973442560
13973448969
13973458307
13973467096
13973474664
13973483636
13973491632
13973500726
13973509576
13973516351
13973525323
13973531976
13973542291
13973550470
13973563897
13973573602
13973582574
13973590875
13973599725
13973608941
13973618707
13973626214
13973635553
13973642450
13973652825
13973657403
13973668756
13973679254
13973687005
13973691583
13973696527
13973702386
13973706048
13973711602
13973717156
13973723260
13973728387
13973733697
13973738336
13973742791
13973747247
13973753045
13973757378
13973761895
13973766595
13973770928
13973775201
13973779656
13973784478
13973788506
13973795403
13973799065
13973804192
13973807793
13973812127
13973817376
13973823418
13973828179
13973833001
13973836724
13973840874
13973845818
13973849908
13973854241
13973857598
13973863091
13973867852
13973874260
13973879998
13973888421
13973894829
13973904107
13973909600
13973919854
13973926690
13973934075
13973940972
13973947625
13973954644
13973963738
13973971367
13973977165
13973984673
13973992424
13973999871
13974005791
13974014153
13974021233
13974028496
13974034111
13974042107
13974050041
13974056999
13974064201
13974073357
13974080376
13974088066
13974094902
13974102470
13974109428
13974117363
13974123405
13974132316
13974139702
13974147148
13974153984
13974163322
13974168266
13974180107
13974185783
13974201591
13974213005
13974222892
13974232353
13974242485
13974252739
13974261344
13974268363
13974278373
13974285453
13974293815
13974298576
13974309989
13974317558
13974326103
13974333549
13974340141
13974350395
13974355644
13974368461
13974375175
13974383170
13974390067
13974397758
13974404349
13974413505
13974422233
13974429801
13974437797
13974445304
13974452872
13974461356
13974469413
13974477103
13974484549
13974492423
13974499503
13974507193
13974516898
13974522757
13974533316
13974542044
13974549979
13974557730
13974564078
13974572623
13974579032
13974588553
13974594718
13974599845
13974611380
13974618155
13974626273
13974633902
13974641715
13974647574
13974656729
13974665518
13974672598
13974681204
13974688345
13974697195
13974704398
13974713370
13974722403
13974734488
13974742972
13974752127
13974759146
13974767996
13974775808
13974785879
13974790823
13974801199
13974808706
13974816458
13974824759
13974831411
13974838491
13974845938
13974854055
13974860647
13974871572
13974880056
13974888662
13974896047
13974903555
13974912527
13974921804
13974927541
13974942251
13974951528
13974962209
13974971304
13974979482
13974990041
13975000356
13975009573
13975020193
13975027639
13975034658
13975042348
13975049978
13975056081
13975063283
13975070302
13975078542
13975086843
13975094594
13975102346
13975110341
13975117421
13975125417
13975133718
13975140065
13975146779
13975155202
13975165029
13975169789
13975179067
13975185597
13975192128
13975198476
13975204335
13975210622
13975215199
13975221791
13975225209
13975233205
13975238576
13975244862
13975251820
13975255666
13975262929
13975268300
13975273488
13975278371
13975284901
13975290211
13975296315
13975301076
13975305653
13975310109
13975315785
13975320241
13975325307
13975330434
13975336964
13975341420
13975347706
13975352833
13975358998
13975363637
13975370533
13975377919
13975382130
13975386708
13975393605
13975398243
13975402943
13975407032
13975413807
13975420704
13975427296
13975431385
13975437916
13975442372
13975447560
13975452870
13975457142
13975464772
13975471424
13975475880
13975481983
13975487721
13975492481
13975497914
13975501087
13975507618
13975514515
13975518971
13975522022
13975529835
