13778210821
13778216436
13778221258
13778226690
13778231207
13778236883
13778242193
13778246648
13778251592
13778256902
13778262579
13778268316
13778272161
13778276983
13778282354
13778287176
13778292242
13778296819
13778301702
13778305669
13778312017
13778317571
13778328191
13778334356
13778339605
13778345525
13778351140
13778357305
13778364995
13778370489
13778378118
13778386419
13778391668
13778399663
13778407964
13778414251
13778420903
13778428350
13778434697
13778442693
13778448186
13778455693
13778463018
13778468755
13778478520
13778485112
13778493230
13778499883
13778505193
13778511479
13778518193
13778524053
13778530034
13778534367
13778540532
13778547307
13778555364
13778560857
13778566350
13778572881
13778579778
13778586064
13778592046
13778596623
13778604619
13778610356
13778617009
13778622136
13778628117
13778634831
13778642033
13778649602
13778655278
13778661076
13778667180
13778672978
13778679570
13778685490
13778692631
13778699711
13778705571
13778710759
13778715947
13778722660
13778730168
13778736515
13778744694
13778750553
13778756413
13778762028
13778767704
13778774601
13778780216
13778785893
13778793522
13778799870
13778805424
13778811405
13778818241
13778823795
13778830998
13778839665
13778844364
13778853153
13778860661
13778866459
13778876652
13778885197
13778892155
13778899113
13778907413
13778914249
13778921818
13778927738
13778935856
13778943607
13778949222
13778957401
13778963627
13778972416
13778979313
13778986637
13778992618
13779002445
13779009830
13779016422
13779024662
13779029117
13779036563
13779042789
13779050418
13779055606
13779061893
13779067874
13779075199
13779081058
13779086185
13779094608
13779101627
13779107791
13779114200
13779120242
13779127078
13779133182
13779139346
13779146121
13779153873
13779159549
13779165652
13779173038
13779177921
13779185794
13779193118
13779200381
13779206485
13779213199
13779220645
13779226932
13779234134
13779239932
13779246707
13779252505
13779261294
13779267520
13779274295
13779280826
13779288150
13779294619
13779302127
13779308108
13779315066
13779320987
13779327151
13779334719
13779341006
13779348269
13779354190
13779361575
13779367617
13779373355
13779380923
13779387820
13779394717
13779400637
13779408206
13779413943
13779421999
13779428591
13779437136
13779445376
13779453799
13779461123
13779467165
13779476321
13779482424
13779489687
13779497805
13779505373
13779512942
13779520632
13779527468
13779535280
13779547426
13779553347
13779567019
13779574160
13779582155
13779590944
13779597902
13779604250
13779615541
13779622866
13779629152
13779635683
13779643129
13779649172
13779656496
13779662844
13779669863
13779676699
13779683473
13779691225
13779697267
13779705141
13779710268
13779716921
13779723634
13779728273
13779734377
13779738466
13779744447
13779748048
13779755495
13779761537
13779766908
13779771913
13779776796
13779782228
13779786989
13779791017
13779798463
13779803957
13779808656
13779813905
13779819887
13779825136
13779831178
13779837343
13779841371
13779846925
13779852113
13779857423
13779861574
13779868104
13779872926
13779879640
13779885133
13779890260
13779895936
13779902650
13779907045
13779912843
13779918153
13779922364
13779928651
13779933900
13779940309
13779946778
13779952821
13779957582
13779963563
13779967774
13779973146
13779978456
13779986329
13779992127
13779996156
13780002748
13780007874
13780012940
13780018922
13780025269
13780032960
13780038941
13780044190
13780049928
13780055299
13780061951
13780067750
13780073914
13780079346
13780085084
13780090089
13780096436
13780102296
13780108765
13780113343
13780117982
13780125428
13780133729
13780140442
13780147461
13780153260
13780160035
13780166810
13780173646
13780179139
13780187561
13780193055
13780200074
13780206971
13780210267
13780216858
13780222779
13780227845
13780233887
13780239807
13780245728
13780249756
13780255371
13780260559
13780264893
13780270020
13780275818
13780281738
13780287110
13780292908
13780297669
13780303162
13780307434
13780313843
13780318787
13780325195
13780329712
13780335449
13780342896
13780347534
13780355286
13780360718
13780365967
13780371399
13780377686
13780383911
13780389221
13780394287
13780400452
13780407532
13780414307
13780417541
13780424194
13780429138
13780435852
13780441040
13780447998
13780453857
13780458740
13780465271
13780469665
13780476379
13780483825
13780490051
13780494507
13780503051
13780510070
13780514343
13780521972
13780527465
13780532470
13780537414
13780542968
13780549011
13780558044
13780565002
13780573730
13780580810
13780587341
13780594360
13780603454
13780609557
13780617797
13780626464
13780632446
13780641296
13780650268
13780658447
13780664977
13780674926
13780681457
13780690673
13780700439
13780708373
13780714782
13780723083
13780732665
13780740783
13780747191
13780755614
13780764525
13780772765
13780779967
13780788817
13780799437
13780809935
13780819396
13780829528
13780838195
13780846007
13780854674
13780861510
13780872679
13780879332
13780886229
13780893859
13780901854
13780908568
13780916808
13780924986
13780930235
13780939024
13780947691
13780954771
13780960997
13780969908
13780976866
13780985289
13780990965
13780999632
13781007445
13781016356
13781023619
13781032469
13781037535
13781045836
13781054136
13781062559
13781070250
13781077330
13781086912
13781094603
13781105528
13781113829
13781119932
13781128965
13781134886
13781143980
13781152647
13781158567
13781166441
13781174192
13781181944
13781189268
13781195188
13781204344
13781213560
13781221189
13781229368
13781238096
13781245298
13781253416
13781261961
13781269895
13781278928
13781288084
13781295164
13781305112
13781311582
13781320615
13781326475
13781335203
13781343870
13781349546
13781360166
13781368223
13781375791
13781382077
13781391538
13781398496
13781406064
13781410032
13781421750
13781428159
13781435666
13781443357
13781451047
13781459043
13781468625
13781474118
13781481503
13781489438
13781496762
13781503659
13781511166
13781519650
13781532895
13781539914
13781547604
13781557614
13781563962
13781574216
13781582822
13781591672
13781598447
13781606442
13781618344
13781627133
13781635007
13781640988
13781650693
13781659604
13781667355
13781675778
13781683529
13781690976
13781698483
13781705563
13781713131
13781721249
13781729000
13781735653
13781743099
13781751766
13781759152
13781766537
13781773861
13781777706
13781787594
13781793636
13781802914
13781808834
13781817501
13781823544
13781832699
13781838558
13781847286
13781855099
13781862057
13781868038
13781875912
13781884640
13781892147
13781900204
13781907711
13781913631
13781922909
13781928951
13781937679
13781942196
13781946651
13781952572
13781958126
13781962948
13781970333
13781974849
13781982235
13781988338
13781994442
13781999446
13782005184
13782010738
13782016109
13782021968
13782028499
13782034542
13782044368
13782050655
13782056148
13782061397
13782066219
13782072994
13782078304
13782084529
13782089656
13782096126
13782100581
13782106868
13782112544
13782117244
13782124690
13782128719
13782134151
13782142207
13782151180
13782157405
13782164485
13782170344
13782176204
13782182124
13782187190
13782192744
13782198482
13782204158
13782209651
13782214717
13782222224
13782228328
13782233577
13782238399
13782248225
13782253474
13782261592
13782266719
13782273616
13782277583
13782284358
13782291682
13782294429
13782302546
13782307856
13782313716
13782318721
13782323664
13782328974
13782334223
13782338313
13782343196
13782348017
13782352778
13782358088
13782363581
13782369929
13782376155
13782380976
13782386958
13782391841
13782399958
13782405818
13782411738
13782415095
13782422236
13782426753
13782433100
13782438715
13782445063
13782450312
13782456110
13782462275
13782468989
13782474238
13782480524
13782486933
13782492609
13782497980
13782502741
13782508539
13782514277
13782520991
13782527460
13782531855
13782537043
13782542963
13782549189
13782554804
13782559931
13782568232
13782573786
13782579889
13782584467
13782590082
13782596430
13782601862
13782607416
13782614679
13782619867
13782624872
13782631586
13782636835
13782642511
13782647394
13782654230
13782659357
13782667780
13782671747
13782679437
13782684442
13782689874
13782695551
13782700800
13782707086
13782713434
13782718988
13782724420
13782731378
13782737177
13782743341
13782751703
13782758966
13782765070
13782771661
13782777582
13782782953
13782790155
13782796625
13782803216
13782810358
13782818414
13782828119
13782837396
13782846185
13782856561
13782866082
13782873590
13782880670
13782891778
13782898797
13782909539
13782916131
13782925897
13782932794
13782939752
13782949700
13782956597
13782965997
13782971673
13782980218
13782987481
13782997552
13783004876
13783012872
13783017388
13783028619
13783035149
13783044488
13783051080
13783057610
13783067193
13783073724
13783083245
13783091790
13783099175
13783105340
13783114007
13783122246
13783130303
13783138054
13783146355
13783154839
13783163018
13783167168
13783178582
13783184990
13783194573
13783201165
13783209893
13783219414
13783225151
13783234490
13783241509
13783248894
13783258415
13783265923
13783272515
13783280632
13783288811
13783297295
13783306145
13783314140
13783321404
13783330071
13783336357
13783345634
13783354240
13783359428
13783369011
13783376640
13783384148
13783392998
13783400749
13783409416
13783416740
13783424675
13783432792
13783440361
13783448967
13783457451
13783465507
13783473381
13783482048
13783489616
13783497734
13783504142
13783513114
13783520072
13783527885
13783537467
13783543754
13783553337
13783560172
13783567375
13783574638
13783583000
13783590751
13783598747
13783607169
13783615653
13783622550
13783631828
13783638297
13783648368
13783655082
13783661124
13783671012
13783679679
13783688773
13783698600
13783708365
13783720450
13783728629
13783734183
13783742789
13783751273
13783757682
13783766166
13783775626
13783781180
13783789664
13783797049
13783804190
13783811576
13783820243
13783827140
13783836234
13783843131
13783849845
13783858878
13783865958
13783871756
13783881033
13783887869
13783894461
13783903250
13783910513
13783916800
13783925894
13783931815
13783939200
13783947012
13783956290
13783963370
13783973563
13783979544
13783987234
13783994375
13784002676
13784011954
13784020071
13784027029
13784035757
13784044180
13784052298
13784059073
13784067617
13784076223
13784082510
13784092337
13784098745
13784108023
13784114187
13784124075
13784131094
13784140859
13784147512
13784156545
13784164297
13784171499
13784179556
13784187307
13784194143
13784204153
13784211782
13784219778
13784227834
13784235769
13784243215
13784250600
13784257497
13784265920
13784273427
13784281972
13784291372
13784296438
13784303029
13784307058
13784314016
13784319326
13784324087
13784330190
13784335988
13784341848
13784348256
13784353444
13784360280
13784363881
13784370900
13784376088
13784382863
13784388845
13784394582
13784401357
13784406789
13784412587
13784418691
13784425588
13784430837
13784436574
13784443410
13784450917
13784457021
13784464772
13784470021
13784477223
13784483144
13784488210
13784493153
13784499318
13784503957
13784510426
13784515859
13784520497
13784524953
13784529774
13784534169
13784538564
13784543019
13784549489
13784554921
13784559682
13784563283
13784567738
13784572743
13784576161
13784582143
13784588124
13784592824
13784598439
13784603444
13784609913
13784614247
13784618519
13784625050
13784632924
13784638173
13784644154
13784649525
13784655507
13784660206
13784664723
13784670521
13784677052
13784682057
13784687245
13784692250
13784695851
13784703297
13784707203
13784712635
13784719044
13784724903
13784727650
13784735218
13784741078
13784744984
13784750599
13784755177
13784760060
13784768116
13784771595
13784779102
13784782093
13784788624
13784793324
13784797779
13784805286
13784811329
13784817493
13784821461
13784828480
13784833118
13784839283
13784843555
13784848621
13784855457
13784860828
13784866688
13784872730
13784877186
13784882435
13784887745
13784893604
13784900928
13784906605
13784912220
13784918262
13784923206
13784927234
13784931629
13784937610
13784942737
13784949390
13784954029
13784959583
13784964344
13784971241
13784976123
13784987964
13784992664
13785000476
13785008167
13785013355
13785020984
13785027149
13785033130
13785039356
13785046070
13785050586
13785057666
13785062610
13785068958
13785073291
13785078052
13785082752
13785089465
13785093250
13785100330
13785105945
13785112903
13785116687
13785128711
13785135242
13785144397
13785150073
13785159167
13785164844
13785172168
13785180469
13785187610
13785195483
13785204638
13785209826
13785218677
13785223681
13785233264
13785237292
13785247546
13785256335
13785263476
13785270861
13785277758
13785284472
13785291430
13785299487
13785306445
13785313952
13785323168
13785328845
13785338000
13785344592
13785351550
13785358080
13785364977
13785373583
13785383288
13785388903
13785397753
13785403613
13785412646
13785420275
13785426684
13785434557
13785442797
13785448534
13785456530
13785462572
13785471606
13785479174
13785486498
13785494982
13785501391
13785510180
13785516344
13785525683
13785531725
13785539476
13785548876
13785556139
13785564440
13785572069
13785578905
13785586718
13785593554
13785602648
13785606859
13785618334
13785625292
13785633715
13785640795
13785649217
13785657823
13785667284
13785675218
13785683824
13785693163
13785705370
13785714281
13785723863
13785730333
13785738329
13785747118
13785754747
13785763780
13785772020
13785781297
13785788804
13785795030
13785804490
13785811876
13785819322
13785826951
13785834398
13785838731
13785849656
13785857225
13785864244
13785872544
13785880845
13785886583
13785895311
13785903062
13785912034
13785920213
13785927659
13785934922
13785939195
13785950608
13785956651
13785966477
13785972093
13785980882
13785987779
13785996812
13786004929
13786012986
13786020493
13786028367
13786035630
13786043198
13786050828
13786058579
13786065415
13786072312
13786081101
13786088853
13786098252
13786105698
13786112656
13786120408
13786128953
13786135422
13786142502
13786153977
13786158738
13786171006
13786175888
13786185593
13786195176
13786203476
13786211716
13786220322
13786228623
13786236618
13786244492
13786252793
13786261826
13786269333
13786278671
13786285935
13786293442
13786302841
13786311630
13786318527
13786327255
13786333664
13786343430
13786351913
13786359848
13786367294
13786375290
13786381882
13786390365
13786400314
13786408859
13786418564
13786426254
13786432541
13786442306
13786449508
13786460983
13786469650
13786477340
13786485092
13786493576
13786500289
13786503891
13786512069
13786517440
13786525192
13786530624
13786536727
13786541732
13786546493
13786552413
13786557723
13786563705
13786569137
13786574752
13786579513
13786584701
13786589828
13786596298
13786603317
13786609542
13786614791
13786619430
13786625594
13786632064
13786637130
13786644210
13786651107
13786657149
13786663253
13786668563
13786673324
13786677108
13786683883
13786689742
13786696822
13786701888
13786707564
13786713241
13786717513
13786723006
13786729049
13786735274
13786741439
13786748824
13786754500
13786760421
13786765487
13786771468
13786776778
13786783126
13786789107
13786796187
13786803389
13786808394
13786816146
13786822371
13786828353
13786837081
13786842879
13786849227
13786856062
13786861983
13786868147
13786874556
13786879317
13786887984
13786892745
13786901228
13786908125
13786913924
13786920760
13786926863
13786933821
13786939925
13786946822
13786952498
13786959334
13786964766
13786971358
13786978010
13786982954
13786990523
13786996138
13787002424
13787009077
13787015913
13787022810
13787028669
13787036055
13787041365
13787049238
13787056929
13787064436
13787070356
13787077681
13787083784
13787089216
13787095198
13787103865
13787107954
13787114790
13787119306
13787126570
13787132368
13787138716
13787144026
13787149519
13787155927
13787160810
13787167280
13787174604
13787179792
13787185041
13787191206
13787202314
13787207441
13787214216
13787219282
13787225629
13787230817
13787236738
13787241743
13787247297
13787252546
13787258466
13787266828
13787272565
13787277936
13787284955
13787290510
13787294843
13787301069
13787306135
13787313764
13787319501
13787325361
13787331464
13787338361
13787345868
13787354291
13787364850
13787372419
13787381086
13787390851
13787396649
13787406110
13787411664
13787421674
13787430707
13787437116
13787446210
13787454511
13787462872
13787470746
13787479474
13787486859
13787497968
13787504254
13787514203
13787522198
13787529706
13787537091
13787544781
13787553631
13787561017
13787570660
13787577801
13787587079
13787593609
13787600751
13787610638
13787618634
13787627057
13787634991
13787641400
13787651410
13787659893
13787667767
13787676861
13787684185
13787691693
13787700787
13787709088
13787715985
13787725140
13787736675
13787745159
13787755291
13787762798
13787769695
13787777935
13787785137
13787795879
13787804974
13787811260
13787820049
13787828472
13787835979
13787842266
13787851482
13787858013
13787866192
13787874798
13787884502
13787890606
13787899517
13787909343
13787916912
13787926128
13787932842
13787941692
13787947796
13787957683
13787964458
13787978679
13787987102
13787997661
13788006328
13788015239
13788023967
13788030681
13788039409
13788045574
13788055583
13788062724
13788071513
13788081279
13788087810
13788096050
13788103618
13788110271
13788119487
13788126811
13788132487
13788141521
13788149028
13788157329
13788170390
13788178447
13788183696
13788193278
13788199687
13788209025
13788216655
13788224162
13788231852
13788241435
13788248881
13788255107
13788264201
13788269694
13788279399
13788285929
13788292765
13788299296
13788306193
13788312663
13788319865
13788327494
13788336711
13788343608
13788350016
13788360697
13788366984
13788376078
13788385050
13788391154
13788398783
13788405497
13788414774
13788421732
13788430399
13788437357
13788444437
13788452250
13788461893
13788473429
13788493021
13788506266
13788518778
13788530314
13788539713
13788551859
13788560892
13788572916
13788584818
13788593424
13788601114
13788609598
13788616617
13788623880
13788631449
13788638223
13788645609
13788651895
13788658548
13788665872
13788672037
13788679178
13788685404
13788691873
13788700540
13788707559
13788716226
13788722330
13788730142
13788736856
13788744241
13788751016
13788756814
13788763101
13788769327
13788774331
13788780618
13788784768
13788790079
13788797281
13788802530
13788810159
13788814798
13788820840
13788826822
13788832193
13788836648
13788844095
13788848367
13788854593
13788858804
13788863382
13788870401
13788874612
13788881997
13788886941
13788893472
13788898294
13788905557
13788909890
13788916177
13788920022
13788926370
13788931680
13788937600
13788943398
13788949075
13788954141
13788960061
13788966042
13788972573
13788980813
13788987588
13788992104
13788999245
13789005715
13789011269
13789016030
13789022012
13789028420
13789034280
13789039590
13789046181
13789050759
13789055581
13789060708
13789065529
13789073037
13789077370
13789084572
13789090615
13789095864
13789101662
13789106972
13789113137
13789118691
13789123940
13789130837
13789137978
13789143959
13789149025
13789155617
13789161904
13789166298
13789174599
13789183693
13789189919
13789196694
13789202675
13789207985
13789214455
13789221352
13789227028
13789234108
13789239174
13789245094
13789249977
13789254677
13789259865
13789267006
13789272011
13789279091
13789283730
13789288979
13789293373
13789298073
13789305580
13789311073
13789315712
13789320961
13789325661
13789331276
13789337196
13789342384
13789347694
13789353493
13789358803
13789363991
13789371010
13789375709
13789382362
13789386757
13789393226
13789397987
13789404152
13789411354
13789417335
13789421669
13789427345
13789433754
13789442604
13789447242
13789461036
13789470436
13789477394
13789485145
13789492469
13789501014
13789509925
13789518226
13789527931
13789538551
13789545387
13789553626
13789560829
13789567481
13789574134
13789584693
13789596351
13789603370
13789611365
13789619239
13789627784
13789636329
13789644752
13789653358
13789661414
13789670142
13789676978
13789686561
13789695960
13789705604
13789716468
13789723914
13789735267
13789740027
13789755042
13789763709
13789772742
13789782141
13789791358
13789801734
13789812659
13789820166
13789831153
13789841712
13789849036
13789858435
13789869360
13789881323
13789891943
13789904150
13789913550
13789921851
13789932532
13789941565
13789950232
13789961462
13789970984
13789980932
13789990637
13789998144
13790008703
13790016089
13790027319
13790035681
13790044897
13790052832
13790064184
13790072546
13790081640
13790092260
13790100500
13790108435
13790118994
13790127477
13790135778
13790145056
13790155798
13790161840
13790173132
13790181615
13790192846
13790202428
13790212987
13790222326
13790231908
13790240331
13790249303
13790257482
13790266210
13790277868
13790287084
13790296666
13790308568
13790319310
13790328893
13790336461
13790347326
13790357824
13790366979
13790378026
13790388097
13790397740
13790408055
13790418126
13790428075
13790437535
13790447423
13790456700
13790463170
13790474400
13790486668
13790494054
13790504674
13790515538
13790524693
13790534581
13790543492
13790554539
13790562718
13790573399
13790584385
13790593724
13790603795
13790613438
13790624302
13790635472
13790644993
13790655125
13790662876
13790673741
13790683995
13790694004
13790705601
13790714207
13790725926
13790736363
13790746678
13790756748
13790766819
13790782505
13790793552
13790805210
13790818455
13790834446
13790849277
13790862034
13790872532
13790882480
13790893345
13790901951
13790909702
13790918247
13790923374
13790930820
13790935886
13790943454
13790948032
13790955722
13790960971
13790968662
13790974033
13790981540
13790987155
13790993869
13791000339
13791005161
13791011814
13791016757
13791023837
13791028659
13791036228
13791042819
13791048679
13791055026
13791061008
13791067783
13791075168
13791081332
13791088412
13791094821
13791100009
13791105441
13791112582
13791119418
13791127902
13791136508
13791145724
13791153720
13791160678
13791170199
13791175754
13791185153
13791190341
13791199374
13791203402
13791215426
13791222995
13791228427
13791238437
13791245822
13791251803
13791260348
13791265780
13791271212
13791275729
13791280673
13791286898
13791292330
13791298251
13791303683
13791308566
13791312289
13791316805
13791323153
13791329318
13791334078
13791336886
13791344698
13791347384
13791355074
13791359164
13791364962
13791369235
13791374239
13791378085
13791383700
13791387545
13791392245
13791397738
13791402132
13791407198
13791412752
13791418551
13791425570
13791433077
13791439547
13791446078
13791453829
13791459200
13791466891
13791472689
13791477816
13791481539
13791487642
13791493868
13791498018
13791501558
13791506685
13791510897
13791516451
13791520968
13791525545
13791531405
13791536592
13791541048
13791545504
13791549776
13791555574
13791559542
13791566011
13791571077
13791574739
13791579256
13791583162
13791587618
13791592623
13791596163
13791601778
13791607576
13791612642
13791617159
13791621065
13791627046
13791631136
13791636934
13791642366
13791646272
13791653536
13791658785
13791664156
13791668001
13791674532
13791679170
13791684724
13791690828
13791695711
13791700777
13791706880
13791712434
13791717561
13791720430
13791727510
13791734712
13791738924
13791743318
13791749666
13791754487
13791758699
13791765657
13791769929
13791777315
13791782014
13791786836
13791792390
13791797700
13791803865
13791809236
13791813752
13791818879
13791824800
13791830354
13791833223
13791841951
13791846711
13791851838
13791856843
13791862641
13791867890
13791872712
13791879548
13791883332
13791889436
13791893403
13791899995
13791905549
13791910676
13791918672
13791923860
13791929414
13791934541
13791940095
13791945344
13791951508
13791957795
13791963837
13791971589
13791978791
13791985139
13791992341
13791998200
13792006501
13792012482
13792017976
13792024262
13792030549
13792035248
13792039277
13792048188
13792055268
13792062470
13792069245
13792076935
13792080964
13792091889
13792098359
13792105927
13792110321
13792121003
13792126374
13792133393
13792141388
13792149140
13792156525
13792164399
13792173432
13792181732
13792186188
13792195709
13792202179
13792211151
13792217804
13792224030
13792233612
13792240448
13792250214
13792255585
13792264862
13792271637
13792279022
13792287323
13792295319
13792302093
13792310089
13792317657
13792325958
13792334991
13792340973
13792348175
13792355804
13792362457
13792371918
13792379730
13792387298
13792394256
13792403045
13792409698
13792417450
13792423919
13792431305
13792441070
13792448333
13792455474
13792462799
13792470245
13792476165
13792484527
13792492034
13792502105
13792507965
13792516143
13792523956
13792532195
13792539459
13792547881
13792554778
13792564239
13792570770
13792579864
13792586028
13792593658
13792603240
13792609405
13792616668
13792624969
13792632232
13792640044
13792650115
13792655486
13792666289
13792672149
13792682952
13792689971
13792698760
13792707000
13792717559
13792724150
13792736480
13792744231
13792755400
13792763640
13792771514
13792778105
13792790557
13792794890
13792805022
13792811125
13792820403
13792829314
13792836516
13792843779
13792851347
13792857573
13792865324
13792871611
13792881438
13792889311
13792896757
13792902617
13792909880
13792918730
13792924711
13792934538
13792940764
13792949858
13792957670
13792965056
13792970122
13792979033
13792985258
13792994108
13793002592
13793008757
13793019255
13793024870
13793032377
13793042387
13793049772
13793056791
13793063932
13793072233
13793079008
13793086393
13793093229
13793099638
13793106596
13793112760
13793123747
13793127836
13793136503
13793142057
13793150663
13793157865
13793165128
13793172025
13793182523
13793190153
13793197660
13793205472
13793213041
13793219450
13793227750
13793236173
13793244108
13793250699
13793259366
13793268339
13793272977
13793281888
13793288053
13793297574
13793305387
13793314786
13793321622
13793330716
13793338102
13793344999
13793352384
13793359952
13793368009
13793375394
13793382535
13793390042
13793396634
13793404691
13793410428
13793419156
13793428739
13793433499
13793437894
13793443082
13793449063
13793453153
13793459927
13793464322
13793472867
13793479031
13793487515
13793494290
13793499051
13793506497
13793509732
13793518948
13793526822
13793534268
13793539700
13793545865
13793550503
13793556424
13793560818
13793566617
13793572232
13793577481
13793582669
13793586392
13793592434
13793597134
13793600918
13793606472
13793610135
13793615567
13793620083
13793625760
13793629910
13793634243
13793638943
13793643399
13793649441
13793655484
13793660122
13793666470
13793671292
13793677212
13793680996
13793685513
13793691372
13793695706
13793701138
13793706631
13793711209
13793716946
13793723293
13793728909
13793735623
13793741543
13793745571
13793750820
13793753811
13793762051
13793766445
13793772305
13793777004
13793783291
13793788052
13793793484
13793798733
13793803860
13793808742
13793814236
13793821316
13793828640
13793833340
13793837795
13793843715
13793848537
13793854580
13793859890
13793864467
13793870693
13793876857
13793882717
13793886684
13793892666
13793897121
13793903774
13793907192
13793914394
13793923305
13793927822
13793934841
13793938991
13793945949
13793950283
13793957302
13793965175
13793970424
13793974636
13793980922
13793985195
13793991786
13793996059
13794003200
13794007839
13794014858
13794019130
13794026332
13794034267
13794040309
13794045619
13794054042
13794061183
13794067836
13794074306
13794081020
13794086696
13794092799
13794098048
13794102870
13794107692
13794114711
13794120143
13794124843
13794129054
13794135402
13794139064
13794145656
13794152431
13794157802
13794160975
13794167933
13794172999
13794178554
13794181727
13794189052
13794196010
13794202723
13794211207
13794216395
13794218959
13794228175
13794232814
13794237941
13794243983
13794248805
13794255213
13794263697
13794270716
13794277491
13794286280
13794293055
13794302271
13794310816
13794316004
13794323878
13794332850
13794340296
13794349635
13794355250
13794364466
13794372584
13794379847
13794387232
13794399195
13794407496
13794417322
13794426783
13794435206
13794443201
13794450281
13794457789
13794464502
13794472132
13794480005
13794488123
13794494898
13794503504
13794511805
13794519434
13794526392
13794534632
13794542261
13794549341
13794557215
13794564478
13794572901
13794578028
13794590418
13794600366
13794607691
13794614893
13794623316
13794629114
13794637170
13794644312
13794651148
13794661646
13794668237
13794675928
13794681726
13794691492
13794696985
13794706933
13794718286
13794727075
13794736230
13794744775
13794754724
13794766565
13794776880
13794785058
13794792382
13794803796
13794811181
13794820764
13794829675
13794836694
13794844201
13794852746
13794861108
13794867456
13794874719
13794882043
13794888757
13794895104
13794901879
13794910790
13794917321
13794925378
13794931786
13794940209
13794947167
13794954552
13794964928
13794972924
13794978478
13794986901
13794993310
13795001305
13795007226
13795013390
13795021630
13795032189
13795042809
13795048668
13795057152
13795066552
13795074181
13795081200
13795089135
13795097741
13795105675
13795113060
13795121727
13795129601
13795137413
13795144066
13795153405
13795159874
13795168480
13795177696
13795188317
13795195641
13795203819
13795210961
13795220360
13795226830
13795236656
13795243736
13795250389
13795257347
13795266258
13795272850
13795281395
13795288048
13795296593
13795303429
13795310448
13795319542
13795325767
13795332115
13795340599
13795346763
13795355736
13795363914
13795370201
13795377464
13795383445
13795394981
13795402122
13795410240
13795416648
13795425621
13795432640
13795442832
13795449363
13795458946
13795465538
13795474998
13795482505
13795489707
13795500022
13795506614
13795516746
13795524741
13795531333
13795540305
13795546592
13795555686
13795564414
13795570945
13795580894
13795590476
13795598838
13795606650
13795612571
13795619590
13795626487
13795630454
13795636802
13795641929
13795648520
13795653647
13795658225
13795664084
13795668784
13795672934
13795680198
13795685141
13795691916
13795697715
13795703635
13795708335
13795713767
13795719626
13795725669
13795730124
13795735739
13795741477
13795745444
13795752402
13795757651
13795762778
13795766989
13795774985
13795781577
13795787619
13795792441
13795798483
13795804587
13795808737
13795815451
13795820212
13795826437
13795832053
13795836569
13795843283
13795848044
13795853293
13795858420
13795864157
13795869528
13795876608
13795882223
13795886923
13795893515
13795899191
13795904867
13795909933
13795915549
13795920492
13795927572
13795932028
13795938864
13795943747
13795948507
13795954916
13795959738
13795965170
13795972372
13795977499
13795981894
13795987997
13795993429
13795999105
13796004965
13796010214
13796015890
13796023214
13796027914
13796033224
13796039572
13796043783
13796050436
13796055746
13796062521
13796067892
13796072836
13796076986
13796084371
13796088461
13796094015
13796100729
13796105367
13796110311
13796117758
13796122762
13796129842
13796136556
13796141866
13796148092
13796154745
13796160604
13796168050
13796172323
13796179220
13796184164
13796191793
13796197774
13796201192
13796208028
13796213949
13796219686
13796223165
13796229635
13796234823
13796241109
13796245565
13796251485
13796257039
13796262655
13796268148
13796273641
13796279317
13796285115
13796289449
13796295430
13796303365
13796308187
13796314229
13796320089
13796324605
13796330403
13796335775
13796341634
13796348714
13796353963
13796360921
13796366292
13796370076
13796376485
13796382588
13796388936
13796394490
13796397786
13796404988
13796411153
13796416707
13796421163
13796426045
13796433736
13796437276
13796443990
13796451131
13796455464
13796461324
13796467061
13796472066
13796477132
13796483235
13796489949
13796498006
13796506795
13796511677
13796523274
13796530293
13796542866
13796550252
13796558247
13796568989
13796576313
13796586873
13796593708
13796602009
13796612019
13796619892
13796624287
13796634663
13796642903
13796651203
13796658528
13796666645
13796673420
13796682331
13796691242
13796697224
13796706806
13796713337
13796723286
13796730244
13796737690
13796745319
13796753498
13796761188
13796769611
13796778400
13796787189
13796795307
13796803425
13796815876
13796823749
13796831867
13796842487
13796849872
13796860187
13796868427
13796876239
13796883442
13796892353
13796901081
13796909626
13796920002
13796927875
13796937580
13796945209
13796952472
13796960590
13796968830
13796977069
13796981769
13796991962
13796998493
13797007953
13797016742
13797023883
13797031085
13797039508
13797049213
13797055743
13797065753
13797073077
13797080585
13797087604
13797096271
13797102740
13797111590
13797120746
13797126971
13797135455
13797142047
13797151996
13797160602
13797167376
13797175494
13797183307
13797192218
13797199481
13797206866
13797214923
13797222552
13797230975
13797238482
13797246539
13797255938
13797264178
13797271197
13797280047
13797286395
13797293658
13797303057
13797310809
13797320513
13797328509
13797335833
13797342364
13797350542
13797360369
13797368304
13797375140
13797383257
13797391436
13797400103
13797404314
13797414751
13797423845
13797429033
13797438433
13797446306
13797453875
13797463152
13797470537
13797476824
13797485430
13797493608
13797501665
13797510271
13797516924
13797526140
13797534197
13797540666
13797549517
13797558550
13797563494
13797573076
13797580644
13797591203
13797598100
13797605486
13797613298
13797621233
13797627947
13797638078
13797645097
13797653703
13797662859
13797671770
13797681596
13797692033
13797700151
13797708757
13797717424
13797726396
13797734697
13797745073
13797750932
13797759782
13797768144
13797776872
13797785905
13797793779
13797800554
13797807878
13797815751
13797823320
13797831864
13797840043
13797844560
13797856462
13797862931
13797871720
13797878190
13797885514
13797894364
13797900163
13797909318
13797915116
13797923966
13797931718
13797941178
13797948441
13797955155
13797961991
13797969987
13797976334
13797985673
13797993302
13798001237
13798008988
13798017289
13798025590
13798032853
13798039383
13798045060
13798049820
13798054276
13798058609
13798062882
13798069779
13798074845
13798080094
13798085709
13798090348
13798094986
13798099686
13798104081
13798108841
13798113419
13798118424
13798124832
13798129959
13798134476
13798139237
13798143875
13798147843
13798153824
13798162003
13798167069
13798169571
13798176773
13798181168
13798186112
13798190811
13798197037
13798201431
13798206986
13798210953
13798217300
13798221207
13798226639
13798231339
13798235855
13798241837
13798247208
13798250687
13798256119
13798260086
13798265701
13798270828
13798276504
13798283340
13798287857
13798293167
13798299454
13798304153
13798312698
13798318863
13798324051
13798332535
13798339065
13798345962
13798350479
13798358719
13798364761
13798369705
13798376968
13798381851
13798387710
13798392044
13798397903
13798402603
13798408828
13798414688
13798420486
13798426223
13798432876
13798437820
13798444351
13798448623
13798453262
13798461929
13798466018
13798472366
13798477554
13798482498
13798485244
13798494216
13798499160
13798504409
13798508498
13798514053
13798518081
13798524490
13798530715
13798536391
13798541946
13798546035
13798551955
13798556411
13798562392
13798566604
13798572707
13798579482
13798584609
13798590285
13798595779
13798598464
13798605849
13798611281
13798617019
13798620131
13798628188
13798632888
13798638015
13798643142
13798649062
13798654860
13798658828
13798663344
13798670424
13798673781
13798679030
13798685378
13798690078
13798697036
13798702101
13798706679
13798715590
13798720168
13798725905
13798730605
13798736891
13798741530
13798746474
13798751174
13798758498
13798763747
13798768569
13798777480
13798785536
13798792189
13798799330
13798806105
13798815566
13798822951
13798830641
13798837599
13798846938
13798854018
13798860670
13798870375
13798880324
13798887953
13798898512
13798906874
13798918348
13798928785
13798937269
13798942091
13798954664
13798964247
13798974318
13798980604
13798991774
13798999647
13799007582
13799016676
13799024244
13799032057
13799039503
13799048475
13799056410
13799062574
13799072828
13799080030
13799089246
13799096510
13799104139
13799112623
13799120313
13799128309
13799135694
13799147108
13799153883
13799161634
13799170911
13799177686
13799185438
13799194349
13799201917
13799211500
13799219129
13799228345
13799235425
13799242383
13799251111
13799259046
13799266492
13799274183
13799283033
13799289075
13799297315
13799303907
13799312574
13799317762
13799328076
13799339002
13799345716
13799356946
13799364148
13799372815
13799381177
13799389600
13799396802
13799406934
13799415723
13799425244
13799431409
13799440442
13799447522
13799456250
13799465161
13799473706
13799481152
13799488293
13799498547
13799504712
13799515759
13799522717
13799533886
13799540051
13799551648
13799559155
13799567334
13799571362
13799584179
13799592419
13799600659
13799607556
13799615795
13799624035
13799635327
13799641125
13799650952
13799660473
13799668530
13799676586
13799686779
13799693127
13799702526
13799712841
13799722179
13799731884
13799741344
13799749340
13799758373
13799763073
13799779003
13799787426
13799795299
13799807201
13799813427
13799823803
13799830211
13799838451
13799846203
13799854259
13799861705
13799870433
13799878246
13799886852
13799895153
13799902233
13799910594
13799919322
13799926952
13799934093
13799945262
13799952098
13799960765
13799967540
13799976756
13799983165
13799991405
13800001659
13800007579
13800017162
13800024913
13800032420
13800041148
13800048717
13800057628
13800064769
13800072276
13800079722
13800086925
13800094615
13800104014
13800110240
13800117015
13800127269
13800133433
13800142100
13800147960
13800157359
13800163768
13800173594
13800180186
13800189891
13800196421
13800204539
13800214488
13800221568
13800233714
13800247080
13800253245
13800260630
13800265940
13800273814
13800279002
13800284068
13800290598
13800296092
13800300303
13800306590
13800311411
13800316782
13800323191
13800329111
13800333933
13800338877
13800346018
13800351145
13800356150
13800362620
13800367930
13800373728
13800378916
13800383860
13800388743
13800394175
13800400339
13800406443
13800412363
13800417490
13800423227
13800429148
13800435679
13800441721
13800445994
13800454111
13800462900
13800467905
13800475412
13800481577
13800487375
13800493296
13800500681
13800508371
13800512155
13800517221
13800522470
13800528025
13800533701
13800538645
13800543039
13800549387
13800555124
13800560251
13800564707
13800570932
13800576486
13800581857
13800587106
13800593820
13800598215
13800604929
13800608957
13800613962
13800619943
13800624155
13800630624
13800635873
13800642099
13800646616
13800652658
13800656808
13800663156
13800667184
13800674692
13800682077
13800688302
13800693124
13800698190
13800705087
13800710397
13800713205
13800722360
13800727731
13800733163
13800736093
13800743966
13800748544
13800755380
13800759835
13800765939
13800772592
13800777414
13800784066
13800788827
13800795663
13800799874
13800806283
13800811471
13800817147
13800824044
13800829232
13800835214
13800840829
13800846200
13800852609
13800856759
13800863107
13800869882
13800874337
13800880807
13800885018
13800892892
13800897469
13800903451
13800906564
13800916207
13800920968
13800926156
13800932626
13800937875
13800943124
13800948312
13800953561
13800960519
13800965646
13800971078
13800975899
13800981148
13800987191
13800992318
13800999093
13801004220
13801010506
13801015267
13801021065
13801026314
13801031868
13801039071
13801046029
13801052987
13801058724
13801064583
13801068062
13801075814
13801082405
13801088753
13801091988
13801102425
13801111885
13801119393
13801125801
13801135018
13801140999
13801149727
13801155770
13801164375
13801170235
13801177559
13801186775
13801195564
13801201485
13801210152
13801216072
13801225044
13801233528
13801239571
13801249336
13801257698
13801265022
13801273628
13801280952
13801292061
13801300117
13801307136
13801317268
13801322639
13801332893
13801339485
13801347908
13801357307
13801365425
13801372566
13801380867
13801390083
13801395149
13801405036
13801413154
13801420356
13801427497
13801437141
13801445503
13801453071
13801460273
13801470527
13801475715
13801486640
13801494392
13801502815
13801511665
13801519721
13801527351
13801536140
13801540351
13801551704
13801561408
13801569526
13801575934
13801584540
13801591193
13801598884
13801608954
13801616767
13801624213
13801632514
13801639655
13801648261
13801656257
13801663215
13801673652
13801680609
13801689032
13801693427
13801706061
13801712470
13801721991
13801728583
13801738959
13801745551
13801755377
13801762152
13801770148
13801779730
13801787482
13801795538
13801803717
13801811102
13801819830
13801827277
13801838019
13801847418
13801856757
13801864996
13801874029
13801881964
13801889410
13801897833
13801910223
13801916815
13801926092
13801934576
13801941046
13801951361
13801957891
13801969976
13801975775
13801985723
13801992376
13802001898
13802009466
13802017462
13802024908
13802033209
13802042364
13802050421
13802054693
13802065740
13802074041
13802082830
13802090276
13802098760
13802107610
13802116644
13802125555
13802136663
13802140935
13802151311
13802157842
13802166448
13802177007
13802187139
13802193426
13802202581
13802208928
13802216619
13802226445
13802233037
13802241033
13802248235
13802258550
13802265081
13802273320
13802282048
13802290715
13802298528
13802304570
13802313481
13802321721
13802331243
13802337895
13802348149
13802358830
13802367192
13802373296
13802382146
13802390630
13802397282
13802406743
13802413152
13802419926
13802430058
13802436162
13802446599
13802454838
13802462407
13802469853
13802478093
13802487126
13802493107
13802502385
13802510685
13802517277
13802527958
13802534428
13802544316
13802551030
13802561161
13802567631
13802577336
13802583866
13802591313
13802601445
13802606022
13802612614
13802617558
13802623173
13802628361
13802634159
13802640751
13802647953
13802652104
13802658940
13802663151
13802669682
13802676945
13802684330
13802691044
13802696720
13802704472
13802710758
13802714909
13802722172
13802727543
13802734562
13802742252
13802746647
13802752811
13802757511
13802763737
13802769047
13802774906
13802780521
13802787052
13802791874
13802797123
13802801761
13802808414
13802812626
13802819156
13802825138
13802830204
13802835941
13802841312
13802847599
13802852848
13802858463
13802863346
13802868534
13802875125
13802879642
13802886173
13802890995
13802896610
13802901981
13802909000
13802914249
13802921146
13802927066
13802932010
13802937259
13802943729
13802949527
13802954837
13802962894
13802966678
13802973331
13802977847
13802984317
13802988284
13802994876
13802998477
13803007449
13803012759
13803017337
13803023135
13803028995
13803034183
13803040408
13803049808
13803055240
13803060123
13803066226
13803071536
13803077273
13803082706
13803088321
13803094790
13803100589
13803107547
13803113101
13803118533
13803125186
13803130435
13803136172
13803144229
13803149356
13803154239
13803160830
13803165530
13803171389
13803177676
13803182742
13803188967
13803194094
13803200625
13803205020
13803210086
13803216860
13803221682
13803229006
13803234133
13803242129
13803247805
13803253298
13803259097
13803264346
13803269656
13803277163
13803283328
13803291750
13803296938
13803300967
13803308230
13803312746
13803319521
13803323672
13803330630
13803335207
13803341921
13803348269
13803353701
13803358279
13803363405
13803368105
13803374819
13803379275
13803385561
13803391115
13803396181
13803400393
13803406374
13803411013
13803419497
13803424440
13803429934
13803436220
13803444155
13803451052
13803459536
13803466616
13803477236
13803482119
13803492861
13803499758
13803509706
13803517092
13803525514
13803533388
13803542055
13803548403
13803559206
13803565920
13803573915
13803580690
13803587892
13803597719
13803605104
13803611635
13803621645
13803628969
13803636720
13803646181
13803654909
13803662050
13803669679
13803679384
13803688295
13803695009
13803701784
13803712098
13803720399
13803727601
13803736207
13803743898
13803751832
13803761293
13803767518
13803777223
13803783998
13803793824
13803801026
13803810670
13803819154
13803826905
13803835206
13803842652
13803849305
13803857972
13803867066
13803875123
13803882508
13803890809
13803899903
13803905946
13803914918
13803924439
13803931031
13803939027
13803948609
13803955628
13803963746
13803972413
13803980347
13803989503
13804000184
13804009278
13804019288
13804026856
13804037598
13804046326
13804053650
13804061829
13804072144
13804083130
13804089539
13804097901
13804107361
13804116822
13804124817
13804135376
13804141174
13804149414
13804157471
13804165344
13804173767
13804179199
13804188355
13804195007
13804203979
13804211365
13804220276
13804227173
13804234009
13804241028
13804249817
13804256653
13804265930
13804273498
13804282287
13804288269
13804297546
13804304565
13804313232
13804318298
13804327575
13804333740
13804345581
13804353515
13804360473
13804369995
13804377380
13804386352
13804393188
13804401550
13804410034
13804417053
13804426025
13804436584
13804446288
13804455077
13804459533
13804471679
13804479919
13804488219
13804495971
13804506347
13804514648
13804524352
13804530761
13804540282
13804548278
13804556029
13804563232
13804572997
13804581298
13804588683
13804596862
13804606383
13804614074
13804621520
13804630370
13804637938
13804646544
13804656310
13804665892
13804673278
13804679564
13804689696
13804695738
13804706114
13804714598
13804722289
13804729552
13804739134
13804747130
13804756590
13804763915
13804773253
13804779051
13804788573
13804799986
13804806456
13804816100
13804826170
13804835448
13804842467
13804852782
13804864378
13804873106
13804883360
13804892637
13804900694
13804908568
13804916014
13804925352
13804930113
13804937071
13804946104
13804950865
13804957273
13804961729
13804967527
13804972227
13804979307
13804985716
13804989744
13804993894
13805000852
13805006224
13805012632
13805017637
13805024107
13805028929
13805034971
13805039488
13805045896
13805050047
13805055967
13805060484
13805068357
13805073118
13805078855
13805083189
13805088621
13805094602
13805098325
13805104917
13805110532
13805116636
13805119993
13805125059
13805130491
13805137327
13805141294
13805149106
13805156858
13805162412
13805167600
13805174375
13805180051
13805185300
13805190793
13805196103
13805202573
13805208066
13805214292
13805220151
13805223996
13805231076
13805235471
13805242063
13805248899
13805255063
13805258786
13805268796
13805274594
13805282041
13805289121
13805295774
13805304257
13805308103
13805316892
13805326169
13805334653
13805338803
13805350644
13805355893
13805366086
13805374753
13805381528
13805386411
13805398434
13805403439
13805413754
13805422055
13805431454
13805438718
13805446042
13805454220
13805463315
13805472958
13805481747
13805489743
13805498349
13805508114
13805516171
13805524472
13805533871
13805538998
13805550106
13805557858
13805565976
13805575192
13805586849
13805595944
13805605953
13805613583
13805617428
13805627316
13805631283
13805640927
13805648190
13805657772
13805665096
13805670467
13805678341
13805685665
13805693905
13805698605
13805708919
13805715877
13805724605
13805732906
13805740536
13805748165
13805754574
13805763058
13805767330
13805776912
13805784725
13805794246
13805803707
13805810543
13805818172
13805824581
13805833004
13805841671
13805847286
13805855281
13805865718
13805873714
13805880855
13805888362
13805896114
13805902339
13805909175
13805918514
13805925899
13805933162
13805942928
13805949153
13805956416
13805962825
13805970516
13805975032
13805985530
13805991878
13806000850
13806009090
13806019710
13806033259
13806042903
13806056392
13806066096
13806076961
13806089717
13806099849
13806109797
13806120356
13806130854
13806142512
13806148738
13806163996
13806173945
13806186518
13806196406
13806210078
13806220820
13806231013
13806243952
13806255366
13806264765
13806274714
13806286372
13806300959
13806311762
13806323054
13806330439
13806342219
13806353205
13806364496
13806375300
13806384821
13806398310
13806407770
13806419550
13806428095
13806439875
13806450129
13806462702
13806472223
13806481134
13806494562
13806503351
13806515375
13806526666
13806538934
13806550287
13806559198
13806566888
13806581293
13806593073
13806601068
13806610101
13806618219
13806626581
13806635492
13806643732
13806654108
13806660150
13806668390
13806676996
13806685357
13806694024
13806702813
13806707208
13806718927
13806725335
13806734063
13806743646
13806748895
13806758905
13806767633
13806776422
13806782708
13806792169
13806799432
13806807061
13806813775
13806823968
13806830010
13806840264
13806849358
13806856744
13806865655
13806873162
13806881768
13806890496
13806898248
13806906548
13806915337
13806923333
13806929864
13806937920
13806947198
13806955559
13806962029
13806971306
13806977959
13806986443
13806996514
13807004204
13807011406
13807018364
13807028496
13807034722
13807043084
13807050835
13807060906
13807067681
13807075920
13807084526
13807092827
13807101006
13807106987
13807115776
13807125786
13807132317
13807139153
13807148552
13807156548
13807162834
13807172783
13807179741
13807189262
13807195854
13807206291
13807212822
13807222954
13807229607
13807239311
13807249321
13807257500
13807265068
13807273613
13807281730
13807293571
13807299308
13807311332
13807318962
13807327079
13807334221
13807344780
13807351249
13807359733
13807370292
13807379081
13807386894
13807395744
13807406608
13807415519
13807424247
13807432365
13807441154
13807448783
13807458366
13807467399
13807476493
13807484977
13807491203
13807500663
13807508109
13807517997
13807524955
13807534720
13807540458
13807550406
13807558890
13807566520
13807574515
13807584159
13807593558
13807600272
13807607657
13807617484
13807625418
13807632987
13807640250
13807645560
13807652091
13807657340
13807662711
13807668204
13807673514
13807680899
13807684806
13807691825
13807697013
13807701529
13807706412
13807712943
13807716727
13807724173
13807730460
13807736685
13807744376
13807750296
13807755301
13807761832
13807767630
13807773611
13807776602
13807785147
13807792837
13807798025
13807805716
13807810721
13807815787
13807822073
13807829520
13807834585
13807840506
13807846976
13807851797
13807858511
13807863333
13807868887
13807874930
13807882010
13807887686
13807894034
13807898672
13807904287
13807911001
13807915091
13807922354
13807927542
13807933401
13807940725
13807946585
13807952749
13807958364
13807965750
13807972341
13807977407
13807983267
13807989309
13807995474
13808002371
13808007376
13808012258
13808020437
13808025991
13808032339
13808037405
13808043874
13808049307
13808055715
13808066824
13808073293
13808079397
13808087026
13808094106
13808101553
13808104177
13808112112
13808118886
13808124990
13808130605
13808137258
13808144704
13808149709
13808154714
13808160756
13808166005
13808171865
13808177846
13808183889
13808187063
13808194265
13808200185
13808204213
13808210317
13808214895
13808219411
13808227040
13808231862
13808238698
13808243215
13808250417
13808254750
13808260549
13808265248
13808271840
13808277150
13808284719
13808289540
13808294118
13808301198
13808305959
13808313466
13808317983
13808323171
13808328175
13808334584
13808341664
13808347035
13808352406
13808357045
13808363576
13808368153
13808375539
13808380482
13808387502
13808393849
13808398610
13808404347
13808409474
13808416371
13808421925
13808429433
13808434559
13808440480
13808447438
13808453541
13808457997
13808464039
13808468922
13808474659
13808481495
13808486928
13808493580
13808497609
13808503834
13808507924
13808515492
13808525196
13808534596
13808542652
13808549183
13808556080
13808565663
13808572010
13808582081
13808589161
13808599049
13808606800
13808614857
13808623280
13808632679
13808641346
13808650196
13808655628
13808666676
13808672230
13808680897
13808690296
13808697071
13808707264
13808714344
13808723072
13808736683
13808743152
13808752796
13808759815
13808768543
13808778492
13808785877
13808796924
13808806202
13808812793
13808822376
13808832874
13808838977
13808848377
13808855945
13808863941
13808871448
13808879322
13808887744
13808895740
13808903674
13808912158
13808920093
13808928150
13808937366
13808946033
13808952686
13808960803
13808969714
13808977893
13808985156
13808994434
13809003589
13809010120
13809019702
13809027209
13809035388
13809045154
13809052539
13809059131
13809067492
13809076892
13809085498
13809091967
13809103198
13809111132
13809119189
13809127002
13809135180
13809144702
13809152941
13809160021
13809168994
13809176135
13809184435
13809195300
13809203478
13809211962
13809220568
13809230639
13809237902
13809247912
13809255419
13809263537
13809270312
13809281176
13809288073
13809296191
13809303149
13809311571
13809320849
13809329027
13809335680
13809344347
13809354052
13809362353
13809371325
13809376879
13809387255
13809396105
13809402636
13809410509
13809420702
13809428209
13809435778
13809443041
13809453417
13809459947
13809468248
13809477098
13809486254
13809495287
13809503588
13809510607
13809518968
13809526048
13809535021
13809543626
13809549486
13809559496
13809567186
13809577257
13809586290
13809595567
13809604478
13809612779
13809619798
13809630968
13809640611
13809650682
13809657701
13809668077
13809675523
13809683580
13809691514
13809699449
13809708421
13809716722
13809723863
13809731980
13809739915
13809748643
13809755052
13809765611
13809772080
13809782823
13809789414
13809798203
13809806748
13809815171
13809822129
13809829392
13809839158
13809845933
13809855271
13809861131
13809872178
13809877549
13809887742
13809894212
13809903001
13809910508
13809921250
13809927598
13809938340
13809944871
13809953476
13809963242
13809971543
13809981308
13809989609
13809996384
13810004563
13810011216
13810020493
13810029038
13810035385
13810044846
13810050766
13810060532
13810065659
13810072556
13810079636
13810086228
13810091110
13810097214
13810104538
13810110703
13810118454
13810123520
13810129746
13810135605
13810140854
13810148239
13810153183
13810159714
13810164352
13810169479
13810177231
13810181869
13810187302
13810194565
13810200180
13810204391
13810211899
13810217087
13810223190
13810226364
13810234482
13810237778
13810246628
13810251632
13810259384
13810264023
13810270370
13810275009
13810280685
13810288498
13810294174
13810299118
13810305832
13810311203
13810316635
13810322616
13810328048
13810334457
13810339889
13810347091
13810355880
13810363510
13810370040
13810377243
13810384567
13810390426
13810396224
13810402206
13810407821
13810413558
13810416793
13810427291
13810432174
13810438094
13810443649
13810449752
13810453292
13810460799
13810466476
13810471725
13810476974
13810481612
13810488143
13810494186
13810500899
13810505721
13810512496
13810517318
13810521834
13810531234
13810538131
13810542220
13810546859
13810553817
13810560225
13810565230
13810572432
13810576278
13810583114
13810587813
13810595626
13810599837
13810607039
13810611434
13810617171
13810624434
13810630233
13810635176
13810639876
13810648116
13810654463
13810657820
13810665511
13810669112
13810677657
13810682784
13810689253
13810694869
13810701888
13810706893
13810712142
13810717330
13810723067
13810729048
13810735762
13810741072
13810747054
13810753279
13810758955
13810765364
13810771407
13810776533
13810781233
13810787642
13810793135
13810801436
13810806258
13810812239
13810817488
13810824446
13810829512
13810834395
13810841841
13810847029
13810852827
13810858931
13810864363
13810869551
13810876082
13810882673
13810888716
13810895124
13810901777
13810907637
13810913313
13810919233
13810925703
13810932234
13810936445
13810944197
13810950544
13810956159
13810964582
13810970747
13810980146
13810990705
13810998701
13811009626
13811019697
13811028669
13811039594
13811047285
13811055402
13811062360
13811074445
13811083173
13811091413
13811100019
13811108320
13811115644
13811124006
13811130536
13811140546
13811147138
13811157880
13811165815
13811174115
13811180646
13811189191
13811195722
13811205121
13811214276
13811220685
13811230390
13811237592
13811247113
13811254438
13811263837
13811270612
13811280316
13811286420
13811296063
13811303571
13811313214
13811320538
13811327985
13811337262
13811344769
13811352643
13811361493
13811368939
13811378522
13811386090
13811395550
13811405133
13811412274
13811422040
13811431195
13811440350
13811447613
13811456158
13811464337
13811472882
13811483441
13811492779
13811499798
13811508526
13811516583
13811525738
13811533490
13811541729
13811551068
13811560528
13811569378
13811577435
13811585430
13811593914
13811603130
13811607952
13811618816
13811626019
13811637859
13811647686
13811656048
13811664532
13811673138
13811680279
13811688396
13811697491
13811705669
13811712383
13811721233
13811731182
13811739544
13811746868
13811754802
13811759136
13811775188
13811781597
13811791851
13811798687
13811808818
13811814495
13811825847
13811837505
13811846599
13811854961
13811862529
13811871440
13811879863
13811888408
13811896770
13811902934
13811912212
13811920268
13811928752
13811936687
13811941325
13811953349
13811963237
13811970744
13811978923
13811985820
13811993144
13812003154
13812011027
13812018535
13812026774
13812036235
13812043620
13812053080
13812061320
13812068034
13812074992
13812085124
13812092204
13812101420
13812110942
13812118144
13812128154
13812135234
13812144450
13812153117
13812161662
13812170817
13812179606
13812187357
13812196818
13812204142
13812214640
13812221903
13812230021
13812238200
13812248148
13812256632
13812263956
13812274760
13812281412
13812291117
13812298929
13812306315
13812313822
13812321512
13812332499
13812339457
13812347086
13812354899
13812363932
13812372355
13812381327
13812390909
13812397623
13812406351
13812413492
13812417887
13812424845
13812430338
13812436563
13812442057
13812448099
13812452127
13812457315
13812465799
13812473062
13812478983
13812485391
13812491678
13812496561
13812501932
13812508524
13812513834
13812521829
13812527689
13812535806
13812540506
13812553384
13812557962
13812567361
13812573892
13812579996
13812585916
13812592935
13812602945
13812610452
13812616373
13812623331
13812629251
13812633279
13812639566
13812642862
13812650613
13812655435
13812662027
13812667154
13812673990
13812678445
13812682840
13812689004
13812693521
13812700540
13812706155
13812712258
13812716958
13812723672
13812729470
13812735391
13812740090
13812746926
13812753213
13812759133
13812762429
13812770913
13812776284
13812782388
13812788674
13812794473
13812799905
13812805703
13812812661
13812818032
13812822549
13812829385
13812834206
13812839028
13812846230
13812855019
13812859963
13812866128
13812873086
13812876992
13812884011
13812890603
13812896462
13812901406
13812907570
13812913430
13812919350
13812925698
13812931252
13812936135
13812941567
13812946511
13812952492
13812957436
13812964150
13812970070
13812973793
13812980507
13812985268
13812990944
13812996987
13813001931
13813007363
13813014321
13813018288
13813025673
13813029640
13813035744
13813042031
13813046669
13813053444
13813059181
13813063515
13813068947
13813074623
13813081032
13813085182
13813090004
13813097206
13813103554
13813108681
13813113686
13813120155
13813125404
13813130837
13813136635
13813144081
13813151588
13813158424
13813163307
13813169960
13813175941
13813182960
13813188087
13813195351
13813200722
13813206764
13813209877
13813218788
13813223610
13813230018
13813234230
13813240394
13813245399
13813253151
13813258278
13813265236
13813269935
13813274879
13813281776
13813287513
13813294532
13813302528
13813309791
13813317237
13813326210
13813331275
13813340431
13813346412
13813356788
13813364540
13813372535
13813380103
13813388160
13813395606
13813403907
13813410377
13813420326
13813426978
13813435706
13813445777
13813452064
13813461646
13813469276
13813476905
13813482642
13813492652
13813499061
13813509681
13813517615
13813524817
13813532386
13813540503
13813545081
13813556434
13813563147
13813572059
13813581641
13813587989
13813597083
13813605811
13813612342
13813620459
13813628089
13813636450
13813646155
13813654029
13813661719
13813668006
13813676123
13813684058
13813692542
13813700781
13813708655
13813715186
13813724158
13813730689
13813740515
13813746802
13813757300
13813766638
13813771948
13813781531
13813788061
13813798132
13813806189
13813813940
13813821264
13813830908
13813837073
13813845129
13813853308
13813861670
13813871191
13813879675
13813884253
13813895544
13813903418
13813912023
13813918493
13813929907
