13979561624
13979567849
13979573831
13979580423
13979585794
13979590982
13979597818
13979604654
13979611612
13979618753
13979624917
13979631265
13979638284
13979644204
13979649026
13979655190
13979661538
13979666360
13979672341
13979677102
13979682900
13979689431
13979694436
13979701089
13979706826
13979712014
13979718423
13979725137
13979732278
13979738137
13979744241
13979750954
13979755532
13979763222
13979770425
13979777932
13979784463
13979791726
13979798989
13979806069
13979812356
13979819253
13979827920
13979834084
13979842080
13979852150
13979859353
13979866188
13979873085
13979877846
13979886269
13979892495
13979898049
13979903481
13979910500
13979917336
13979924233
13979928810
13979935402
13979942116
13979946877
13979954140
13979960732
13979966591
13979973244
13979978737
13979984352
13979991371
13979997902
13980002785
13980011147
13980018349
13980024330
13980033546
13980040688
13980046730
13980054481
13980062172
13980069130
13980075294
13980080910
13980088783
13980095070
13980100319
13980106727
13980113685
13980119240
13980126198
13980133461
13980138588
13980146034
13980152748
13980161415
13980168617
13980178444
13980185951
13980192848
13980200904
13980207191
13980214698
13980221839
13980227821
13980235450
13980238929
13980246925
13980255592
13980261756
13980268653
13980276954
13980282142
13980287940
13980297828
13980303993
13980310890
13980317786
13980324500
13980330665
13980338660
13980344642
13980350928
13980356971
13980365089
13980370948
13980376441
13980382117
13980389686
13980394996
13980403785
13980411231
13980418433
13980427283
13980433631
13980439734
13980445777
13980451636
13980457740
13980465735
13980470679
13980477637
13980482703
13980489600
13980495826
13980502600
13980507910
13980514807
13980522132
13980526709
13980533362
13980537757
13980546179
13980551551
13980559729
13980564612
13980571692
13980577002
13980584204
13980591712
13980597876
13980605994
13980612952
13980619238
13980625342
13980632727
13980638770
13980645361
13980651587
13980658606
13980664770
13980671789
13980677771
13980684912
13980690710
13980696142
13980704870
13980710974
13980717749
13980724524
13980731543
13980737951
13980743506
13980752173
13980758276
13980766638
13980773657
13980779699
13980785864
13980792944
13980801916
13980807836
13980815649
13980822546
13980829504
13980837438
13980844702
13980850134
13980857397
13980864294
13980871130
13980877416
13980883520
13980889257
13980894872
13980901525
13980907690
13980913122
13980921240
13980927709
13980933569
13980939794
13980945837
13980954198
13980960241
13980967138
13980973485
13980980016
13980988012
13980994970
13981001806
13981009801
13981016881
13981024206
13981031591
13981038488
13981045141
13981049779
13981055455
13981058873
13981067052
13981071019
13981078222
13981082250
13981087926
13981092687
13981097020
13981101903
13981107213
13981110875
13981115453
13981120641
13981126256
13981131749
13981136815
13981141454
13981148717
13981153844
13981158849
13981162938
13981167577
13981171788
13981176915
13981181554
13981188512
13981194127
13981198399
13981203282
13981208226
13981212743
13981219029
13981223790
13981230138
13981234532
13981240880
13981245152
13981250645
13981256383
13981259801
13981266576
13981272008
13981277074
13981282689
13981287633
13981293065
13981300816
13981304234
13981311070
13981316502
13981321263
13981324925
13981330906
13981337193
13981342625
13981347081
13981353795
13981360447
13981368260
13981376316
13981384861
13981390232
13981396641
13981401219
13981407139
13981412449
13981416355
13981421849
13981425938
13981430882
13981436863
13981441502
13981447544
13981454075
13981459019
13981464512
13981468296
13981473972
13981478123
13981484165
13981489903
13981494541
13981498753
13981504490
13981509190
13981516331
13981520847
13981525974
13981531345
13981538181
13981543369
13981551182
13981556248
13981561497
13981567051
13981573826
13981579502
13981584507
13981589817
13981596165
13981600742
13981606418
13981612522
13981617405
13981622593
13981631016
13981635959
13981641514
13981646213
13981652866
13981658359
13981663974
13981669712
13981674778
13981681797
13981687229
13981693393
13981699070
13981706211
13981713657
13981719821
13981724643
13981731967
13981735263
13981743503
13981748691
13981755893
13981760654
13981766086
13981771884
13981776706
13981784702
13981790073
13981795749
13981800205
13981806552
13981813449
13981817905
13981824191
13981829318
13981834079
13981842319
13981846957
13981852573
13981857761
13981862094
13981869479
13981877902
13981885348
13981892856
13981900180
13981904391
13981917819
13981925937
13981932528
13981939670
13981951693
13981957980
13981965792
13981974826
13981983981
13981990634
13982000338
13982007052
13982015292
13982023776
13982037387
13982045321
13982055148
13982063204
13982070406
13982079806
13982088717
13982095248
13982104891
13982110751
13982119051
13982126437
13982134859
13982141878
13982149935
13982157687
13982165011
13982171664
13982178805
13982186434
13982193758
13982199862
13982207186
13982215792
13982223360
13982230990
13982238497
13982244722
13982252413
13982261934
13982269259
13982280428
13982287691
13982296236
13982304354
13982312105
13982319612
13982325899
13982334688
13982343599
13982351290
13982357149
13982363436
13982371980
13982381075
13982387239
13982394380
13982403169
13982409639
13982418062
13982424104
13982432588
13982438509
13982447542
13982455904
13982463533
13982469575
13982477510
13982484834
13982492097
13982499116
13982508272
13982514802
13982523530
13982531282
13982538911
13982546296
13982553560
13982559663
13982568513
13982574617
13982581330
13982589936
13982597688
13982603547
13982611787
13982619477
13982627717
13982635652
13982643952
13982651399
13982659089
13982667695
13982675507
13982681611
13982687959
13982697602
13982704011
13982714021
13982722382
13982730561
13982737641
13982745026
13982752473
13982761384
13982769929
13982778351
13982789094
13982794404
13982804596
13982811921
13982820588
13982828217
13982836213
13982844269
13982852509
13982861176
13982868927
13982875763
13982883088
13982888947
13982897553
13982905976
13982914337
13982922638
13982927582
13982936859
13982943573
13982952728
13982958100
13982966705
13982974884
13982981598
13982990265
13982997589
13983005585
13983012848
13983019623
13983029022
13983035004
13983042816
13983051117
13983058929
13983066681
13983072174
13983080292
13983088104
13983094635
13983108673
13983115936
13983122772
13983130462
13983138641
13983146209
13983154022
13983162262
13983169647
13983176788
13983184906
13983192108
13983199676
13983205535
13983213592
13983221343
13983229034
13983237213
13983244781
13983250640
13983257903
13983267059
13983274322
13983281097
13983288604
13983297271
13983303924
13983310210
13983314971
13983322417
13983325774
13983333099
13983337188
13983343536
13983349334
13983355804
13983362334
13983366790
13983371856
13983377166
13983384307
13983389800
13983397002
13983400969
13983406280
13983412261
13983418670
13983424163
13983430144
13983435882
13983442412
13983448516
13983455291
13983460967
13983465300
13983470244
13983477752
13983482451
13983489226
13983496489
13983502471
13983508208
13983514373
13983521086
13983527678
13983533782
13983538481
13983544829
13983550749
13983557768
13983563384
13983569548
13983575224
13983580351
13983583281
13983589995
13983594634
13983599455
13983605437
13983609526
13983615141
13983618864
13983624541
13983630339
13983635344
13983640837
13983646208
13983651701
13983656523
13983662382
13983668059
13983675505
13983680571
13983684660
13983689055
13983695952
13983701201
13983707121
13983711821
13983717070
13983724333
13983728850
13983735319
13983740446
13983746550
13983750761
13983756620
13983763456
13983771208
13983777006
13983781462
13983787870
13983793119
13983797941
13983805998
13983810758
13983816557
13983821684
13983827177
13983832365
13983838835
13983845060
13983851469
13983856779
13983858305
13983867643
13983873380
13983879240
13983885099
13983890287
13983894987
13983900175
13983907499
13983913358
13983920377
13983925932
13983931486
13983936918
13983942350
13983946317
13983953397
13983959440
13983965543
13983968778
13983976530
13983982999
13983987577
13983992277
13983998380
13984005887
13984009794
13984017667
13984022611
13984028470
13984035306
13984040677
13984045011
13984051297
13984056668
13984063321
13984068753
13984075101
13984078580
13984086331
13984090848
13984096463
13984104886
13984113919
13984118497
13984125638
13984132169
13984139981
13984143643
13984152066
13984159024
13984167020
13984171842
13984177457
13984182401
13984188748
13984193570
13984200772
13984209439
13984216458
13984225735
13984232510
13984239163
13984247586
13984254849
13984262112
13984270840
13984278653
13984287198
13984295621
13984303799
13984311856
13984320584
13984328274
13984334927
13984343411
13984349698
13984359341
13984367337
13984374905
13984383755
13984391079
13984397061
13984407742
13984413845
13984422329
13984430447
13984438931
13984448025
13984454128
13984460903
13984469631
13984479397
13984486416
13984495815
13984503140
13984510708
13984518215
13984526272
13984533718
13984542080
13984549404
13984558498
13984564907
13984575039
13984581386
13984590297
13984596645
13984604152
13984613796
13984620571
13984630764
13984639675
13984647792
13984654873
13984662807
13984669887
13984678005
13984685573
13984697475
13984705898
13984710720
13984722133
13984732509
13984740932
13984745326
13984756679
13984765102
13984773708
13984778102
13984789699
13984793910
13984805019
13984811488
13984819484
13984829127
13984835231
13984844447
13984852077
13984859340
13984866054
13984875087
13984882289
13984891749
13984897365
13984907557
13984916102
13984926234
13984933802
13984942286
13984951686
13984960109
13984967189
13984977626
13984984584
13984993067
13985000697
13985008753
13985015895
13985024439
13985032618
13985040125
13985046961
13985054347
13985062830
13985067713
13985076807
13985083521
13985092310
13985098536
13985107569
13985113306
13985121973
13985129298
13985136622
13985144923
13985151697
13985158839
13985165613
13985172999
13985181299
13985189112
13985196558
13985203943
13985211756
13985218836
13985227320
13985233973
13985243555
13985250208
13985259974
13985266138
13985275415
13985282495
13985290735
13985300074
13985305689
13985314234
13985322962
13985331262
13985339990
13985348413
13985352747
13985362940
13985373193
13985379297
13985386011
13985395654
13985404932
13985410181
13985420129
13985426538
13985435998
13985444604
13985452600
13985459863
13985467798
13985475122
13985486230
13985493188
13985501855
13985510827
13985517114
13985526086
13985534875
13985542199
13985551049
13985557519
13985565576
13985575585
13985581262
13985591088
13985599938
13985607324
13985613671
13985622094
13985631310
13985639611
13985644128
13985654199
13985661340
13985669030
13985673669
13985680016
13985684655
13985691552
13985696740
13985702111
13985708947
13985714562
13985720299
13985726220
13985732873
13985740624
13985746300
13985753869
13985759484
13985766015
13985771081
13985778527
13985786278
13985793480
13985799889
13985806725
13985813866
13985820397
13985826073
13985832360
13985836693
13985841393
13985846276
13985851036
13985855736
13985860436
13985865319
13985869835
13985874352
13985878807
13985882958
13985887413
13985891625
13985896324
13985900841
13985905602
13985907738
13985915550
13985920738
13985924828
13985929711
13985934654
13985941307
13985946007
13985950768
13985956017
13985960350
13985965477
13985969933
13985975060
13985981529
13985985374
13985991539
13985997276
13986002220
13986006615
13986013390
13986017662
13986024437
13986029991
13986035118
13986040245
13986046654
13986051353
13986055931
13986060448
13986066612
13986072960
13986077598
13986083397
13986087852
13986092430
13986098228
13986103172
13986109764
13986115684
13986120567
13986126915
13986131797
13986136924
13986142112
13986147972
13986153343
13986158775
13986163780
13986169456
13986174095
13986179405
13986183921
13986189048
13986196067
13986201011
13986206993
13986212242
13986216270
13986221031
13986227317
13986231407
13986240928
13986246177
13986251914
13986255454
13986262656
13986269370
13986273032
13986280051
13986286826
13986291709
13986298911
13986304160
13986310203
13986315452
13986320274
13986325034
13986329612
13986335288
13986339561
13986343650
13986347495
13986352927
13986356650
13986361411
13986365684
13986371787
13986376365
13986381247
13986387290
13986390830
13986396323
13986401206
13986408469
13986412375
13986418357
13986422629
13986429038
13986432944
13986438193
13986445212
13986454306
13986459677
13986468894
13986475608
13986481955
13986488242
13986495078
13986503012
13986511435
13986518759
13986526267
13986533225
13986541770
13986548972
13986556418
13986562460
13986572775
13986579428
13986588339
13986594870
13986603659
13986609702
13986617941
13986627280
13986633810
13986642905
13986648947
13986657675
13986663473
13986672445
13986678732
13986687582
13986693319
13986703695
13986709311
13986719015
13986725485
13986732809
13986740011
13986746969
13986753378
13986762960
13986765036
13986776693
13986782247
13986790914
13986796469
13986804525
13986812399
13986821371
13986829428
13986836813
13986843527
13986850363
13986855978
13986865011
13986871420
13986879842
13986887655
13986895345
13986902608
13986909627
13986916402
13986923849
13986930074
13986941732
13986946065
13986955709
13986964620
13986972555
13986980611
13986988546
13986994710
13987004232
13987010640
13987020101
13987026143
13987033284
13987039266
13987046041
13987055867
13987064962
13987070821
13987078450
13987087972
13987092671
13987101583
13987108235
13987117208
13987122212
13987131429
13987138448
13987144978
13987153706
13987166768
13987184041
13987197835
13987206502
13987216389
13987227071
13987234944
13987245442
13987260151
13987269124
13987276387
13987284749
13987292866
13987298604
13987305928
13987312886
13987320881
13987324727
13987334492
13987339375
13987346821
13987352620
13987360615
13987366047
13987373493
13987380146
13987385029
13987392475
13987400105
13987406941
13987412434
13987420796
13987427204
13987434101
13987439839
13987446491
13987453571
13987460713
13987467426
13987475605
13987482624
13987488361
13987497761
13987504169
13987511738
13987519123
13987525715
13987534260
13987539997
13987548847
13987556476
13987560993
13987569233
13987574909
13987583271
13987590839
13987596515
13987605976
13987611652
13987617572
13987626545
13987633197
13987640033
13987649189
13987655475
13987661945
13987671405
13987677936
13987688190
13987694477
13987704425
13987710651
13987721149
13987727252
13987737262
13987745807
13987753131
13987760394
13987769000
13987774249
13987783344
13987791156
13987797809
13987805621
13987811359
13987817462
13987822589
13987829059
13987832782
13987838214
13987842242
13987846393
13987851947
13987855426
13987861163
13987865741
13987872455
13987878314
13987883746
13987888629
13987893084
13987897296
13987901812
13987906268
13987914080
13987918170
13987923907
13987928668
13987933551
13987938494
13987943743
13987948809
13987952655
13987957965
13987962359
13987969012
13987974627
13987979937
13987985675
13987989703
13987995867
13988000933
13988004717
13988008868
13988016131
13988021319
13988026324
13988031756
13988036334
13988042742
13988046832
13988054278
13988059405
13988065752
13988070452
13988075945
13988084551
13988089861
13988095721
13988101458
13988106768
13988111407
13988116656
13988120928
13988126055
13988131548
13988136431
13988141192
13988146380
13988150896
13988155108
13988161211
13988165911
13988173418
13988178972
13988185686
13988190874
13988197222
13988202410
13988205584
13988211016
13988216387
13988221209
13988225481
13988232744
13988237505
13988244463
13988248735
13988254351
13988258135
13988268694
13988270891
13988278887
13988285234
13988292559
13988300188
13988306230
13988313005
13988319231
13988324236
13988330034
13988334123
13988340227
13988346147
13988350542
13988354936
13988362260
13988368303
13988372820
13988378496
13988382524
13988388445
13988392351
13988400102
13988404558
13988410539
13988414506
13988420122
13988424455
13988431108
13988435747
13988440629
13988446916
13988452836
13988457231
13988462724
13988468583
13988473588
13988479143
13988485307
13988490495
13988496049
13988500932
13988505143
13988512712
13988516679
13988521989
13988526933
13988534074
13988539628
13988544999
13988549089
13988555070
13988560136
13988565812
13988570085
13988577531
13988583390
13988588700
13988593217
13988599443
13988605546
13988608842
13988615006
13988621354
13988631913
13988638749
13988648942
13988655106
13988662125
13988671220
13988679337
13988687821
13988696061
13988701554
13988709428
13988713456
13988724625
13988733658
13988740494
13988748307
13988757950
13988765214
13988770341
13988780594
13988788956
13988796525
13988802384
13988809830
13988818131
13988826004
13988834488
13988841568
13988848221
13988857193
13988865006
13988870987
13988880081
13988887345
13988894242
13988902054
13988909012
13988916397
13988927139
13988935501
13988942032
13988949417
13988960098
13988968033
13988976822
13988984879
13988995010
13989001114
13989008377
13989018631
13989027969
13989034500
13989042373
13989049942
13989058853
13989067215
13989074844
13989081070
13989089004
13989095657
13989102920
13989110489
13989116958
13989122940
13989132278
13989139297
13989148452
13989155349
13989162673
13989168899
13989176223
13989182754
13989191177
13989197097
13989205093
13989212051
13989219375
13989228042
13989232986
13989241775
13989249404
13989257522
13989265884
13989273025
13989279189
13989288161
13989294753
13989303481
13989307754
13989318130
13989326919
13989333999
13989340835
13989350783
13989357497
13989364577
13989371840
13989380446
13989388198
13989396132
13989403273
13989409255
13989418288
13989426589
13989434523
13989441481
13989449660
13989458205
13989466017
13989472609
13989482558
13989488967
13989494582
13989503737
13989510451
13989520033
13989526015
13989533278
13989542067
13989550368
13989555983
13989564162
13989572096
13989580214
13989587904
13989597609
13989606032
13989614699
13989621535
13989629347
13989633925
13989644240
13989652174
13989658156
13989668287
13989674086
13989683363
13989689650
13989697584
13989706923
13989714918
13989723402
13989732862
13989739943
13989748060
13989758436
13989766676
13989775587
13989783583
13989790846
13989801771
13989809278
13989816602
13989823133
13989832472
13989840528
13989847608
13989855360
13989863172
13989870741
13989878126
13989884962
13989891676
13989898695
13989906812
13989913831
13989922315
13989928297
13989935438
13989943006
13989950696
13989957471
13989962903
13989968885
13989977857
13989984815
13989992444
13990001355
13990011853
13990016431
13990026014
13990032911
13990042676
13990048535
13990053662
13990058728
13990064038
13990068189
13990074842
13990080396
13990085034
13990088819
13990094800
13990099195
13990104810
13990109509
13990115186
13990119031
13990124097
13990130078
13990135877
13990140088
13990145520
13990152539
13990157971
13990163220
13990169141
13990174695
13990178601
13990186169
13990191113
13990196912
13990202222
13990207837
13990213086
13990220044
13990224866
13990231396
13990235913
13990242383
13990247326
13990252820
13990257886
13990264844
13990270581
13990275891
13990282177
13990286816
13990293042
13990298718
13990304394
13990309643
13990314221
13990320141
13990324963
13990331860
13990336987
13990342053
13990348217
13990353466
13990360180
13990367504
13990373425
13990379284
13990385266
13990390759
13990393994
13990404431
13990409191
13990416332
13990422680
13990429882
13990436779
13990443249
13990449291
13990454296
13990459301
13990464428
13990469433
13990474133
13990480236
13990484081
13990488354
13990496044
13990500011
13990506664
13990513012
13990518444
13990522838
13990528087
13990532543
13990538769
13990544079
13990549450
13990553539
13990559276
13990564098
13990569530
13990576061
13990581310
13990586864
13990593090
13990598461
13990603649
13990609874
13990615673
13990621166
13990625927
13990631786
13990636486
13990642162
13990649120
13990653514
13990659984
13990665172
13990671215
13990676403
13990683605
13990691722
13990696849
13990702342
13990709361
13990714244
13990719249
13990724925
13990731273
13990736034
13990742076
13990746593
13990752696
13990757701
13990763377
13990767406
13990773997
13990779674
13990788402
13990793651
13990800853
13990805308
13990809398
13990815379
13990820079
13990826793
13990830150
13990837169
13990842296
13990848582
13990852855
13990859752
13990865367
13990871653
13990878062
13990884044
13990890269
13990896739
13990905650
13990912730
13990918528
13990926524
13990934397
13990943248
13990947642
13990957347
13990966014
13990974925
13990979319
13990989085
13990995493
13991005686
13991016612
13991025950
13991035532
13991043162
13991055430
13991068613
13991078196
13991083750
13991092600
13991099985
13991108225
13991115244
13991121714
13991128184
13991137278
13991142283
13991149485
13991156321
13991163401
13991170176
13991177744
13991181955
13991193064
13991201670
13991207529
13991213938
13991223764
13991229990
13991235666
13991245615
13991252024
13991261423
13991268686
13991275095
13991280100
13991290048
13991295175
13991303049
13991311838
13991320200
13991326914
13991334238
13991342966
13991350412
13991358408
13991368723
13991376291
13991381906
13991391672
13991398447
13991406198
13991415903
13991422006
13991428293
13991439035
13991448190
13991456247
13991464120
13991472360
13991480295
13991487741
13991496896
13991504464
13991513131
13991520394
13991527536
13991536691
13991545297
13991553842
13991561837
13991570199
13991578561
13991586007
13991595651
13991601022
13991609322
13991617562
13991626962
13991634652
13991642587
13991650338
13991657479
13991667001
13991674325
13991684151
13991692696
13991698678
13991705453
13991714364
13991722603
13991730050
13991739083
13991746895
13991755318
13991765267
13991773751
13991785592
13991792000
13991804390
13991811837
13991825569
13991833199
13991843331
13991850655
13991859200
13991865914
13991874825
13991880989
13991889778
13991896004
13991904854
13991912483
13991921272
13991927986
13991936958
13991942574
13991951851
13991959663
13991968452
13991976326
13991982185
13991990120
13991999214
13992005562
13992015266
13992021675
13992031380
13992038765
13992048286
13992055916
13992065986
13992073005
13992080513
13992090034
13992097541
13992104072
13992112922
13992121894
13992130683
13992138618
13992146858
13992154609
13992162788
13992172676
13992181098
13992188484
13992196845
13992205695
13992213935
13992221504
13992229987
13992236701
13992245918
13992252570
13992260566
13992270087
13992278205
13992286811
13992291999
13992298896
13992304328
13992309516
13992315925
13992323005
13992328010
13992333259
13992338874
13992345221
13992349494
13992355292
13992361335
13992369574
13992375251
13992380439
13992385932
13992392707
13992397712
13992403266
13992408942
13992415534
13992421210
13992426825
13992433661
13992437934
13992442267
13992448920
13992454901
13992461798
13992466193
13992472968
13992477606
13992484931
13992489447
13992495795
13992501654
13992506110
13992514044
13992518866
13992526801
13992531439
13992539130
13992545477
13992551154
13992555914
13992563910
13992570685
13992575629
13992581122
13992585882
13992590338
13992596991
13992603155
13992609198
13992613837
13992619879
13992624151
13992630804
13992635016
13992641730
13992645575
13992654364
13992660284
13992665533
13992671515
13992677069
13992681891
13992688971
13992694220
13992700506
13992706060
13992711615
13992717413
13992723150
13992728826
13992734625
13992739508
13992747015
13992752264
13992757757
13992762274
13992768255
13992775213
13992781072
13992785589
13992792791
13992797552
13992804327
13992808904
13992813543
13992819952
13992825567
13992832220
13992838689
13992843267
13992848394
13992854864
13992860357
13992866216
13992871709
13992878423
13992882818
13992889287
13992895147
13992901189
13992907354
13992915288
13992920659
13992925542
13992931280
13992937444
13992941656
13992948247
13992953496
13992960271
13992965764
13992971013
13992977971
13992984136
13992989324
13992996038
13993000798
13993007512
13993012273
13993019353
13993024724
13993031804
13993038396
13993043340
13993050115
13993054936
13993062505
13993067571
13993075566
13993080266
13993086919
13993091619
13993099065
13993105901
13993114018
13993119206
13993126225
13993133122
13993138249
13993145634
13993149602
13993156804
13993162541
13993170903
13993179082
13993186528
13993195378
13993204594
13993211003
13993220097
13993227177
13993234013
13993242436
13993249882
13993258427
13993265873
13993274907
13993282414
13993290898
13993298161
13993307927
13993317509
13993324345
13993331791
13993340702
13993348149
13993357365
13993364933
13993373905
13993382023
13993389164
13993399357
13993407047
13993414494
13993422978
13993431095
13993435551
13993446354
13993453556
13993462040
13993471012
13993479313
13993488102
13993496464
13993500736
13993510929
13993520756
13993529056
13993536136
13993545170
13993551822
13993558963
13993568363
13993575626
13993585209
13993591556
13993601261
13993608585
13993617862
13993625553
13993633243
13993640750
13993650455
13993658206
13993665714
13993672733
13993682804
13993689945
13993698428
13993706851
13993715152
13993723453
13993731632
13993739505
13993747867
13993756717
13993765079
13993773135
13993781253
13993788394
13993796878
13993803531
13993812991
13993819461
13993827151
13993836673
13993846072
13993852603
13993860415
13993870242
13993879031
13993885501
13993893740
13993903079
13993910525
13993918338
13993926821
13993937319
13993944644
13993953005
13993963259
13993972048
13993980715
13993990664
13993999331
13994009341
13994017092
13994023989
13994029971
13994039309
13994046023
13994054263
13994062136
13994071780
13994079958
13994087221
13994097231
13994104800
13994115359
13994123354
13994130922
13994139040
13994144472
13994156252
13994165529
13994174440
13994182314
13994190371
13994198061
13994204348
13994213747
13994221987
13994229311
13994237306
13994244142
13994253420
13994259523
13994268556
13994275087
13994285036
13994292116
13994302370
13994309816
13994319765
13994325746
13994336366
13994342226
13994350526
13994358949
13994367738
13994374940
13994384096
13994393251
13994401857
13994408754
13994416994
13994423402
13994432924
13994441346
13994447511
13994456178
13994463929
13994469972
13994477235
13994487062
13994493837
13994502748
13994509828
13994520753
13994528443
13994536439
13994541322
13994550416
13994557557
13994566773
13994573365
13994582398
13994589112
13994596070
13994604127
13994610841
13994617310
13994627259
13994632203
13994638306
13994643739
13994649171
13994654542
13994659669
13994665162
13994671021
13994677003
13994682435
13994685548
13994692383
13994699280
13994703797
13994708497
13994714844
13994723084
13994730835
13994739136
13994746338
13994752503
13994757996
13994763489
13994769471
13994775391
13994782105
13994786805
13994791870
13994796692
13994803223
13994809754
13994814881
13994819214
13994828186
13994832276
13994837891
13994842102
13994847840
13994853577
13994859253
13994865051
13994868714
13994874939
13994880188
13994885498
13994891235
13994896729
13994900391
13994906921
13994913147
13994918945
13994925171
13994930420
13994935181
13994941223
13994946716
13994952759
13994958740
13994964661
13994969543
13994975769
13994982483
13994988037
13994991760
13994999267
13995004455
13995009338
13995016296
13995021423
13995026306
13995032226
13995037597
13995042297
13995049377
13995053894
13995059936
13995065796
13995071716
13995077758
13995083374
13995087890
13995093994
13995103637
13995110534
13995116699
13995123657
13995129516
13995135192
13995138244
13995146545
13995149536
13995158813
13995165038
13995170715
13995176635
13995182433
13995188903
13995194640
13995197997
13995205322
13995210449
13995216003
13995220519
13995228393
13995231384
13995241759
13995246276
13995252563
13995260680
13995267211
13995271789
13995276427
13995282897
13995287536
13995294005
13995299132
13995308166
13995315307
13995324340
13995335998
13995343871
13995355712
13995366637
13995376708
13995387999
13995396910
13995406127
13995412963
13995420836
13995429015
13995437071
13995444396
13995453063
13995461852
13995471068
13995478697
13995485411
13995493529
13995500548
13995507689
13995515013
13995521971
13995528990
13995536070
13995543272
13995549986
13995560789
13995569884
13995579039
13995586058
13995597899
13995607054
13995616331
13995625364
13995634337
13995644163
13995652586
13995662230
13995671202
13995679441
13995690794
13995699827
13995708067
13995716795
13995727232
13995736265
13995744566
13995753233
13995764158
13995774229
13995782163
13995795103
13995803648
13995815244
13995825376
13995834837
13995843626
13995852109
13995862119
13995870786
13995880002
13995891172
13995899167
13995909360
13995917478
13995927427
13995935850
13995945737
13995953183
13995963254
13995975339
13995983335
13995991880
13995998593
13996009824
13996019773
13996028745
13996038816
13996049741
13996056577
13996067685
13996079465
13996088864
13996098325
13996110226
13996119870
13996132199
13996142392
13996153989
13996162656
13996173703
13996185727
13996197384
13996208615
13996220578
13996231137
13996240536
13996249264
13996258358
13996269528
13996280636
13996291623
13996300167
13996309567
13996318783
13996327999
13996339413
13996348568
13996359554
13996368588
13996379452
13996388363
13996397274
13996407467
13996416988
13996426327
13996435177
13996441280
13996453365
13996463070
13996471432
13996486141
13996494625
13996506283
13996515682
13996525936
13996536678
13996546993
13996557430
13996566463
13996577877
13996585445
13996594295
13996606075
13996614803
13996623653
13996633785
13996646541
13996657039
13996666988
13996676692
13996687496
13996695308
13996705867
13996713557
13996725887
13996736324
13996743770
13996756465
13996767024
13996777522
13996788081
13996795527
13996808162
13996817073
13996828975
13996838862
13996846736
13996856624
13996869075
13996878413
13996884028
13996892756
13996897944
13996906367
13996913020
13996919795
13996928218
13996934748
13996938288
13996948969
13996955927
13996962885
13996969294
13996973994
13996981196
13996988093
13996995295
13997004267
13997013056
13997021174
13997027949
13997037836
13997045954
13997054072
13997062434
13997068049
13997075068
13997081476
13997086176
13997096125
13997103083
13997109553
13997116388
13997122370
13997130060
13997136103
13997142206
13997146357
13997151117
13997156733
13997160151
13997165766
13997170771
13997176630
13997180414
13997185724
13997189508
13997194025
13997200678
13997206781
13997213129
13997216974
13997222101
13997226190
13997232050
13997236749
13997241388
13997246637
13997250665
13997254328
13997257990
13997262811
13997267267
13997270563
13997276911
13997281976
13997287103
13997291437
13997296259
13997298822
13997304681
13997308527
13997316766
13997320917
13997327325
13997332086
13997336114
13997341119
13997345758
13997351068
13997355096
13997361078
13997365411
13997370050
13997375665
13997381708
13997387201
13997392511
13997397027
13997403192
13997406732
13997411310
13997416986
13997423395
13997429071
13997436273
13997440851
13997445367
13997452325
13997455682
13997463189
13997468011
13997473565
13997479669
13997484674
13997490167
13997495416
13997501214
13997507196
13997514703
13997523187
13997530877
13997536920
13997544305
13997550530
13997558160
13997564324
13997570794
13997577691
13997581231
13997587640
13997593865
13997599725
13997605035
13997610650
13997617364
13997623467
13997627923
13997633843
13997640008
13997644830
13997649834
13997655389
13997659478
13997666131
13997668694
13997677788
13997682549
13997688408
13997694146
13997699151
13997705010
13997711236
13997714348
13997721795
13997727593
13997733330
13997738640
13997742547
13997747979
13997753472
13997759514
13997764092
13997769402
13997776238
13997779351
13997785515
13997791985
13997796807
13997803215
13997808220
13997814751
13997819878
13997825127
13997831108
13997836846
13997840019
13997848015
13997853081
13997859490
13997864372
13997870964
13997874321
13997881035
13997887627
13997892754
13997899345
13997905754
13997912102
13997921318
13997928520
13997937736
13997944084
13997954155
13997960808
13997969292
13997976494
13997983024
13997990410
13997998527
13998005852
13998014580
13998021538
13998027885
13998036369
13998044120
13998050285
13998058342
13998065055
13998074394
13998081108
13998089103
13998098747
13998105033
13998111930
13998121940
13998129264
13998138420
13998147514
13998157279
13998164481
13998174491
13998183830
13998193900
13998200492
13998213432
13998224235
13998234000
13998241813
13998248954
13998255790
13998264335
13998278312
13998286124
13998294364
13998304313
13998312064
13998319816
13998327506
13998336173
13998344535
13998351554
13998362052
13998371024
13998378226
13998386100
13998391776
13998399893
13998406485
13998415274
13998422293
13998430411
13998436942
13998443717
13998450675
13998456961
13998464774
13998473197
13998480216
13998486441
13998494009
13998500418
13998507742
13998514456
13998518179
13998530447
13998536978
13998545828
13998550894
13998560049
13998565848
13998572684
13998579825
13998589285
13998594839
13998603506
13998609793
13998617056
13998624930
13998630789
13998639822
13998648550
13998655447
13998663137
13998669363
13998677786
13998686209
13998691336
13998700308
13998707632
13998716726
13998723196
13998731985
13998738943
13998746267
13998755605
13998762747
13998768850
13998780142
13998785879
13998795278
13998801138
13998808706
13998817678
13998823965
13998830984
13998840871
13998848562
13998857717
13998864248
13998873525
13998879934
13998888112
13998895986
13998902334
13998911428
13998919851
13998926137
13998932058
13998941213
13998952077
13998961721
13998971425
13998979970
13998991017
13999006337
13999016835
13999025563
13999032094
13999039235
13999046742
13999053212
13999062001
13999070058
13999076711
13999086354
13999092580
13999099416
13999107777
13999113393
13999120717
13999128407
13999135243
13999142812
13999149342
13999156972
13999164418
13999172169
13999179494
13999184865
13999192311
13999198659
13999206959
13999215565
13999223317
13999230153
13999237233
13999244374
13999249928
13999258351
13999265004
13999272938
13999278614
13999285511
13999294056
13999299549
13999305592
13999311634
13999317066
13999324024
13999329090
13999334645
13999336170
13999344959
13999350514
13999356251
13999359730
13999365223
13999371266
13999377796
13999382618
13999386585
13999392750
13999399403
13999403370
13999410084
13999415394
13999419483
13999426258
13999429432
13999437244
13999440540
13999448536
13999453236
13999459461
13999464649
13999471241
13999474903
13999480274
13999487964
13999492969
13999498096
13999502613
13999509693
13999515735
13999519886
13999526050
13999531421
13999537037
13999542652
13999547901
13999554187
13999559864
13999567920
13999571521
13999577320
13999584644
13999588916
13999594471
13999599170
13999606433
13999613025
13999621448
13999628101
13999636402
13999642383
13999650134
13999657642
13999664111
13999669421
13999674976
13999680652
13999683887
13999693408
13999697803
13999702563
13999707874
13999714465
13999719897
13999723376
13999729419
13999734119
13999739612
13999744495
13999745715
13999754687
13999760364
13999764270
13999770740
13999776965
13999783435
13999788867
13999792773
13999798755
13999805102
13999811572
13999818103
13999823779
13999829944
13999835315
13999841662
13999846911
13999852282
13999857287
13999866198
13999872058
13999878833
13999884631
13999889514
13999896472
13999900683
13999906665
13999911914
13999916857
13999921252
13999928454
13999932971
13999938159
13999942492
13999948412
13999954882
13999959765
13999964160
13999970324
13999973437
13999980944
13999987231
13999991930
13999994799
14000004382
14000007861
14000015429
14000018725
14000026720
14000031359
14000037768
14000042345
14000047045
14000054003
14000058581
14000064745
14000070421
14000075365
14000079333
14000085680
14000088732
14000098375
14000103869
14000108141
14000114061
14000120653
14000123644
14000130846
14000137987
14000149157
14000155565
14000163683
14000171801
14000178453
14000187548
14000196825
14000203783
14000212450
14000229173
14000235704
14000242540
14000256883
14000267809
14000272875
14000281847
14000288255
14000296129
14000304796
14000314561
14000320909
14000329759
14000337389
14000345323
14000352891
14000360094
14000366258
14000375169
14000382310
14000391588
14000399766
14000408128
14000415819
14000424241
14000430650
14000439134
14000446397
14000454576
14000461168
14000467759
14000476548
14000481858
14000491563
14000498155
14000505479
14000513413
14000521836
14000527146
14000536180
14000544663
14000551621
14000558213
14000567002
14000574510
14000581834
14000589402
14000600266
14000607163
14000613267
14000622422
14000628281
14000636521
14000643296
14000651841
14000656052
14000666794
14000675217
14000683640
14000690781
14000697068
14000703782
14000713730
14000720139
14000730454
14000736557
14000743637
14000751389
14000759323
14000766953
14000773606
14000781784
14000786423
14000797592
14000805466
14000811692
14000818894
14000826645
14000835983
14000843979
14000855332
14000863083
14000870651
14000876938
14000886093
14000894760
14000899094
14000910263
14000916794
14000926193
14000932968
14000939865
14000947372
14000956039
14000963363
14000970749
14000978744
14000989364
14000996567
14001004623
14001016159
14001024032
14001034286
14001042953
14001051193
14001059738
14001066940
14001079269
14001086715
14001093246
14001102523
14001109298
14001117050
14001125961
14001134933
14001142318
14001152328
14001159286
14001167587
14001173812
14001181930
14001187789
14001196639
14001204452
14001213241
14001219161
14001226791
14001235580
14001244063
14001250716
14001258040
14001263961
14001270736
14001280074
14001291305
14001295211
14001307296
14001315413
14001325057
14001332259
14001338301
14001345137
14001352523
14001361068
14001370528
14001377303
14001384078
14001392562
14001401412
14001413191
14001422652
14001434310
14001446517
14001455428
14001461531
14001470320
14001476241
14001484419
14001490401
14001500899
14001509505
14001516707
14001524336
14001531966
14001539412
14001546919
14001551558
14001557905
14001560652
14001568526
14001573775
14001578657
14001584517
14001589705
14001595320
14001601606
14001607100
14001611555
14001617720
14001621687
14001627180
14001631208
14001637251
14001642073
14001648542
14001653852
14001659285
14001663984
14001669416
14001676252
14001681929
14001686384
14001691938
14001697187
14001703291
14001708174
14001716535
14001723615
14001730512
14001737165
14001742780
14001749799
14001755964
14001761762
14001767683
14001772749
14001778852
14001783308
14001789533
14001794477
14001798933
14001803815
14001809125
14001814252
14001820539
14001825422
14001831464
14001837995
14001842206
14001846540
14001853315
14001857770
14001865461
14001869672
14001876081
14001881086
14001887739
14001894330
14001898237
14001905134
14001910322
14001917157
14001921735
14001929609
14001934613
14001940046
14001945172
14001951520
14001958356
14001964582
14001972028
14001977948
14001983564
14001989240
14001993878
14002002301
14002007733
14002013837
14002018292
14002024091
14002030194
14002034772
14002041364
14002046552
14002052289
14002059979
14002066693
14002071088
14002076337
14002083234
14002088605
14002094952
14002100201
14002105145
14002110883
14002115887
14002122296
14002128827
14002134808
14002140301
14002145795
14002150494
14002157941
14002162518
14002169354
14002175458
14002181134
14002185711
14002190289
14002197430
14002204266
14002209698
14002215680
14002221051
14002225628
14002232525
14002237652
14002244000
14002250042
14002254559
14002260296
14002266461
14002271221
14002276348
14002282757
14002288861
14002293743
14002299420
14002306561
14002312054
14002320660
14002324749
14002332623
14002338909
14002344769
14002350872
14002358440
14002365887
14002370342
14002377117
14002381329
14002387066
14002391277
14002397564
14002404522
14002413677
14002421856
14002426372
14002434978
14002441570
14002450420
14002457256
14002465801
14002472759
14002479473
14002488018
14002495037
14002503582
14002510845
14002517986
14002525676
14002533306
14002541484
14002549175
14002559978
14002566265
14002574382
14002582439
14002590496
14002596843
14002606853
14002613567
14002622051
14002630351
14002635478
14002645061
14002653301
14002663493
14002669597
14002679240
14002685222
14002693645
14002703410
14002710979
14002715251
14002725505
14002731975
14002742351
14002748576
14002759135
14002765483
14002774821
14002780498
14002790141
14002798442
14002805034
14002814067
14002822184
14002828959
14002836589
14002844157
14002851664
14002861552
14002869426
14002877482
14002883158
14002893778
14002900797
14002909037
14002918070
14002927531
14002935954
14002943888
14002947733
14002957133
14002963480
14002971354
14002979960
14002987406
14002997233
14003003825
14003010844
14003018839
14003025553
14003032450
14003041910
14003046976
14003058268
14003063822
14003073038
14003080118
14003087992
14003094767
14003102396
14003111979
14003121378
14003134134
14003141275
14003153727
14003164957
14003174234
14003180765
14003189249
14003195780
14003202310
14003211649
14003218790
14003227884
14003234903
14003244058
14003250284
14003259256
14003264932
14003271646
14003279092
14003286172
14003294900
14003302286
14003308694
14003318887
14003325845
14003332376
14003339395
14003345743
14003353006
14003360818
14003368814
14003376993
14003381570
14003392495
14003400430
14003406045
14003411721
14003421060
14003427469
14003435098
14003443765
14003448526
14003456948
14003464761
14003473001
14003479470
14003487832
14003494058
14003503030
14003511270
14003519570
14003526467
14003532082
14003542275
14003552285
14003559487
14003565102
14003574441
14003582925
14003590554
14003597207
14003604714
14003613259
14003621621
14003628518
14003634499
14003643838
14003650124
14003656716
14003666298
14003672585
14003681435
14003688027
14003696877
14003704812
14003712319
14003719704
14003727272
14003735329
14003743569
14003751747
14003758644
14003765541
14003772011
14003780800
14003787636
14003795143
14003802895
14003811318
14003819679
14003825356
14003832436
14003838112
14003843788
14003849342
14003854469
14003860085
14003865028
14003871071
14003877968
14003884254
14003890175
14003896034
14003903175
14003910683
14003918373
14003927040
14003932777
14003937782
14003942055
14003946388
14003952553
14003961220
14003967628
14003973182
14003976539
14003981300
14003986244
14003993568
14003999122
14004004493
14004008705
14004014137
14004021156
14004025978
14004031654
14004038917
14004043556
14004049537
14004054664
14004058937
14004065589
14004069557
14004077857
14004083900
14004088172
14004093482
14004099403
14004104713
14004108863
14004115516
14004120704
14004125648
14004129371
14004135719
14004139747
14004145973
14004149879
14004156471
14004162757
14004168311
14004173621
14004178687
14004185096
14004190772
14004195716
14004201331
14004206580
14004211036
14004216712
14004222266
14004228309
14004232886
14004239112
14004245826
14004252967
14004257911
14004263770
14004268226
14004274512
14004279822
14004284278
14004291114
14004297156
14004303260
14004309119
14004315162
14004319861
14004325415
14004331275
14004337134
14004341590
14004347937
14004352881
14004359961
14004367041
14004370703
14004377417
14004381446
14004387305
14004392554
14004399695
14004404700
14004411231
14004415991
14004421851
14004424964
14004431983
14004439490
14004446753
14004453223
14004460913
14004468665
14004477454
14004484106
14004488196
14004494665
14004499182
14004503699
14004507605
14004514380
14004519202
14004525549
14004528357
14004536108
14004540503
14004545263
14004549475
14004555273
14004559485
14004566809
14004573095
14004577063
14004581640
14004587256
14004592810
14004597326
14004603430
14004608130
14004614904
14004619299
14004625952
14004629675
14004637304
14004643774
14004650732
14004660009
14004666845
14004674536
14004681372
14004687353
14004695532
14004706030
14004715185
14004722143
14004731847
14004738378
14004745702
14004753088
14004760839
14004767980
14004775976
14004782812
14004791601
14004795873
14004806249
14004812597
14004821020
14004827306
14004835973
14004848424
14004857702
14004870397
14004879247
14004891271
14004902013
14004911840
14004921666
14004931066
14004943273
14004952367
14004963903
14004973546
14004984899
14004996068
14005002172
14005009374
14005017552
14005024999
14005033299
14005042333
14005047521
14005054906
14005060521
14005067845
14005073094
14005080724
14005085912
14005093907
14005100926
14005107091
14005115697
14005121800
14005128087
14005136998
14005143406
14005152562
14005164769
14005175694
14005187779
14005198277
14005205784
14005213963
14005221775
14005228672
14005235142
14005244358
14005250401
14005259556
14005267063
14005273899
14005280186
14005286717
14005293980
14005301731
14005310154
14005317295
14005322788
14005329929
14005335850
14005344029
14005351109
14005357090
14005363316
14005369297
14005374729
14005383640
14005389927
14005397800
14005405003
14005414036
14005420322
14005426853
14005432773
14005440891
14005449009
14005454563
14005462620
14005470066
14005476108
14005483371
14005490879
14005498935
14005503025
14005511753
14005517551
14005524936
14005533054
14005540561
14005547214
14005557773
14005566257
14005573398
14005577915
14005588901
14005597507
14005604343
14005611850
14005618869
14005626987
14005635593
14005644382
14005652866
14005661411
14005667392
14005676852
14005684421
14005692477
14005696933
14005709140
14005716891
14005725131
14005731235
14005740329
14005746554
14005755710
14005763095
14005769381
14005778476
14005785067
14005793307
14005801974
14005809115
14005814120
14005822360
14005832858
14005841037
14005848544
14005856478
14005863131
14005871066
14005877780
14005885836
14005893466
14005905306
14005915682
14005927950
14005937106
14005945101
14005955904
14005966097
14005972201
14005982638
14005989168
14005996432
14006002108
14006010775
14006018893
14006024874
14006029635
14006034456
14006039095
14006043551
14006048006
14006054293
14006058382
14006065401
14006069613
14006075533
14006080477
14006085665
14006092135
14006096651
14006101656
14006108431
14006114412
14006119234
14006125154
14006130892
14006135591
14006139986
14006145845
14006151827
14006159395
14006164522
14006169527
14006174105
14006180391
14006185396
14006191316
14006195833
14006202791
14006207796
14006212251
14006218111
14006221834
14006228304
14006233553
14006238374
14006245088
14006250703
14006257112
14006261385
14006266756
14006272127
14006276949
14006281953
14006288179
14006293794
14006298677
14006304964
14006309785
14006315095
14006320589
14006326387
14006331331
14006337312
14006340852
14006347383
14006353853
14006358064
14006362214
14006367219
14006374482
14006380159
14006386873
14006393037
14006397371
14006402803
14006408723
14006412873
14006418428
14006421235
14006429536
14006433808
14006439057
14006443696
14006449555
14006455293
14006460725
14006465180
14006473359
14006478242
14006483796
14006490693
14006499787
14006507356
14006515840
14006521027
14006530549
14006539521
14006544770
14006548615
14006555573
14006560151
14006565766
14006571259
14006577058
14006582978
14006586823
14006593232
14006599457
14006604279
14006610505
14006613434
14006619721
14006624848
14006629731
14006634431
14006639130
14006644318
14006651154
14006655366
14006660920
14006664826
14006670136
14006674958
14006680451
14006687897
14006693146
14006699799
14006703583
14006708527
14006714631
14006720917
14006726776
14006732880
14006737519
14006744904
14006748810
14006754730
14006760163
14006765412
14006771393
14006779267
14006783722
14006790009
14006795563
14006799713
14006804230
14006809357
14006816742
14006822418
14006826935
14006833832
14006840241
14006848908
14006855072
14006864655
14006871246
14006878448
14006885467
14006892548
14006902679
14006909088
14006916290
14006923920
14006932464
14006938812
14006946930
14006954803
14006961700
14006970611
14006976593
14006982635
14006992401
14006999237
14007007537
14007014984
14007023773
14007030975
14007036407
14007045379
14007053375
14007061248
14007065948
14007076629
14007085418
14007091522
14007099578
14007105316
14007115325
14007121368
14007128570
14007139068
14007147918
14007157745
14007170745
14007180633
14007186919
14007195342
14007200042
14007216338
14007224639
14007231902
14007238189
14007248260
14007250152
14007263762
14007267730
14007277739
14007284514
14007292083
14007298430
14007309172
14007316680
14007324492
14007328276
14007338530
14007345488
14007355315
14007361846
14007371611
14007378691
14007386504
14007395781
14007404143
14007411833
14007418913
14007426177
14007435332
14007443022
14007450591
14007458769
14007463042
14007475981
14007484221
14007492522
14007498991
14007508330
14007514799
14007525297
14007532194
14007539152
14007548979
14007555937
14007563871
14007572599
14007580168
14007584562
14007595488
14007603605
14007614408
14007621672
14007629972
14007639433
14007647673
14007654753
14007662870
14007672270
14007681120
14007689665
14007698087
14007704557
14007712492
14007721403
14007729398
14007735929
14007745817
14007755155
14007760282
14007770048
14007781522
14007789152
14007797330
14007806730
14007815214
14007822599
14007830167
14007838773
14007846158
14007852201
14007859769
14007869230
14007877652
14007884855
14007892606
14007900785
14007909635
14007915982
14007923429
14007929288
14007939603
14007946073
14007955167
14007963956
14007970243
14007977628
14007987576
14007994657
14008004361
14008012906
14008022611
14008029691
14008037930
14008048062
14008054288
14008063199
14008069424
14008079129
14008087369
14008093777
14008103299
14008111294
14008120389
14008129910
14008139309
14008146145
14008153225
14008161343
14008168484
14008176297
14008185818
14008191372
14008200589
14008207486
14008216275
14008224636
14008232998
14008238003
14008246670
14008252835
14008262051
14008268460
14008277554
14008283535
14008289028
14008294827
14008298794
14008305386
14008309658
14008316677
14008320767
14008325955
14008331204
14008336697
14008340969
14008346890
14008353603
14008359707
14008364101
14008369533
14008375637
14008381130
14008385952
14008391567
14008397732
14008401821
14008407741
14008411709
14008418117
14008423244
14008428066
14008434292
14008440761
14008445949
14008452297
14008455898
14008461696
14008467617
14008472622
14008478054
14008483974
14008493190
14008499172
14008504726
14008509731
14008513820
14008520107
14008524745
14008532192
14008536891
14008543483
14008547512
14008553310
14008558925
14008563747
14008569667
14008574367
14008579616
14008585170
14008589809
14008594386
14008599635
14008604518
14008610866
14008614894
14008622707
14008628749
14008634303
14008640651
14008646327
14008650905
14008658046
14008662196
14008670436
14008676051
14008680812
14008684901
14008691127
14008695888
14008700160
14008705104
14008710170
14008714686
14008719508
14008723720
14008729457
14008733668
14008738978
14008743434
14008751979
14008756190
14008762538
14008767115
14008771998
14008776088
14008781520
14008787623
14008794093
14008800563
14008804896
14008809169
14008815882
14008821254
14008825282
14008831141
14008836024
14008843104
14008848536
14008853480
14008858546
14008864466
14008868678
14008874903
14008879542
14008885096
14008890467
14008895655
14008900538
14008906153
14008910853
14008916590
14008923304
14008929163
14008934351
14008938807
14008945216
14008949061
14008954432
14008959559
14008965418
14008971949
14008976527
14008982935
14008987391
14008993799
14008997950
14009004664
14009009058
14009015345
14009021021
14009027247
14009031885
14009038172
14009043604
14009048060
14009053675
14009059656
14009067957
14009073511
14009079004
14009083765
14009089685
14009094263
14009101465
14009108850
14009117151
14009127893
14009134729
14009142237
14009151148
14009158716
14009163355
14009175195
14009182398
14009191553
14009200647
14009209680
14009216455
14009223718
14009233911
14009240259
14009250269
14009257227
14009267175
14009274683
14009285730
14009292078
14009301538
14009310327
14009317773
14009324304
14009334924
14009340478
14009352197
14009360009
14009367578
14009374963
14009382531
14009390222
14009398950
14009403405
14009416772
14009421960
14009432153
14009439965
14009446862
14009452355
14009461755
14009469872
14009478051
14009486474
14009494897
14009501672
14009506860
14009517541
14009524865
14009534325
14009540185
14009547631
14009555627
14009563256
14009569787
14009579674
14009588708
14009596032
14009603356
14009611901
14009619835
14009627831
14009635705
14009641442
14009647912
14009658226
14009665184
14009671471
14009680748
14009686608
14009698021
14009705590
14009715782
14009723473
14009730858
14009737694
14009745201
14009752831
14009761559
14009768883
14009776940
14009784630
14009794090
14009801170
14009809105
14009816917
14009825707
14009833397
14009839684
14009846336
14009855675
14009862816
14009871300
14009878807
14009886314
14009893822
14009902061
14009909447
14009917686
14009925010
14009931724
14009940696
14009948021
14009957237
14009961876
14009971458
14009978050
14009986229
14009993797
14010004478
14010011070
14010018150
14010025657
14010035362
14010043113
14010049949
14010057945
14010064598
14010073020
14010081016
14010092918
14010098472
14010110130
14010119834
14010127952
14010136558
14010144065
14010150413
14010159690
14010168174
14010176047
14010183311
14010190513
14010199790
14010207847
14010213950
14010221152
14010227073
14010235679
14010242576
14010252646
14010258323
14010265769
14010272788
14010280173
14010288962
14010295432
14010305503
14010315085
14010321921
14010329550
14010336692
14010343711
14010350913
14010358725
14010366477
14010375144
14010382895
14010390585
14010397543
14010404440
14010411215
14010418356
14010426779
14010433554
14010441611
14010448508
14010456869
14010464682
14010472555
14010478659
14010485983
14010492880
14010500937
14010508322
14010515097
14010521750
14010531515
14010539328
14010544027
14010552816
14010558920
14010566244
14010570761
14010576986
14010582907
14010587912
14010593222
14010599142
14010604269
14010609945
14010614218
14010619833
14010623007
14010629843
14010641256
14010645590
14010655966
14010662985
14010668539
14010672872
14010677511
14010684835
14010689474
14010695699
14010700460
14010705099
14010712057
14010717550
14010722311
14010727743
14010733236
14010737691
14010743185
14010746053
14010756002
14010760152
14010765890
14010771139
14010777914
14010785116
14010792013
14010797933
14010805074
14010811605
14010816549
14010822652
14010829000
14010835164
14010839925
14010843831
14010849080
14010851766
14010859212
14010863302
14010870260
14010875264
14010880513
14010884420
14010891500
14010895772
14010902303
14010905477
14010911946
14010916768
14010922139
14010927938
14010933736
14010938436
14010944112
14010949788
14010959065
14010963460
14010968831
14010974874
14010981648
14010987142
14010992452
14010997395
14011002950
14011008504
14011014180
14011018880
14011024373
14011029073
14011033894
14011038533
14011043965
14011049519
14011053853
14011058003
14011065938
14011071980
14011077229
14011082966
14011086751
14011091023
14011097859
14011102131
14011110127
14011113179
14011119221
14011123555
14011129841
14011134724
14011139607
14011144429
14011150349
14011157795
14011162922
14011168721
14011174580
14011179463
14011183491
14011189473
14011196858
14011202656
14011208577
14011214375
14011219624
14011224446
14011227925
14011233174
14011239277
14011244404
14011250691
14011255573
14011261433
14011266621
14011271565
14011276020
14011282795
14011289387
14011295185
14011300739
14011306233
14011311909
14011317036
14011320698
14011340656
14011347614
14011353474
14011357136
14011365681
14011372089
14011378803
14011384968
14011394245
14011399860
14011407368
14011414814
14011422809
14011426899
14011436115
14011440204
14011451008
14011459125
14011467304
14011473285
14011482196
14011489154
14011498127
14011504108
14011509357
14011517902
14011524982
14011532794
14011540912
14011547748
14011554462
14011561176
14011569721
14011576434
14011584186
14011591693
14011597492
14011606769
14011614703
14011623370
14011627765
14011637836
14011646381
14011652728
14011659076
14011667377
14011675372
14011683612
14011694171
14011701129
14011710711
14011719012
14011727008
14011734942
14011741107
14011750506
14011756793
14011763873
14011774066
14011784137
14011792071
14011800006
14011807940
14011817218
14011824603
14011834063
14011840777
14011849688
14011855670
14011864031
14011869280
14011878680
14011885272
14011893939
14011899920
14011908038
14011914507
14011921648
14011929156
14011936541
14011944842
14011954119
14011961687
14011969683
14011978106
14011983843
14011990130
14011999529
14012007586
14012016009
14012022539
14012030535
14012040117
14012048601
14012055559
14012065020
14012071428
14012081682
14012090654
14012099077
14012105608
14012113054
14012123247
14012130205
14012140520
14012148393
14012159319
14012167986
14012176653
14012183367
14012195757
14012201921
14012212480
14012220903
14012229326
14012237016
14012245134
14012251237
14012259355
14012265459
14012276445
14012283037
14012291887
14012300920
14012308305
14012314348
14012321611
14012328874
14012334367
14012342485
14012349260
14012357988
14012366044
14012371659
14012378923
14012387529
14012393693
14012400163
14012407548
14012416520
14012424028
14012430558
14012437638
14012443986
14012451982
14012459428
14012468156
14012475480
14012482743
14012492448
14012498124
14012505692
14012514603
14012522233
14012528519
14012538041
14012544755
14012552872
14012559037
14012567216
14012576615
14012582169
14012591141
14012600052
14012607194
14012614213
14012623368
14012629349
14012638993
14012646073
14012653153
14012661698
14012670426
14012677811
14012685318
14012693314
14012699051
14012708023
14012716080
14012722794
14012733292
14012742386
14012751114
14012758011
14012766861
14012772965
14012779739
14012788956
14012795487
14012804703
14012810928
14012819962
14012827652
14012834915
14012841568
14012847488
14012852920
14012859146
14012864456
14012870682
14012875992
14012881180
14012885635
14012891373
14012896499
14012903213
14012910293
14012916824
14012922439
14012929336
14012933914
14012940017
14012945022
14012954544
14012960037
14012967239
14012970901
14012976028
14012982254
14012985794
14012992446
14012998977
14013003982
14013009231
14013016250
14013019790
14013025955
14013030410
14013037307
14013043594
14013049575
14013055251
14013060623
14013065139
14013070388
14013074966
14013082717
14013087295
14013093581
14013098953
14013105056
14013108108
14013114822
14013119582
14013126052
14013130935
14013136611
14013141616
14013149490
14013153701
14013159133
14013163955
14013168349
14013175979
14013181655
14013188247
14013192824
14013197707
14013202590
14013207473
14013212783
14013218215
14013224074
14013231398
14013236281
14013241530
14013246718
14013252639
14013257766
14013264418
14013267409
14013277663
14013283461
14013287795
14013292311
14013297927
14013304213
14013308913
14013313307
14013319716
14013326796
14013331679
14013338393
14013342482
14013348464
14013353774
14013359206
14013364638
14013369826
14013374953
14013380019
14013385817
14013391921
14013396559
14013402907
14013406020
14013415297
14013422133
14013425917
14013431044
14013436964
14013442763
14013448317
14013453627
14013459791
14013466627
14013471510
14013477492
14013480665
14013488905
14013494581
14013501295
14013508436
14013513136
14013524000
14013531630
14013538588
14013548597
14013554457
14013561476
14013568739
14013575392
14013581861
14013585646
14013590895
14013594862
14013598890
14013603468
14013609999
14013614393
14013618482
14013622877
14013626661
14013630567
14013635267
14013640028
14013644850
14013649488
14013654554
14013659620
14013664381
14013669142
14013674635
14013680860
14013688856
14013828260
14013835096
14013842847
14013854383
14013864209
14013874829
14013882276
14013891004
14013899854
14013907483
14013916822
14013926282
14013934583
14013943799
14013951367
14013958631
14013968945
14013978833
14013987256
14013996533
14014004651
14014010815
14014020703
14014031384
14014039258
14014048718
14014058118
14014066723
14014075818
14014083630
14014094555
14014102185
14014109448
14014119885
14014127575
14014137585
14014143750
14014152661
14014159008
14014168957
14014176220
14014182446
14014191296
