49031829495
49031835781
49031843167
49031848904
49031855496
49031860989
49031867153
49031874172
49031880764
49031886196
49031892727
49031898281
49031905056
49031912563
49031918972
49031925503
49031930874
49031939053
49031948269
49031954433
49031960537
49031967739
49031973904
49031982265
49031988308
49031994472
49032001369
49032008449
49032015102
49032023464
49032032436
49032040310
49032047329
49032054104
49032058498
49032067165
49032072597
49032079921
49032087612
49032094326
49032099880
49032107387
49032114223
49032120998
49032127285
49032134670
49032140773
49032146450
49032152797
49032159267
49032167934
49032176479
49032183620
49032190700
49032197292
49032205104
49032211208
49032218349
49032225917
49032232753
49032240138
49032248378
49032253322
49032261867
49032270473
49032278163
49032284877
49032292384
49032298244
49032305141
49032313136
49032322352
49032331019
49032338954
49032347072
49032354945
49032363490
49032370631
49032378322
49032383448
49032392360
49032400172
49032406459
49032415065
49032422206
49032429896
49032437281
49032443080
49032452235
49032459010
49032467188
49032474330
49032483119
49032490382
49032497889
49032505518
49032513148
49032522059
49032529017
49032534754
49032541041
49032548487
49032555750
49032563135
49032571680
49032577357
49032585474
49032591212
49032598597
49032604029
49032611841
49032619715
49032627283
49032633936
49032639307
49032647364
49032654078
49032662256
49032670923
49032680506
49032687708
49032693140
49032702356
49032709925
49032718653
49032725244
49032735804
49032742578
49032749231
49032756433
49032763941
49032771631
49032779627
49032788477
49032796533
49032805628
49032813135
49032820581
49032830835
49032837793
49032846094
49032854028
49032864770
49032870325
49032879480
49032887414
49032899072
49032907373
49032916101
49032922998
49032930505
49032939477
49032944909
49032952905
49032963525
49032970788
49032978967
49032985925
49032992089
49033001428
49033008325
49033016809
49033023950
49033034082
49033041711
49033049218
49033056359
49033063989
49033071374
49033081140
49033089013
49033098535
49033106042
49033115685
49033124657
49033131188
49033140343
49033146813
49033156457
49033165124
49033172570
49033178368
49033187646
49033193383
49033202660
49033212365
49033220482
49033227196
49033235192
49033241417
49033251610
49033257592
49033264550
49033274926
49033282067
49033291344
49033299034
49033308495
49033315392
49033322716
49033329979
49033338280
49033347069
49033355614
49033364647
49033372032
49033380333
49033388085
49033395897
49033402062
49033413658
49033420006
49033426048
49033436119
49033444969
49033451134
49033457298
49033467064
49033477867
49033484276
49033492515
49033501060
49033507164
49033514854
49033524620
49033530601
49033541099
49033548118
49033557213
49033564354
49033573448
49033579124
49033588768
49033595176
49033606834
49033614952
49033624229
49033632041
49033639244
49033646873
49033654319
49033661094
49033669578
49033680259
49033688011
49033695762
49033703574
49033711021
49033719077
49033725608
49033736228
49033745139
49033754050
49033760215
49033770713
49033776816
49033785056
49033792686
49033800315
49033808677
49033816550
49033823874
49033831138
49033837974
49033844993
49033851706
49033860068
49033868125
49033876304
49033883628
49033889731
49033896445
49033903891
49033911032
49033918479
49033926291
49033933554
49033940756
49033948020
49033955283
49033962363
49033969565
49033980918
49033988364
49033994833
49034001730
49034008566
49034015036
49034021994
49034029257
49034037070
49034045065
49034052145
49034058127
49034066244
49034074667
49034081381
49034088766
49034097433
49034104880
49034110861
49034118368
49034124472
49034131918
49034140890
49034149496
49034156881
49034165365
49034170553
49034182028
49034191061
49034198019
49034206442
49034213400
49034222067
49034226889
49034233908
49034237631
49034244528
49034251364
49034256796
49034261923
49034268392
49034274130
49034278890
49034283712
49034290914
49034295980
49034302572
49034308553
49034313924
49034318136
49034324056
49034330038
49034335165
49034341940
49034345846
49034353170
49034357626
49034362630
49034368917
49034374776
49034379842
49034387044
49034392782
49034397542
49034403707
49034408529
49034412984
49034420003
49034425130
49034431295
49034436361
49034442403
49034447835
49034453267
49034457418
49034466878
49034471761
49034476522
49034481038
49034485921
49034491719
49034496663
49034501668
49034507650
49034512532
49034517903
49034523458
49034527486
49034532979
49034539266
49034545064
49034550191
49034554280
49034560079
49034564351
49034570210
49034574178
49034580220
49034585591
49034591329
49034595967
49034600911
49034605489
49034610371
49034616963
49034622334
49034627278
49034632710
49034638081
49034642354
49034647725
49034652180
49034658223
49034664387
49034667927
49034674092
49034679097
49034683797
49034689351
49034694356
49034699116
49034705403
49034710225
49034715596
49034719319
49034725972
49034729756
49034737813
49034743001
49034748250
49034752827
49034758015
49034762532
49034768452
49034772847
49034778950
49034784748
49034788899
49034794331
49034799580
49034803242
49034810627
49034816487
49034821614
49034826863
49034831440
49034836262
49034841999
49034847248
49034851765
49034858601
49034862507
49034867878
49034872761
49034878925
49034883137
49034887837
49034894123
49034899067
49034904987
49034909138
49034914265
49034919697
49034924030
49034929707
49034934223
49034940510
49034946247
49034950825
49034955524
49034960712
49034966938
49034971577
49034977009
49034981525
49034986896
49034992695
49034996357
49035001911
49035008198
49035013386
49035017719
49035023639
49035029133
49035033283
49035039142
49035044758
49035049946
49035054157
49035060932
49035065265
49035071125
49035076069
49035081012
49035087055
49035091755
49035096759
49035102375
49035107318
49035112812
49035117755
49035124164
49035128986
49035133380
49035139240
49035143146
49035148883
49035154071
49035159076
49035165119
49035170856
49035175128
49035180438
49035185382
49035190265
49035195331
49035201556
49035206439
49035210834
49035216571
49035221088
49035227008
49035232684
49035237750
49035244037
49035248309
49035255695
49035261249
49035267657
49035272601
49035279132
49035284808
49035289935
49035295856
49035300738
49035305377
49035310748
49035316302
49035321490
49035327105
49035331622
49035336383
49035342242
49035345721
49035351336
49035357684
49035363849
49035368731
49035372821
49035378741
49035382952
49035388079
49035394061
49035400225
49035405108
49035409747
49035415667
49035420123
49035424945
49035431109
49035436541
49035441302
49035446002
49035451312
49035457049
49035461749
49035466265
49035472369
49035477252
49035482684
49035487566
49035492571
49035498309
49035503497
49035507830
49035514361
49035519549
49035525896
49035530718
49035537066
49035543841
49035549090
49035555071
49035560808
49035565874
49035571551
49035576311
49035581133
49035587725
49035592547
49035598223
49035603106
49035608599
49035612993
49035618426
49035623919
49035630449
49035635454
49035639727
49035645586
49035649492
49035655230
49035659319
49035666094
49035671282
49035677080
49035680864
49035687578
49035692278
49035695940
49035701738
49035708574
49035713579
49035718523
49035724260
49035728166
49035733843
49035739824
49035744402
49035749834
49035755266
49035760942
49035766496
49035771074
49035775469
49035782121
49035788286
49035792986
49035797685
49035802995
49035808855
49035812639
49035819048
49035824724
49035829790
49035834062
49035839983
49035844194
49035849931
49035854692
49035860490
49035866899
49035871110
49035877275
49035881059
49035887590
49035892656
49035898759
49035903764
49035909929
49035913896
49035919389
49035923539
49035929033
49035934587
49035940873
49035945939
49035950151
49035955949
49035960099
49035965776
49035970536
49035975602
49035982011
49035986467
49035991288
49035996598
49036001115
49036006425
49036012162
49036018144
49036023149
49036027604
49036033341
49036037187
49036043046
49036047441
49036054154
49036058732
49036064713
49036070573
49036074357
49036079240
49036084550
49036089921
49036095963
49036100907
49036105607
49036111283
49036116532
49036120866
49036125748
49036132951
49036137894
49036143876
49036149613
49036153275
49036159562
49036163224
49036169388
49036175797
49036180924
49036185563
49036191422
49036196732
49036200883
49036206254
49036212174
49036217789
49036222916
49036228653
49036233292
49036238053
49036244095
49036249100
49036254532
49036260331
49036264359
49036269791
49036275040
49036279923
49036284928
49036291458
49036296707
49036301407
49036307267
49036311356
49036317154
49036321427
49036327774
49036332840
49036338700
49036344193
49036347977
49036354263
49036359390
49036364212
49036370621
49036375260
49036380631
49036386063
49036390030
49036395340
49036399674
49036405899
49036412552
49036417618
49036422318
49036427444
49036432022
49036437454
49036442215
49036448502
49036453323
49036458511
49036464065
49036468338
49036473770
49036479874
49036485916
49036490738
49036495865
49036500503
49036506302
49036510635
49036515396
49036521805
49036528091
49036531936
49036537491
49036542923
49036547500
49036552383
49036557266
49036564041
49036569107
49036573806
49036579544
49036584549
49036589981
49036594192
49036600723
49036605911
49036609573
49036616958
49036622756
49036628250
49036633621
49036639419
49036645156
49036649368
49036655166
49036660293
49036665725
49036670669
49036677139
49036682082
49036687270
49036692947
49036697891
49036702468
49036706741
49036712783
49036718581
49036723342
49036728652
49036733901
49036737929
49036743301
49036748916
49036755202
49036760268
49036765456
49036771255
49036775100
49036780837
49036786391
49036790725
49036796096
49036801833
49036806106
49036811416
49036817519
49036821181
49036827834
49036833083
49036838210
49036842360
49036848281
49036854079
49036858229
49036863173
49036868972
49036874892
49036880629
49036885390
49036890517
49036895156
49036900527
49036906325
49036912245
49036917250
49036922743
49036926467
49036932448
49036938002
49036942946
49036948744
49036954054
49036959731
49036965102
49036969924
49036975234
49036980422
49036984267
49036991774
49036996108
49037001845
49037006483
49037011061
49037015761
49037023024
49037028029
49037033705
49037038893
49037043776
49037048903
49037054152
49037058790
49037065016
49037069899
49037074415
49037080092
49037085402
49037090773
49037094984
49037101027
49037105543
49037110975
49037115797
49037121290
49037126417
49037132338
49037137526
49037143873
49037148939
49037153578
49037159437
49037164442
49037169935
49037173658
49037179457
49037185743
49037189466
49037196180
49037198500
49037206861
49037211317
49037217237
49037222975
49037227735
49037233229
49037238478
49037242628
49037248121
49037252210
49037259229
49037264112
49037269056
49037273512
49037278211
49037283888
49037288465
49037294874
49037301832
49037305982
49037310926
49037317152
49037321973
49037327222
49037331983
49037336500
49037343153
49037348463
49037352674
49037357374
49037362745
49037367322
49037375135
49037380079
49037385084
49037389722
49037393384
49037400220
49037404920
49037410962
49037416334
49037421949
49037427015
49037431958
49037435743
49037441419
49037446302
49037452771
49037459058
49037463086
49037468702
49037472852
49037478650
49037482984
49037489637
49037495435
49037501050
49037505811
49037509778
49037517163
49037522595
49037529676
49037534314
49037540601
49037545789
49037551343
49037556043
49037561902
49037567029
49037572461
49037578748
49037583447
49037588818
49037593030
49037598401
49037603467
49037610791
49037615857
49037620679
49037625378
49037631055
49037635876
49037640210
49037646496
49037652173
49037656933
49037661633
49037667126
49037672803
49037677563
49037683056
49037688672
49037694348
49037699109
49037703747
49037708874
49037714673
49037718884
49037724988
49037729870
49037735669
49037741162
49037744702
49037750805
49037755932
49037760815
49037766552
49037771435
49037776501
49037781140
49037786084
49037791882
49037796398
49037801892
49037808056
49037811901
49037818310
49037823071
49037827709
49037831616
49037839123
49037844433
49037849621
49037855908
49037861523
49037866284
49037871655
49037875805
49037881420
49037886913
49037892529
49037898388
49037902905
49037907482
49037912731
49037919445
49037925549
49037931286
49037934704
49037940258
49037944897
49037950390
49037956554
49037962658
49037967663
49037971935
49037977672
49037983105
49037987377
49037992748
49037999096
49038004650
49038008495
49038015331
49038020336
49038024975
49038029430
49038035534
49038040416
49038046154
49038050487
49038056041
49038061962
49038065563
49038071117
49038077892
49038083019
49038087169
49038093212
49038097240
49038103099
49038108043
49038113597
49038117992
49038123851
49038129589
49038135204
49038139842
49038143505
49038150524
49038155284
49038161449
49038166271
49038171764
49038176524
49038181957
49038186412
49038192455
49038198314
49038203746
49038208324
49038213145
49038218822
49038223460
49038228404
49038234508
49038240367
49038244762
49038250743
49038254771
49038260203
49038265636
49038271800
49038278270
49038283031
49038287486
49038292735
49038298594
49038302989
49038308970
49038313304
49038319285
49038323497
49038328990
49038335338
49038340220
49038346446
49038352549
49038357310
49038362376
49038367869
49038372691
49038378062
49038383067
49038389292
49038394236
49038399302
49038403880
49038409495
49038414195
49038419383
49038424388
49038430613
49038436534
49038441599
49038446909
49038450999
49038456431
49038462779
49038468577
49038473704
49038478953
49038483714
49038489207
49038494517
49038498301
49038504404
49038510813
49038515879
49038520579
49038525645
49038530344
49038535593
49038540293
49038546824
49038551768
49038557261
49038561350
49038566904
49038572275
49038576731
49038582712
49038588083
49038591685
49038598337
49038603464
49038608103
49038613413
49038618296
49038624765
49038629343
49038633432
49038639170
49038644358
49038649851
49038654306
49038660349
49038665232
49038670542
49038675302
49038680796
49038685495
49038690378
49038696848
49038702829
49038707224
49038712473
49038718088
49038722299
49038727732
49038731882
49038739633
49038744699
49038750009
49038754709
49038760019
49038764597
49038769846
49038776010
49038782785
49038787302
49038791940
49038797433
49038803537
49038807199
49038813913
49038820200
49038825449
49038830759
49038837289
49038841562
49038849069
49038855478
49038860605
49038866037
49038870309
49038877267
49038882638
49038889047
49038893747
49038899484
49038904855
49038912057
49038917489
49038922860
49038928537
49038934396
49038938852
49038945749
49038950143
49038956308
49038961435
49038966073
49038973825
49038978707
49038984750
49038989511
49038994149
49038999154
49039004159
49039009347
49039015084
49039021432
49039026803
49039031259
49039036080
49039041757
49039047677
49039052987
49039059091
49039066110
49039070626
49039077401
49039081796
49039086984
49039093575
49039099129
49039105050
49039111153
49039115792
49039121407
49039128060
49039134164
49039140084
49039145760
49039151559
49039158211
49039164437
49039169930
49039174508
49039179879
49039187081
49039192025
49039199471
49039204537
49039209603
49039214913
49039220528
49039226387
49039233101
49039239266
49039244820
49039249825
49039255440
49039262215
49039267342
49039273445
49039278389
49039284188
49039288216
49039293770
49039299813
49039304329
49039310005
49039314583
49039320809
49039327400
49039331551
49039337593
49039343514
49039348763
49039354256
49039359261
49039365486
49039371529
49039375801
49039382393
49039387398
49039394234
49039400459
49039405342
49039411079
49039417061
49039421516
49039426765
49039433723
49039438606
49039443916
49039450447
49039456673
49039460945
49039466377
49039473213
49039478157
49039483711
49039489326
49039495674
49039501289
49039507148
49039512947
49039518745
49039524360
49039530342
49039535835
49039541389
49039547554
49039552925
49039559394
49039565315
49039570686
49039576301
49039581062
49039585945
49039592536
49039598518
49039602912
49039608772
49039613960
49039619331
49039624580
49039630744
49039635261
49039641181
49039646736
49039652656
49039658881
49039663337
49039668525
49039674995
49039679206
49039685371
49039689948
49039695625
49039701301
49039706489
49039710944
49039716743
49039723212
49039728522
49039734260
49039739448
49039744758
49039749152
49039755317
49039761909
49039768012
49039774238
49039778693
49039785041
49039790412
49039797126
49039802741
49039807929
49039813727
49039819526
49039824347
49039831488
49039837714
49039842719
49039849189
49039854010
49039861518
49039866889
49039872687
49039878302
49039882819
49039889106
49039893866
49039898749
49039904181
49039909369
49039915351
49039920355
49039925849
49039931281
49039936225
49039940741
49039945441
49039950995
49039957037
49039962531
49039966925
49039972052
49039976996
49039983344
49039988715
49039993292
49039998663
49040003180
49040009772
49040014044
49040021063
49040025397
49040031927
49040037543
49040042609
49040048712
49040053046
49040059149
49040065191
49040070624
49040075873
49040081671
49040088690
49040095221
49040101751
49040107123
49040112799
49040118048
49040124273
49040130438
49040136419
49040142950
49040148809
49040153021
49040158819
49040165228
49040171209
49040177069
49040182257
49040188055
49040194342
49040198797
49040204168
49040210394
49040215582
49040221136
49040226324
49040233465
49040239630
49040244573
49040250066
49040257208
49040261907
49040267889
49040272772
49040278143
49040283819
49040289861
49040295415
49040300054
49040305486
49040311040
49040315984
49040321905
49040326238
49040333135
49040336858
49040343938
49040349981
49040355535
49040359624
49040366826
49040373968
49040379522
49040385259
49040391057
49040396489
49040401983
49040406011
49040411992
49040417547
49040423284
49040429204
49040433904
49040439153
49040444524
49040451116
49040456304
49040462590
49040466863
49040472234
49040480107
49040485478
49040490911
49040495000
49040500066
49040506230
49040510930
49040516789
49040521733
49040527165
49040533635
49040538701
49040543340
49040548955
49040554997
49040560491
49040567265
49040573430
49040580327
49040584660
49040590947
49040595403
49040600896
49040607426
49040612614
49040618474
49040625310
49040631596
49040636601
49040643071
49040647771
49040654179
49040658818
49040665715
49040671269
49040677189
49040683293
49040688786
49040694645
49040700078
49040704655
49040711064
49040716862
49040723027
49040727116
49040733036
49040738102
49040744145
49040749882
49040756535
49040762516
49040767094
49040772892
49040779118
49040784245
49040790165
49040795292
49040801396
49040808598
49040815067
49040820316
49040825871
49040830998
49040836186
49040841557
49040846745
49040852848
49040857426
49040862858
49040869389
49040874821
49040880558
49040885441
49040892948
49040897953
49040903751
49040908024
49040914921
49040919315
49040926151
49040931705
49040938541
49040944462
49040949161
49040955753
49040961857
49040968265
49040974125
49040978641
49040984012
49040990055
49040996219
49041000980
49041006900
49041012272
49041018924
49041024295
49041030277
49041035953
49041040592
49041046451
49041051334
49041057437
49041062686
49041068302
49041073490
49041078922
49041084415
49041089908
49041094608
49041100406
49041107181
49041112308
49041117984
49041122440
49041127689
49041132449
49041138187
49041143497
49041148990
49041153018
49041158511
49041163760
49041169986
49041176517
49041180789
49041186404
49041190616
49041195926
49041202457
49041208682
49041214053
49041219363
49041224795
49041230167
49041235843
49041241031
49041247806
49041253787
49041258914
49041263980
49041269046
49041273868
49041280520
49041286319
49041290774
49041296084
49041301822
49041306094
49041312869
49041317691
49041323062
49041327884
49041333010
49041338382
49041343386
49041348147
49041353823
49041359500
49041364566
49041368350
49041374819
49041380007
49041385317
49041390628
49041397341
49041401797
49041407229
49041412905
49041417056
49041422427
49041428286
49041433901
49041439150
49041445803
49041451052
49041456362
49041462527
49041467532
49041474917
49041481142
49041487063
49041493227
49041500430
49041504702
49041511477
49041516848
49041522829
49041528506
49041535097
49041539614
49041545779
49041551882
49041557009
49041562136
49041569460
49041574648
49041580568
49041584475
49041591555
49041596621
49041603518
49041608706
49041614199
49041619753
49041625673
49041631228
49041637270
49041642885
49041649050
49041654116
49041660463
49041666017
49041670290
49041676821
49041682741
49041687319
49041693361
49041698488
49041704470
49041710939
49041716921
49041722353
49041727846
49041734438
49041739504
49041744753
49041750917
49041756838
49041762148
49041767763
49041773256
49041780092
49041785524
49041791444
49041796571
49041802187
49041808412
49041814333
49041820985
49041825990
49041831483
49041836549
49041842958
49041848512
49041854310
49041859743
49041864625
49041871522
49041875978
49041882509
49041888551
49041893800
49041898805
49041905031
49041910157
49041915895
49041922364
49041927797
49041933839
49041938478
49041944032
49041949098
49041953187
49041960389
49041966432
49041972535
49041978028
49041983460
49041989320
49041997376
49042003053
49042007081
49042012452
49042019349
49042024842
49042030763
49042035584
49042040650
49042046815
49042051392
49042056397
49042063416
49042068787
49042074281
49042081116
49042086304
49042091798
49042097108
49042101807
49042108704
49042114075
49042119263
49042124879
49042130372
49042135743
49042141602
49042147523
49042151734
49042157105
49042162781
49042167908
49042172608
49042179078
49042184449
49042189087
49042194458
49042199341
49042204529
49042209473
49042215516
49042221192
49042226197
49042231446
49042236328
49042240052
49042247010
49042253113
49042258362
49042262635
49042267823
49042273743
49042279297
49042284119
49042290283
49042295716
49042300659
49042304749
49042311402
49042316345
49042321411
49042327088
49042332947
49042338135
49042343445
49042348328
49042353333
49042360230
49042365479
49042370911
49042377075
49042381775
49042386291
49042391296
49042397278
49042402161
49042407898
49042413452
49042418579
49042423340
49042428223
49042435364
49042440124
49042446106
49042452087
49042456116
49042462097
49042466980
49042473511
49042479309
49042484802
49042489990
49042494812
49042499939
49042504638
49042510498
49042516296
49042521850
49042526855
49042531372
49042537109
49042542541
49042548706
49042554016
49042559570
49042564575
49042570434
49042575073
49042580810
49042586853
49042593322
49042598876
49042605468
49042611144
49042618347
49042622863
49042630004
49042636230
49042643005
49042647094
49042653198
49042658691
49042664489
49042670348
49042676818
49042682128
49042688293
49042693481
49042698852
49042704223
49042708495
49042714355
49042718688
49042725341
49042730956
49042735900
49042741271
49042747252
49042753356
49042759398
49042766479
49042770995
49042776732
49042781493
49042787352
49042793883
49042800292
49042804625
49042811217
49042817443
49042822997
49042827147
49042834288
49042839049
49042844725
49042851256
49042856078
49042862609
49042867186
49042874144
49042878600
49042884215
49042890135
49042895323
49042900511
49042905211
49042911559
49042917967
49042923644
49042929747
49042933836
49042939574
49042946166
49042951537
49042957274
49042962401
49042966673
49042973998
49042979979
49042985106
49042990538
49042996336
49043001097
49043007140
49043012755
49043019285
49043023131
49043028685
49043034361
49043039671
49043045286
49043051451
49043056822
49043061155
49043066893
49043073485
49043078367
49043083128
49043088926
49043094847
49043101072
49043105406
49043110838
49043117613
49043122313
49043128050
49043133543
49043140135
49043146299
49043151792
49043157408
49043162962
49043167356
49043173338
49043180052
49043185301
49043191465
49043195677
49043203916
49043209654
49043215330
49043221617
49043226866
49043232481
49043238889
49043242735
49043248960
49043253477
49043261716
49043266966
49043272398
49043277769
49043284116
49043289243
49043295225
49043302061
49043308469
49043314756
49043322080
49043327573
49043333616
49043340146
49043344968
49043351865
49043356626
49043362363
49043367734
49043375791
49043380308
49043386838
49043393064
49043397458
49043402829
49043408139
49043415220
49043420530
49043424619
49043430356
49043436093
49043442685
49043448789
49043452695
49043459714
49043465085
49043470395
49043475705
49043483213
49043489438
49043494992
49043500241
49043505063
49043509824
49043515927
49043521176
49043526669
49043533383
49043537961
49043543698
49043547910
49043553769
49043559750
49043564816
49043569394
49043573911
49043579709
49043584836
49043590512
49043595151
49043600949
49043606747
49043610226
49043615719
49043620602
49043627499
49043633176
49043637936
49043642209
49043648251
49043652829
49043658566
49043663266
49043668942
49043674862
49043680417
49043686215
49043690487
49043696286
49043700436
49043706967
49043711850
49043718014
49043723385
49043727230
49043733700
49043737484
49043744381
49043749386
49043755673
49043760800
49043765255
49043770565
49043775875
49043779354
49043787350
49043792416
49043796017
49043802914
49043806820
49043812679
49043817318
49043822384
49043828243
49043834042
49043838558
49043844051
49043847775
49043853329
49043858028
49043864681
49043870541
49043875484
49043881405
49043886471
49043891293
49043895870
49043901913
49043908321
49043912472
49043918087
49043922970
49043928524
49043932308
49043938534
49043944576
49043949581
49043955318
49043959530
49043964840
49043970150
49043975033
49043981014
49043987667
49043992000
49043998348
49044003170
49044009273
49044014339
49044019100
49044025570
49044031307
49044036556
49044041439
49044047786
49044052608
49044059383
49044064937
49044070247
49044076717
49044082027
49044087276
49044093929
49044099849
49044105586
49044109249
49044115779
49044120662
49044127376
49044133357
49044138362
49044144344
49044149349
49044154781
49044160396
49044164607
49044171809
49044177486
49044183101
49044188716
49044194392
49044199702
49044205318
49044211482
49044216792
49044222835
49044226802
49044232600
49044239619
49044245967
49044251582
49044258235
49044263545
49044270137
49044275142
49044281306
49044287227
49044293086
49044297969
49044304133
49044311274
49044317805
49044323359
49044329158
49044334346
49044338923
49044344783
49044350093
49044355647
49044361323
49044366694
49044372065
49044377558
49044384028
49044389643
49044395320
49044400446
49044405512
49044410945
49044415705
49044422785
49044427851
49044433283
49044438899
49044444087
49044449030
49044453791
49044459467
49044465510
49044469782
49044475031
49044479121
49044486018
49044490961
49044496821
49044502497
49044506647
49044511835
49044517573
49044521479
49044528742
49044533747
49044539667
49044545527
49044551142
49044555720
49044560541
49044566340
49044572138
49044577692
49044584040
49044589228
49044595209
49044601252
49044606623
49044612909
49044619013
49044624018
49044629999
49044636774
49044641535
49044648615
49044654474
49044658686
49044665949
49044671015
49044676935
49044682062
49044687982
49044693170
49044699213
49044704950
49044711969
49044717035
49044723016
49044728632
49044734125
49044741144
49044747858
49044752618
49044758173
49044764703
49044771051
49044777582
49044783014
49044788568
49044794122
49044799676
49044804803
49044809320
49044814874
49044819818
49044825616
49044831354
49044836419
49044842218
49044846856
49044851678
49044857049
49044863214
49044869378
49044873712
49044878656
49044884149
49044888360
49044894769
49044900506
49044904901
49044910821
49044915887
49044920587
49044925409
49044930658
49044936151
49044941949
49044947442
49044952691
49044957330
49044961602
49044968316
49044974603
49044979913
49044986138
49044992791
49044999078
49045004083
49045011407
49045017144
49045022881
49045029107
49045034844
49045040337
49045045586
49045051507
49045058648
49045064080
49045069756
49045074944
49045080743
49045086419
49045093194
49045098626
49045104241
49045109917
49045116509
49045122613
49045129510
49045135247
49045140862
49045145562
49045151726
49045158318
49045164177
49045169671
49045174920
49045180108
49045185845
49045191338
49045196648
49045203362
49045208550
49045213005
49045217278
49045225273
49045230461
49045236321
49045242119
49045247185
49045252495
49045258415
49045264214
49045269646
49045275933
49045281609
49045286797
49045291985
49045297478
49045302727
49045309258
49045314995
49045320244
49045324577
49045332390
49045338127
49045342583
49045348503
49045354057
49045359306
49045366508
49045372063
49045377129
49045383354
49045387505
49045393120
49045398796
49045405510
49045411491
49045415947
49045420647
49045425773
49045431572
49045436516
49045442375
49045447746
49045452568
49045457878
49045462700
49045468010
49045473503
49045479728
49045485099
49045490104
49045495720
49045500419
49045506157
49045512016
49045518180
49045523429
49045527458
49045534050
49045538627
49045543998
49045550529
49045556144
49045561027
49045564994
49045571098
49045576164
49045581108
49045586418
49045592033
49045598014
49045602043
49045607719
49045613090
49045618583
49045624137
49045629752
49045634391
49045639762
49045644340
49045650626
49045654960
49045661246
49045666373
49045671378
49045676200
49045682243
49045687431
49045693595
49045699027
49045704642
49045710563
49045717399
49045722404
49045728202
49045734488
49045739493
49045746024
49045751761
49045758780
49045763846
49045768546
49045773795
49045780021
49045786307
49045789908
49045796744
49045802848
49045808341
49045813468
49045819083
49045824698
49045829337
49045837149
49045843436
49045847830
49045854361
49045859366
49045865164
49045870658
49045876151
49045882010
49045887320
49045893607
49045899527
49045906302
49045912650
49045918204
49045924490
49045928824
49045934561
49045939871
49045945181
49045951468
49045957877
49045963126
49045968558
49045974539
49045981131
49045985831
49045991141
49045997061
49046002981
49046009024
49046014944
49046019888
49046024893
49046030874
49046035452
49046040762
49046047415
49046052969
49046059134
49046064444
49046070120
49046075491
49046080130
49046086783
49046093374
49046098379
49046104971
49046113272
49046118154
49046124197
49046129751
49046134512
49046140188
49046144827
49046150076
49046157278
49046162466
49046168020
49046173025
49046178274
49046183706
49046189260
49046196951
49046201833
49046207571
49046214102
49046218862
49046225149
49046231130
49046236807
49046242849
49046248769
49046254995
49046259267
49046266042
49046272390
49046277578
49046282583
49046287160
49046292898
49046298269
49046302724
49046309865
49046316335
49046320608
49046326345
49046330739
49046335927
49046340383
49046348073
49046352956
49046358327
49046364003
49046369069
49046374440
49046378591
49046385793
49046391408
49046396474
49046400502
49046405690
49046411245
49046417348
49046422475
49046428456
49046432851
49046438466
49046443593
49046449330
49046454396
49046460378
49046465749
49046470998
49046476125
49046481557
49046486379
49046492909
49046498525
49046503285
49046508656
49046513051
49046518788
49046525197
49046529286
49046536549
49046540700
49046546071
49046551808
49046555653
49046561940
49046567128
49046572743
49046577992
49046583363
49046587819
49046593861
49046598256
49046604848
49046610890
49046616810
49046622731
49046628834
49046634755
49046641224
49046645558
49046651478
49046656971
49046662831
49046668751
49046673451
49046680409
49046686329
49046690419
49046696095
49046701222
49046708424
49046713978
49046720387
49046725392
49046730519
49046735768
49046742420
49046748097
49046752125
49046757984
49046764210
49046770252
49046776478
49046781544
49046786671
49046792774
49046798268
49046803883
49046809864
49046815113
49046821522
49046826649
49046832081
49046837879
49046842274
49046847950
49046854237
49046861256
49046866810
49046872547
49046878712
49046883533
49046889759
49046895069
49046899769
49046904896
49046910267
49046915455
49046920704
49046926624
49046932178
49046936939
49046942432
49046947254
49046952625
49046959217
49046963611
49046969532
49046975696
49046980335
49046986438
49046991077
49046996997
49047004078
49047008655
49047015125
49047022754
49047028125
49047033069
49047040149
49047045581
49047050342
49047056323
49047061878
49047068103
49047072620
49047078906
49047084216
49047088794
49047094226
49047099536
49047103870
49047110950
49047116626
49047121936
49047126819
49047131763
49047138049
49047142688
49047149341
49047156177
49047160999
49047168567
49047173816
49047179614
49047185229
49047190967
49047196826
49047202380
49047206958
49047212756
49047218493
49047224170
49047229663
49047236011
49047240893
49047246264
49047252368
49047257678
49047264331
49047270007
49047274341
49047280017
49047285815
49047292102
49047297595
49047302478
49047308703
49047314624
49047319934
49047325915
49047332141
49047337512
49047343676
49047349353
49047353137
49047359851
49047365466
49047371142
49047377490
49047382678
49047388476
49047392993
49047398486
49047405322
49047411242
49047417346
49047424487
49047428515
49047434924
49047440661
49047446154
49047451647
49047457568
49047463549
49047469591
49047475085
49047480639
49047486559
49047491808
49047497301
49047504442
49047509752
49047515063
49047520678
49047525866
49047529589
49047535509
49047540575
49047547472
49047553881
49047559496
49047565233
49047569628
49047574511
49047580736
49047585985
49047591417
49047598253
49047602770
49047608873
49047613390
49047621569
49047625902
49047632616
49047636156
49047642931
49047648119
49047653246
49047659044
49047664354
49047669176
49047674364
49047678575
49047683885
49047690050
49047696398
49047700792
49047707628
49047711717
49047717760
49047722887
49047728990
49047735155
49047741014
49047746751
49047752306
49047756700
49047762376
49047770006
49047774522
49047781724
49047787218
49047792345
49047797838
49047804429
49047808397
49047814439
49047821458
49047826646
49047832994
49047837449
49047844041
49047850023
49047853990
49047859544
49047864854
49047872484
49047877855
49047883653
49047888902
49047895250
49047900376
49047905992
49047912400
49047917588
49047922837
49047927598
49047934190
49047940782
49047947190
49047951646
49047958055
49047963487
49047969712
49047974900
49047981797
49047986314
49047991746
49047997544
49048002488
49048009385
49048013596
49048020005
49048025132
49048030930
49048035935
49048043076
49048049424
49048054795
49048060044
49048065476
49048071397
49048077073
49048082688
49048086472
49048093186
49048099229
49048104844
49048110276
49048116562
49048122483
49048127671
49048133713
49048139023
49048144272
49048150742
49048155625
49048162278
49048167405
49048172532
49048178086
49048183640
49048189682
49048195542
49048201645
49048206955
49048212632
49048219345
49048225571
49048231797
49048238755
49048243088
49048249253
49048255112
49048260422
49048267502
49048273606
49048278916
49048283859
49048288742
49048293259
49048299606
49048304489
49048310165
49048315720
49048320786
49048324509
49048331345
49048336411
49048342636
49048347397
49048353073
49048359116
49048363876
49048368332
49048374741
49048379867
49048386154
49048393600
49048398971
49048405197
49048410873
49048417404
49048422409
49048427597
49048433151
49048439438
49048445419
49048450790
49048455978
49048462082
49048467086
49048472885
49048478439
49048483810
49048488998
49048494613
49048499496
49048506027
49048511093
49048515976
49048522384
49048528671
49048534286
49048539901
49048544418
49048551315
49048555526
49048560958
49048566207
49048571700
49048576339
49048580123
49048583785
49048587631
49048591110
49048596053
49048599654
49048604171
49048608138
49048612716
49048617233
49048621078
49048625228
49048629562
49048633773
49048638290
49048642135
49048645736
49048651534
49048656112
49048660689
49048666366
49048670638
49048675277
49048680099
49048684371
49048688582
49048692672
49048697310
49048702743
49048706954
49048710372
49048714095
49048720260
49048725326
49048729232
49048734176
49048739181
49048743941
49048749129
49048754439
49048757735
49048762130
49048767440
49048771895
49048777327
49048781661
49048785933
49048790999
49048795394
49048800643
49048807235
49048811751
49048816085
49048819869
49048823714
49048829390
49048833663
49048838790
49048843611
49048847823
49048851485
49048855574
49048861922
49048866194
49048870955
49048874861
49048878523
49048883406
49048887557
49048891280
49048897322
49048900435
49048905562
49048909834
49048914168
49048919661
49048924422
49048928389
49048933455
49048937483
49048942793
49048946700
49048950728
49048955183
49048960127
49048964766
49048968611
49048972334
49048978010
49048982222
49048987044
49048992293
49048996687
49049000715
49049004988
49049009871
49049014204
49049020064
49049023970
49049027815
49049033003
49049037581
49049041487
49049046797
49049050703
49049054854
49049060408
49049063948
49049068953
49049073164
49049077436
49049081770
49049085737
49049091475
49049094892
49049099836
49049104109
49049108381
49049111921
49049116072
49049121138
49049125654
49049131391
49049136885
49049140791
49049145185
49049149153
49049153669
49049158857
49049163008
49049167158
49049171369
49049176313
49049180280
49049184126
49049188215
49049192426
49049195722
49049200300
49049205000
49049210432
49049214948
49049219709
49049223066
49049227949
49049232099
49049236555
49049240949
49049244489
49049249250
49049253828
49049257978
49049262250
49049268537
49049271772
49049276227
49049281476
49049285078
49049290266
49049293806
49049297407
49049301618
49049304792
49049309492
49049314252
49049318464
49049322553
49049326520
49049331037
49049335492
49049340436
49049343793
49049348676
49049352521
49049357282
49049362226
49049367109
49049371503
49049376020
49049380536
49049383893
49049388288
49049392682
49049395429
49049399518
49049404584
49049409040
49049413129
49049417035
49049421430
49049427167
49049431623
49049435529
49049440412
49049444074
49049447797
49049451825
49049456708
49049460919
49049465253
49049468305
49049472272
49049477460
49049482709
49049486249
49049492230
49049496442
49049502362
49049506207
49049510602
49049514691
49049519269
49049523175
49049528485
49049532758
49049536053
49049540387
49049544659
49049549664
49049553082
49049556744
49049561078
49049565472
49049569318
49049574628
49049578473
49049583234
49049587262
49049592755
49049596295
49049601422
49049605511
49049610028
49049612958
49049619183
49049623944
49049627728
49049631939
49049634930
49049639813
49049644696
49049648663
49049652752
49049657513
49049660260
49049664410
49049668377
49049675091
49049679058
49049683514
49049688702
49049692425
49049697857
49049702740
49049707012
49049711163
49049716778
49049720074
49049734295
49049738629
49049743756
49049748272
49049751446
49049756085
49049760967
49049766094
49049771282
49049774761
49049779217
49049783001
49049786724
49049791607
49049795208
49049799481
49049804546
49049809673
49049813824
49049819073
49049823284
49049827862
49049831951
49049835613
49049840130
49049844646
49049848247
49049853252
49049856914
49049862408
49049866924
49049870098
49049875286
49049880230
49049884746
49049889385
49049892925
49049896709
49049901409
49049906780
49049910808
49049914531
49049918865
49049922649
49049928447
49049932598
49049936565
49049942363
49049948345
49049952739
49049957195
49049962017
49049965618
49049971538
49049975383
49049979961
49049984661
49049988689
49049993694
49049999065
49050002483
49050007183
49050010417
49050015972
49050020244
49050023601
49050027873
49050032939
49050036968
49050042156
49050046733
49050051860
49050057048
49050060649
49050065410
49050069438
49050074993
49050079082
49050083354
49050088420
49050091594
49050095683
49050100017
49050104228
49050108012
49050112407
49050115764
49050118877
49050122112
49050125652
49050128581
49050132182
49050134502
49050137675
49050141215
49050143962
49050147197
49050150737
49050153300
49050155742
49050158916
49050161967
49050164714
49050167644
49050170329
49050173198
49050176250
49050178691
49050181804
49050184733
49050188396
49050191752
49050194621
49050197368
49050200175
49050202861
49050205852
49050209208
49050211894
49050214946
49050217998
49050221721
49050224528
49050227763
49050231181
49050234965
49050237773
49050240703
49050244670
49050247661
49050250468
49050254435
49050257914
49050261149
49050263774
49050267497
49050270732
49050273784
49050276164
49050279277
49050282450
49050285685
49050289103
49050291423
49050294596
49050296916
49050299845
49050302531
49050305583
49050308085
49050310588
49050312724
49050315043
49050316874
49050319316
49050321147
49050323405
49050325419
49050327311
49050329264
49050331156
49050333171
49050334880
49050337077
49050338786
49050340678
49050342753
49050344584
49050346903
49050348734
49050350627
49050352397
49050354228
49050356486
49050358622
49050360392
49050362223
49050364054
49050366068
49050367961
49050369731
49050371623
49050373881
49050375712
49050377604
49050379557
49050381388
49050383341
49050385172
49050387126
49050389201
49050391154
49050392985
49050394938
49050396952
49050399149
49050401164
49050402934
49050405009
49050406901
49050408915
49050410929
49050412821
49050414652
49050416361
49050418497
49050420451
49050422404
49050424296
49050426188
49050428324
49050430216
49050432352
49050434183
49050436198
49050437907
49050439738
49050442118
49050444010
49050445902
49050447733
49050449442
49050451762
49050453837
49050456034
49050458048
49050460123
49050462199
49050464152
49050466288
49050468180
49050470133
49050472269
49050474161
49050476298
49050478373
49050480387
49050482218
49050484232
49050486307
49050488260
49050490153
49050492167
49050494181
49050496378
49050498270
49050500345
49050502360
49050504374
49050506449
49050508341
49050510538
49050512491
49050514322
49050516520
49050518351
49050520609
49050522623
49050524698
49050526529
49050528544
49050530436
49050532511
49050534342
49050536417
49050538370
49050540262
49050542215
49050544535
49050546183
49050548380
49050550028
49050552042
49050554361
49050556315
49050558268
49050560221
49050562174
49050564310
49050566202
49050568460
49050570169
49050572184
49050574442
49050576395
49050578348
49050580240
49050582438
49050584452
49050586161
49050588358
49050590128
49050592020
49050593912
49050595682
49050597940
49050599894
49050602152
49050603739
49050605875
49050608133
49050610086
49050612345
49050614603
49050616922
49050618814
49050620767
49050622782
49050624735
49050626810
49050628824
49050630655
49050632730
49050634867
49050636637
49050638407
49050640543
49050642374
49050644449
49050646219
49050648111
49050650003
49050651956
49050654032
49050656046
49050657999
49050659830
49050661844
49050663736
49050665628
49050667520
49050669412
49050671121
49050673136
49050675394
49050677164
49050678995
49050680826
49050682718
49050684915
49050686929
49050688638
49050690714
49050692728
49050694559
49050696329
49050698343
49050700113
49050702066
49050703897
49050705911
49050708109
49050709879
49050711893
49050713785
49050715921
49050717874
49050719766
49050722025
49050723734
49050725504
49050727884
49050729776
49050732034
49050733926
49050736002
49050738138
49050740335
49050742166
49050743997
49050745889
49050747598
49050749429
49050751382
49050753274
49050755167
49050756998
49050758829
49050761026
49050762857
49050764749
49050766885
49050768838
49050771036
49050773111
49050775430
49050777200
49050779153
49050780923
49050783060
49050785135
49050786966
49050789163
49050790872
49050792886
49050794839
49050796914
49050798868
49050800638
49050802469
49050804422
49050806192
49050808145
49050809976
49050811746
49050813577
49050815530
49050817666
49050819742
49050821634
49050823648
49050825784
49050828042
49050829995
49050831827
49050834024
49050836160
49050838235
49050840249
49050842569
49050844461
49050846475
49050848306
49050850259
49050852700
49050854532
49050856668
49050858560
49050860391
49050862222
49050864175
49050866006
49050867715
49050869607
49050871865
49050873880
49050875650
49050877664
49050879678
49050881875
49050883584
49050885842
49050887735
49050889627
49050891824
49050893960
49050896341
49050898172
49050900003
49050901956
49050903848
49050905923
49050907937
49050909890
49050911843
49050913797
49050915567
49050917337
49050919229
49050921243
49050923196
49050924966
49050926675
49050928872
49050930581
49050932473
49050934487
49050936379
49050938516
49050940530
49050942422
49050944497
49050946389
49050948709
49050950723
49050952798
49050954934
49050957131
49050959268
49050961099
49050963235
49050965127
49050967080
49050968972
49050971047
49050972939
49050974709
49050976602
49050978555
49050980508
49050982705
49050984719
49050986733
49050988503
49050990579
49050992715
49050994424
49050996316
49050998391
49051000222
49051002358
49051004128
49051006387
49051008218
49051010049
49051011941
49051013955
49051016213
49051018105
49051019997
49051021890
49051024270
49051026101
49051027932
49051029946
49051031899
49051033486
49051035500
49051037392
49051039407
49051041299
49051043191
49051045083
49051046792
49051048989
49051050881
49051052956
49051054909
49051056740
49051058999
49051060952
49051063027
49051064919
49051066872
49051069009
49051070840
49051072488
49051074624
49051076638
49051078591
49051080422
49051082558
49051084450
49051086403
49051088235
49051090493
49051092568
49051094521
49051096963
49051099160
49051100930
49051102883
49051104897
49051106850
49051108925
49051110695
49051113076
49051115090
49051117409
49051119240
49051121316
49051122963
49051124917
49051126992
49051128762
49051130593
49051132546
49051134560
49051136391
49051138466
49051140236
49051142067
49051144082
49051146035
49051147988
49051150124
49051151833
49051154213
49051155983
49051158059
49051160439
49051162270
49051164345
49051166298
49051168190
49051170388
49051172463
49051174477
49051176369
49051178200
49051180336
49051182228
49051183998
49051185952
49051188088
49051189858
49051191811
49051193947
49051195900
49051197975
49051199990
49051202004
49051204018
49051205971
49051207863
49051209755
49051211769
49051213967
49051215920
49051217995
49051219704
49051222084
49051224037
49051225746
49051227883
49051229714
49051231789
49051233681
49051235756
49051237831
49051239662
49051241432
49051243569
49051245888
49051247658
49051249611
49051251503
49051253334
49051255593
49051257729
49051259560
49051261818
49051263588
49051265663
49051267738
49051269631
49051271828
49051273842
49051275612
49051277565
49051279945
49051282143
49051284035
49051286049
49051287941
49051290138
49051291847
49051293861
49051295631
49051297463
49051299294
49051301247
49051303261
49051305458
49051307350
49051309242
49051311073
49051312904
49051315041
49051317116
49051318886
49051320717
49051322853
49051325172
49051327065
49051329079
49051330971
49051333168
49051335365
49051337379
49051339394
49051341408
49051343544
49051345497
49051347572
49051349220
49051351051
49051353004
49051354774
49051356666
49051358742
49051360695
49051362709
49051364540
49051366554
49051368873
49051370521
49051372719
49051374672
49051377296
49051379249
49051381080
49051383400
49051385109
49051387245
49051389076
49051390968
49051393410
49051395180
49051396950
49051398964
49051400917
49051403175
49051405250
49051406959
49051408912
49051410927
49051412880
49051414833
49051416908
49051418861
49051420814
49051422645
49051424476
49051426613
49051428688
49051430946
49051432838
49051434791
49051437050
49051438820
49051440773
49051442665
49051445106
49051446937
49051448646
49051450477
49051452491
49051454506
49051456459
49051458534
49051460487
49051462440
49051464332
49051466163
49051468361
49051470192
49051471901
49051473732
49051475685
49051478187
49051480140
49051482032
49051483924
49051485817
49051488258
49051490150
49051492103
49051494300
49051496376
49051498573
49051500648
49051502845
49051504982
49051506813
49051508766
49051510536
49051512794
49051514808
49051516578
49051518470
49051520362
49051522560
49051524452
49051526283
49051528175
49051529884
49051532325
49051534217
49051536048
49051538062
49051540016
49051542274
49051544105
49051545875
49051548011
49051549964
49051552345
49051554176
49051556129
49051558387
49051560218
49051562171
49051564247
49051566139
49051568275
49051570228
49051572059
49051573829
49051575782
49051577674
49051579688
49051582008
49051583839
49051585670
49051587684
49051589637
49051591773
49051593726
49051595863
49051597633
49051599952
49051601844
49051603858
49051605750
49051607703
49051609901
49051611793
49051613685
49051615699
49051618018
49051619971
49051621741
49051623634
49051625709
49051628089
49051630042
49051631934
49051634315
49051636268
49051638099
49051640052
49051641761
49051644080
49051645972
49051648170
49051650184
49051652198
49051654456
49051656592
49051658790
49051660865
49051662879
49051664832
49051666602
49051668983
49051670875
49051672584
49051674842
49051676734
49051678931
49051680701
49051682838
49051684791
49051686927
49051688880
49051690772
49051692664
49051694800
49051696753
49051698829
49051700843
49051702918
49051705054
49051706885
49051708838
49051711341
49051713111
49051715125
49051717078
49051718970
49051721290
49051723182
49051725074
49051726844
49051728614
49051730689
49051732825
49051734717
49051736609
49051738624
49051740455
49051742347
49051744483
49051746375
49051748328
49051750342
49051752234
49051754493
49051756263
49051758338
49051760474
49051762427
49051764746
49051766700
49051768714
49051770972
49051772925
49051774878
49051776587
49051778968
49051781287
49051783118
49051785010
49051786841
49051789222
49051790992
49051792823
49051794654
49051796729
49051798682
49051800513
49051802527
49051804541
49051806372
49051808875
49051810828
49051813086
49051814978
49051816809
49051819007
49051821143
49051823706
49051825598
49051827429
49051829260
49051831275
49051833350
49051835181
49051837317
49051839270
49051841162
49051843054
49051845069
49051847022
49051848853
49051850684
49051852576
49051854468
49051856421
49051858130
49051860205
49051861975
49051863989
49051866248
49051868079
49051870215
49051871924
49051873877
49051876135
49051878150
49051880286
49051882361
49051884375
49051886328
49051888159
49051890662
49051892493
49051894446
49051896277
49051898230
49051900427
49051902197
49051904028
49051905981
49051907935
49051910193
49051912024
49051914160
49051916174
49051918127
49051920325
49051922217
49051924597
49051926855
49051928809
49051931067
49051933081
49051935522
49051937476
49051939490
49051941565
49051943518
49051945349
49051947302
49051949316
49051951392
49051953406
49051955176
49051957068
49051958960
49051960913
49051962683
49051964819
49051966711
49051968848
49051970923
49051972571
49051974463
49051976660
49051978735
49051980688
49051982702
49051984656
49051986914
49051988806
49051990942
49051992834
49051994909
49051997046
49051999060
49052000952
49052003149
49052005102
49052007116
49052008948
49052011206
49052013342
49052015173
49052017126
49052019018
49052021216
49052022986
49052025000
49052027014
49052028906
49052031103
49052032995
49052035315
49052037146
49052039648
49052041418
49052043310
49052045507
49052047400
49052049963
49052051916
49052053808
49052056128
49052057898
49052059851
49052061621
49052063879
49052065832
49052067663
49052069555
49052071508
49052073400
49052075293
49052077307
49052079199
49052081213
49052083532
49052085363
49052087988
49052089941
49052091955
49052093786
49052095678
49052097937
49052099890
49052102148
49052104162
49052105871
49052108129
49052110205
49052112036
49052114172
49052115942
49052117895
49052119909
49052121862
49052123815
49052126013
49052127905
49052129980
49052132177
49052134130
49052136022
49052139501
49052142736
49052145117
49052146826
49052149206
49052151098
49052153051
49052155309
49052157263
49052159277
49052161230
49052163366
49052165197
49052167089
49052169409
49052171545
49052173498
49052175512
49052177343
49052179601
49052181555
49052183569
49052185522
49052187231
49052189489
49052191442
49052193395
49052195226
49052196935
49052199255
49052201269
49052203649
49052205480
49052207800
49052209570
49052211523
49052213537
49052215490
49052217260
49052219091
49052221166
49052223058
49052225072
49052226781
49052228674
49052230688
49052232580
49052234655
49052236669
49052238561
49052240636
49052242284
49052244115
49052246252
49052248144
49052250036
49052251928
49052253820
49052255895
49052257665
49052259618
49052261327
49052263158
49052265356
49052267309
49052269140
49052271154
49052272924
49052274938
49052276769
49052278722
49052280553
49052282506
49052284154
49052286046
49052288000
49052289892
49052291784
49052293615
49052295507
49052297643
49052299657
49052301671
49052303441
49052305761
49052308141
49052309972
49052312291
49052314184
49052316015
49052318090
49052319982
49052322179
49052324010
49052325963
49052327977
49052329747
49052331884
49052334142
49052335973
49052337865
49052339696
49052341588
49052343358
49052345495
49052347448
49052349279
49052351049
49052352941
49052354955
49052356969
49052358861
49052360692
49052362767
49052364965
49052366857
49052368688
49052370702
49052372716
49052374852
49052376561
49052378637
49052380529
49052382543
49052384435
49052386205
49052388158
49052390111
49052392064
49052394200
49052396215
49052398351
49052400121
49052402074
49052403966
49052406041
49052408116
49052410436
49052412450
49052414220
49052416234
49052418187
49052420323
49052422399
49052424291
49052426122
49052428197
49052429906
49052432408
49052434239
49052436315
49052438512
49052440343
49052442235
49052444432
49052446752
49052448461
49052450414
49052452794
49052454564
49052456639
49052458409
49052460240
49052462316
49052464269
49052466283
49052468297
49052470189
49052472447
49052474339
49052476781
49052478795
49052481114
49052482884
49052484776
49052486974
49052489049
49052490941
49052492772
49052494603
49052496983
49052498814
49052500645
49052502660
49052504613
49052506383
49052508580
49052510472
49052512303
49052514317
49052516331
49052518285
49052520360
49052522374
49052524327
49052526219
49052528538
49052530797
49052532567
49052534886
49052536717
49052539036
49052540990
49052542943
49052545262
49052546910
49052548802
49052550938
49052552891
49052554661
49052556615
49052558629
49052560521
49052562230
49052564427
49052566197
49052567906
49052569676
49052571690
49052573765
49052575657
49052577611
49052579503
49052581456
49052583348
49052585545
49052587620
49052589573
49052591405
49052593358
49052595128
49052597325
49052599400
49052600926
49052603062
49052605137
49052607091
49052608861
49052610936
49052612828
49052614842
49052616795
49052618443
49052620640
49052622471
49052624485
49052626256
49052628148
49052630223
49052632115
49052634068
49052636021
49052637913
49052640171
49052642125
49052644139
49052645970
49052647984
49052650181
49052652256
49052654087
49052655735
49052657750
49052659581
49052661534
49052663609
49052665379
49052667210
49052669224
49052671299
49052672947
49052674900
49052676854
49052678440
49052680516
49052682652
49052684483
49052686497
49052688328
49052690342
49052692478
49052694371
49052696568
49052698399
49052700291
49052702427
49052704380
49052706394
49052708348
49052710362
49052712193
49052714207
49052716282
49052718113
49052719944
49052721775
49052723545
49052725620
49052727513
49052729588
49052731419
49052733311
49052735325
49052737339
49052739231
49052741123
49052743015
49052745152
49052747105
49052749424
49052751194
49052753269
49052755039
49052756992
49052759251
49052761082
49052762913
49052764866
49052766880
49052768711
49052770664
49052772495
49052774143
49052776402
49052777989
49052779942
49052782383
49052784214
49052786167
49052788364
49052790440
49052792698
49052794651
49052796665
49052798557
49052800755
49052802952
49052804905
49052806858
49052808689
49052810886
49052812778
49052814487
49052816685
49052818577
49052820713
49052822727
49052824680
49052826878
49052828709
49052830479
49052832493
49052834751
49052836521
49052838474
49052840549
49052842564
49052844883
49052846653
49052848606
49052850559
49052852634
49052854771
49052856724
49052858738
49052860691
49052862644
49052864719
49052866733
49052868503
49052870640
49052872532
49052874424
49052876438
49052878330
49052880344
49052882480
49052884434
49052886448
49052888157
49052890171
49052891941
49052893955
49052895908
49052897800
49052899814
49052901890
49052904026
49052905857
49052908176
49052910129
49052912632
49052914524
49052916355
49052918613
49052920444
49052922580
49052924411
49052926365
49052928135
49052930027
49052932041
49052933994
49052936069
49052937595
49052939731
49052941745
49052943821
49052945835
49052947666
49052949558
49052951694
49052953464
49052955845
49052957615
49052959507
49052961460
49052963352
49052965427
49052967136
49052969455
49052971286
49052973301
49052975437
49052977512
49052979831
49052981784
49052983554
49052985569
49052987583
49052989719
49052991550
49052993503
49052995395
49052997348
49052999179
49053001071
49053003147
49053004795
49053006687
49053008701
49053010410
49053012912
49053014682
49053016635
49053018588
49053020481
49053022739
49053024631
49053026584
49053028598
49053030673
49053032749
49053034641
49053036411
49053038059
49053040134
49053041965
49053043796
49053045871
49053047580
49053049655
49053051547
49053053317
49053055271
49053057163
49053059116
49053061069
49053063022
49053065219
49053067233
49053069309
49053071079
49053073093
49053075290
49053077060
49053079379
49053081088
49053083164
49053084811
49053086704
49053088962
49053090671
49053092746
49053094638
49053096652
49053098300
49053100131
49053102206
49053104221
49053106174
49053108188
49053109958
49053112094
49053113864
49053115878
49053117953
49053119846
49053121982
49053123752
49053125644
49053127353
49053129550
49053131869
49053134006
49053136081
49053137851
49053139743
49053141879
49053143832
49053145724
49053147861
49053149814
49053151706
49053153720
49053155673
49053157321
49053159091
49053161044
49053162936
49053164767
49053166843
49053168918
49053170688
49053172580
49053174960
49053176791
49053178744
49053180575
49053182712
49053184726
49053186679
49053188327
49053190341
49053192355
49053194247
49053196017
49053198031
49053200168
49053201938
49053203769
49053205905
49053207858
49053209567
49053211764
49053213534
49053215671
49053217929
49053219821
49053221774
49053223788
49053225802
49053227878
49053229709
49053232028
49053233859
49053235812
49053237765
49053239474
49053241732
49053243625
49053245517
49053247653
49053249606
49053251559
49053253573
49053255404
49053257357
49053259188
49053261142
49053262912
49053265109
49053267245
49053269198
49053271029
49053272860
49053274997
49053276889
49053278842
49053280917
49053282992
49053285250
49053287081
49053288851
49053290988
49053292819
49053295138
49053296908
49053298800
49053300509
49053302706
49053304782
49053306430
49053308322
49053310336
49053312167
49053314120
49053316195
49053318148
49053319979
49053321810
49053323763
49053325900
49053327792
49053329684
49053331515
49053333773
49053335543
49053337741
49053339572
49053341525
49053343905
49053345675
49053347689
49053349520
49053352084
49053353854
49053355685
49053357394
49053359347
49053361727
49053363558
49053365634
49053367526
49053369540
49053371249
49053373080
49053375094
49053376925
49053378817
49053381258
49053383090
49053384982
49053387118
49053389132
49053391268
49053393282
49053395602
49053397494
49053399630
49053401339
49053403109
49053405367
49053407198
49053409151
49053410921
49053412875
49053415011
49053416720
49053418673
49053420443
49053422457
49053424410
49053426241
49053428316
49053430025
49053432162
49053433749
49053435702
49053437838
49053439730
49053441561
49053443453
49053445223
49053447420
49053449496
49053451388
49053453707
49053455599
49053457552
49053459566
49053461458
49053463534
49053465304
49053467196
49053469027
49053471041
49053472811
49053474764
49053476595
49053478487
49053480440
49053482516
49053484469
49053486361
49053488131
49053490267
49053492281
49053494112
49053496248
49053498079
49053500460
49053502535
49053504915
49053506868
49053508761
49053510775
49053512728
49053515047
49053516878
49053519075
49053520968
49053522921
49053524996
49053527071
49053529085
49053530794
49053532869
49053534639
49053536532
49053538424
49053540560
49053542696
49053544771
49053546663
49053548861
49053550692
49053552645
49053554598
49053556612
49053558809
49053560701
49053562593
49053564852
49053566805
49053569002
49053570955
49053572969
49053574923
49053576937
49053578890
49053580782
49053582613
49053584505
49053586397
49053588411
49053590181
49053592012
49053594026
49053595980
49053597750
49053599764
49053601900
