49238371935
49238378343
49238384447
49238390795
49238396410
49238403490
49238408373
49238413500
49238419481
49238426683
49238432482
49238438707
49238445665
49238452501
49238458910
49238467027
49238474901
49238481371
49238489000
49238495897
49238502733
49238510179
49238519090
49238527330
49238533617
49238540086
49238546556
49238553453
49238559984
49238566148
49238574693
49238584092
49238591722
49238597215
49238604051
49238610093
49238617906
49238625535
49238631944
49238639329
49238645677
49238653062
49238660386
49238668077
49238674363
49238682237
49238688401
49238695725
49238703782
49238711534
49238720689
49238729356
49238735703
49238742661
49238751817
49238758714
49238764573
49238774216
49238782212
49238788621
49238795090
49238801743
49238810288
49238818833
49238826401
49238834885
49238841782
49238849473
49238856431
49238863022
49238871262
49238880173
49238886643
49238895432
49238902634
49238908860
49238917283
49238924851
49238933518
49238939804
49238947068
49238953659
49238962204
49238967881
49238976120
49238983689
49238988938
49238997605
49239004685
49239010422
49239018906
49239027573
49239033493
49239043747
49239050949
49239057968
49239065048
49239073593
49239085129
49239094711
49239100143
49239108932
49239115768
49239123459
49239131760
49239139145
49239147995
49239154342
49239159714
49239169662
49239175644
49239183822
49239193771
49239200546
49239206649
49239213668
49239220687
49239229782
49239235397
49239243698
49239251327
49239258163
49239267562
49239273605
49239282760
49239288925
49239297714
49239303390
49239312057
49239315658
49239326461
49239333663
49239342391
49239349715
49239355819
49239363143
49239369735
49239377425
49239383834
49239392562
49239401107
49239407882
49239414779
49239423568
49239430526
49239439071
49239445907
49239454574
49239463912
49239471908
49239478743
49239486556
49239493636
49239499556
49239508956
49239518599
49239525801
49239533736
49239541548
49239548018
49239555770
49239561812
49239572249
49239577376
49239588973
49239595198
49239604415
49239610457
49239619124
49239627791
49239635542
49239641829
49239650618
49239657332
49239666365
49239674178
49239682112
49239688155
49239697432
49239703963
49239713118
49239721663
49239729597
49239735457
49239744612
49239750410
49239758528
49239766768
49239774336
49239782881
49239789351
49239796919
49239804731
49239813276
49239820478
49239829756
49239839949
49239847395
49239854658
49239863874
49239869062
49239878523
49239886701
49239894148
49239902693
49239912397
49239916792
49239927534
49239931684
49239943159
49239949384
49239957929
49239965009
49239976606
49239983625
49239993879
49240000837
49240010847
49240018110
49240028303
49240035932
49240046857
49240055158
49240062299
49240072004
49240079694
49240088178
49240095380
49240106549
49240114301
49240124311
49240132184
49240136701
49240149274
49240153791
49240164960
49240174420
49240182172
49240188642
49240198224
49240204450
49240213910
49240220197
49240228803
49240237775
49240245831
49240254926
49240263715
49240270428
49240280133
49240289105
49240297406
49240306744
49240315472
49240322064
49240332013
49240337140
49240346112
49240353253
49240359540
49240367352
49240374859
49240381451
49240388043
49240394635
49240401837
49240408184
49240416607
49240424359
49240431500
49240438885
49240446331
49240452740
49240460308
49240467388
49240474652
49240483868
49240491314
49240498577
49240506573
49240514568
49240522198
49240528607
49240537884
49240546124
49240552654
49240559856
49240564678
49240572063
49240577190
49240587749
49240597149
49240604412
49240609783
49240616009
49240622784
49240630230
49240638347
49240644695
49240652874
49240660076
49240669109
49240678264
49240686321
49240694988
49240704509
49240712383
49240720745
49240729656
49240735759
49240745220
49240755107
49240762981
49240770732
49240777263
49240783306
49240790691
49240796794
49240802715
49240808635
49240814372
49240820598
49240826274
49240831523
49240837749
49240842204
49240850078
49240856242
49240862468
49240867107
49240872234
49240878825
49240884807
49240891276
49240896159
49240902080
49240907878
49240914409
49240920573
49240925700
49240931438
49240936992
49240944377
49240948405
49240954081
49240960368
49240966105
49240971476
49240978129
49240983806
49240989543
49240995219
49241001445
49241006572
49241011699
49241018168
49241023478
49241029399
49241034159
49241040873
49241046488
49241050517
49241057780
49241062846
49241068156
49241074381
49241079447
49241086161
49241090556
49241095255
49241101603
49241107890
49241112711
49241118388
49241124186
49241129008
49241135050
49241140238
49241146342
49241150614
49241157084
49241162333
49241167277
49241172892
49241178873
49241183939
49241189555
49241195170
49241201334
49241206766
49241211100
49241217814
49241222635
49241227885
49241234110
49241239054
49241245341
49241250773
49241257120
49241263407
49241268107
49241273417
49241279703
49241283670
49241290201
49241294840
49241300455
49241307047
49241312174
49241317362
49241323832
49241330057
49241335733
49241340433
49241345865
49241350931
49241356729
49241362955
49241367655
49241373331
49241378397
49241384683
49241390482
49241396829
49241403055
49241408060
49241412821
49241419107
49241425516
49241431375
49241437357
49241441568
49241447977
49241454019
49241458414
49241464151
49241471414
49241476358
49241482461
49241487588
49241493265
49241499368
49241505716
49241510599
49241516336
49241521402
49241527749
49241533060
49241539346
49241544839
49241548868
49241554422
49241560891
49241565713
49241571634
49241577676
49241582498
49241588479
49241592996
49241598184
49241603494
49241608499
49241614724
49241619363
49241626260
49241631021
49241636087
49241642434
49241649209
49241654885
49241661172
49241665628
49241671792
49241677468
49241682534
49241687966
49241693948
49241699075
49241705178
49241709939
49241715127
49241719521
49241728005
49241732949
49241738931
49241744546
49241749612
49241755349
49241762307
49241766763
49241774026
49241778481
49241784768
49241790505
49241796731
49241801736
49241808694
49241813454
49241819008
49241825600
49241832131
49241837624
49241844338
49241849404
49241854714
49241861306
49241866616
49241873024
49241877358
49241883156
49241888894
49241892983
49241899514
49241906777
49241911843
49241918068
49241923073
49241929177
49241935646
49241941750
49241946816
49241953041
49241956642
49241963356
49241967934
49241973610
49241979775
49241986855
49241991860
49241996559
49242001808
49242008339
49242012062
49242017799
49242023537
49242028603
49242033791
49242039955
49242045265
49242051430
49242057228
49242064003
49242069069
49242073097
49242080055
49242085121
49242091164
49242093849
49242101112
49242105385
49242110878
49242116371
49242121864
49242127601
49242131569
49242138160
49242142982
49242148292
49242154274
49242160194
49242166359
49242171669
49242177162
49242181434
49242186378
49242191139
49242196327
49242202980
49242206703
49242213295
49242217750
49242223060
49242228920
49242234291
49242240638
49242245826
49242251625
49242256324
49242260902
49242266090
49242271827
49242278419
49242282752
49242288062
49242293006
49242299598
49242304542
49242309974
49242315162
49242321815
49242328468
49242334754
49242341041
49242346900
49242353370
49242358802
49242363380
49242369666
49242375220
49242379371
49242386939
49242392493
49242397315
49242403541
49242408362
49242413978
49242420142
49242424415
49242431128
49242436622
49242442054
49242449073
49242455420
49242460059
49242466529
49242472876
49242477576
49242483924
49242488562
49242495704
49242500830
49242505347
49242512549
49242518042
49242521949
49242529883
49242534888
49242540259
49242546424
49242551184
49242558814
49242564551
49242568213
49242575049
49242580359
49242585059
49242590979
49242597876
49242602515
49242608618
49242613867
49242619238
49242624487
49242630347
49242635962
49242641333
49242646643
49242652075
49242657446
49242663489
49242669348
49242674109
49242681006
49242685767
49242690954
49242697424
49242703039
49242708960
49242714758
49242720068
49242725378
49242731116
49242735998
49242743139
49242747961
49242753698
49242759070
49242764380
49242771399
49242777197
49242782934
49242788000
49242793493
49242799780
49242803686
49242809851
49242818335
49242823095
49242828649
49242833227
49242838598
49242844519
49242849707
49242855749
49242861242
49242866064
49242872351
49242876806
49242883825
49242888159
49242893896
49242899694
49242905859
49242909948
49242916418
49242921301
49242928137
49242934057
49242940282
49242945959
49242951574
49242955419
49242962316
49242967992
49242973119
49242979101
49242984716
49242989416
49242995885
49243000768
49243006994
49243012914
49243018102
49243024572
49243028722
49243034887
49243039403
49243044774
49243051061
49243054845
49243061498
49243068944
49243073705
49243080175
49243085241
49243090123
49243095800
49243101293
49243107335
49243112523
49243117345
49243123082
49243129735
49243135533
49243142064
49243147130
49243152562
49243158727
49243162633
49243169652
49243175511
49243181920
49243187840
49243193212
49243199193
49243204991
49243210301
49243216344
49243221410
49243227086
49243231725
49243237584
49243242101
49243247411
49243252843
49243259373
49243264683
49243268040
49243275243
49243279942
49243284825
49243292454
49243296117
49243302342
49243306554
49243311803
49243317357
49243321629
49243327733
49243333287
49243338231
49243343052
49243349217
49243354039
49243360264
49243365574
49243370091
49243375157
49243379551
49243386265
49243391941
49243396336
49243402378
49243407444
49243412449
49243417759
49243423680
49243428440
49243434300
49243438816
49243443211
49243449620
49243455906
49243462132
49243466587
49243471592
49243476658
49243482701
49243486851
49243492649
49243499241
49243503513
49243508030
49243513218
49243519016
49243527988
49243538303
49243545628
49243551609
49243558445
49243565769
49243573154
49243580051
49243587315
49243594700
49243601414
49243606907
49243614048
49243622837
49243630588
49243635593
49243641147
49243646518
49243651035
49243657749
49243662327
49243667637
49243672947
49243677707
49243683567
49243688572
49243693637
49243699863
49243704624
49243711155
49243716587
49243721286
49243727939
49243731967
49243737644
49243741550
49243747470
49243752109
49243758274
49243763339
49243769321
49243774021
49243779941
49243785190
49243790866
49243795261
49243800327
49243803745
49243810703
49243816013
49243821750
49243828037
49243832614
49243839084
49243844333
49243848422
49243855319
49243859653
49243865634
49243870029
49243876254
49243881503
49243888095
49243893344
49243900790
49243906222
49243910495
49243916232
49243920810
49243926852
49243931857
49243937167
49243944491
49243949801
49243953463
49243960482
49243964145
49243970553
49243976596
49243980990
49243986483
49243991671
49243996676
49244003634
49244007907
49244014621
49244019625
49244023837
49244030184
49244035250
49244042636
49244046786
49244052889
49244058200
49244063082
49244069491
49244074374
49244079012
49244085055
49244090121
49244096591
49244102877
49244108675
49244114779
49244119967
49244125643
49244129183
49244135775
49244141085
49244147433
49244152560
49244156039
49244161471
49244168307
49244172945
49244179537
49244183565
49244189791
49244194002
49244199862
49244206026
49244212008
49244218172
49244224154
49244227450
49244232515
49244237642
49244244234
49244249483
49244254488
49244259310
49244264864
49244270113
49244275179
49244279818
49244285982
49244290377
49244294893
49244300508
49244306490
49244310762
49244316927
49244322725
49244326937
49244332552
49244337679
49244342684
49244347200
49244353731
49244358248
49244363680
49244368440
49244373567
49244377901
49244383760
49244388521
49244393587
49244398042
49244402803
49244408662
49244413240
49244419161
49244423738
49244427827
49244432649
49244438631
49244445222
49244451021
49244455659
49244460725
49244465730
49244470186
49244476533
49244481172
49244487764
49244492830
49244496370
49244502046
49244508089
49244514558
49244520723
49244525239
49244530366
49244534700
49244539705
49244544465
49244549287
49244555452
49244561250
49244565400
49244570527
49244576753
49244582551
49244587434
49244592744
49244598909
49244604158
49244610078
49244615632
49244622346
49244626557
49244631318
49244636933
49244642976
49244649201
49244655305
49244659944
49244665437
49244669770
49244675324
49244680329
49244687348
49244692170
49244695466
49244702058
49244708039
49244712861
49244718415
49244723603
49244728791
49244734895
49244738557
49244744782
49244750336
49244756867
49244760834
49244767304
49244771027
49244777497
49244782380
49244788666
49244794221
49244798493
49244806183
49244811799
49244817292
49244821992
49244827973
49244832612
49244839570
49244844086
49244850861
49244855683
49244861481
49244866852
49244871918
49244876740
49244882599
49244889374
49244895111
49244900421
49244905121
49244910614
49244915436
49244921051
49244927338
49244932099
49244936981
49244941742
49244949555
49244954621
49244959931
49244964630
49244971955
49244978180
49244982697
49244987091
49244992890
49244999359
49245004303
49245008392
49245014130
49245019074
49245024628
49245030426
49245036530
49245041534
49245046173
49245051422
49245055939
49245060638
49245066925
49245071197
49245076935
49245082916
49245087433
49245093902
49245098846
49245104889
49245109772
49245114898
49245120331
49245125091
49245131439
49245137054
49245141754
49245146087
49245153351
49245158477
49245164459
49245170929
49245175811
49245181549
49245186981
49245193573
49245199066
49245206268
49245211395
49245218292
49245221954
49245228363
49245233917
49245238494
49245245330
49245251861
49245256683
49245262054
49245265533
49245272125
49245278228
49245282562
49245287872
49245293548
49245298187
49245304351
49245308379
49245315521
49245322051
49245326934
49245332366
49245335967
49245342620
49245348052
49245352752
49245360137
49245364532
49245370208
49245374663
49245378265
49245385711
49245390410
49245396636
49245402373
49245406524
49245411651
49245417022
49245421538
49245427825
49245432097
49245438262
49245443816
49245447173
49245453277
49245459502
49245464385
49245470122
49245474944
49245479644
49245485747
49245490691
49245496917
49245502593
49245507292
49245513091
49245516448
49245522551
49245529021
49245533904
49245538726
49245543975
49245548857
49245554350
49245559355
49245567534
49245570647
49245576811
49245581694
49245585234
49245591094
49245595549
49245602202
49245607573
49245612822
49245617461
49245624480
49245629485
49245635344
49245638884
49245645598
49245650908
49245656279
49245662077
49245665922
49245672636
49245676787
49245682280
49245686369
49245691923
49245697844
49245702727
49245708952
49245713835
49245719084
49245723478
49245730070
49245735075
49245739897
49245744963
49245750090
49245756132
49245760222
49245765715
49245770720
49245777189
49245781584
49245786222
49245792021
49245795622
49245802397
49245807035
49245812712
49245818876
49245823637
49245828764
49245832548
49245837980
49245842558
49245849150
49245854643
49245859464
49245865080
49245869291
49245874784
49245880216
49245885282
49245891630
49245896024
49245901151
49245907255
49245912260
49245917448
49245921964
49245928495
49245934415
49245939664
49245944730
49245949308
49245956083
49245961515
49245966642
49245972806
49245978422
49245983060
49245987028
49245993253
49245998929
49246004423
49246011014
49246016935
49246022123
49246027982
49246033353
49246040067
49246045316
49246050443
49246055875
49246063871
49246069120
49246075467
49246081449
49246086515
49246091397
49246097013
49246102933
49246106717
49246112943
49246119290
49246124295
49246132047
49246137174
49246142484
49246148282
49246153958
49246158780
49246164700
49246169400
49246175626
49246180997
49246186063
49246191373
49246196378
49246201688
49246208157
49246212430
49246219144
49246223904
49246228665
49246234341
49246241177
49246245999
49246251065
49246257046
49246262418
49246268704
49246274686
49246281155
49246285306
49246291775
49246297452
49246300992
49246307034
49246313992
49246318692
49246323758
49246329129
49246334622
49246340847
49246347622
49246353421
49246359036
49246364346
49246369473
49246375210
49246381253
49246388333
49246394131
49246399380
49246405300
49246409939
49246417080
49246421902
49246426419
49246432949
49246438565
49246443691
49246450405
49246457485
49246462979
49246468533
49246474331
49246480068
49246486111
49246491360
49246497707
49246503811
49246509121
49246514858
49246519924
49246524929
49246530544
49246535610
49246542324
49246546780
49246551418
49246557217
49246562466
49246567593
49246573940
49246577907
49246584438
49246591091
49246596096
49246601650
49246607998
49246614040
49246620510
49246624721
49246631496
49246637233
49246641018
49246648525
49246652065
49246659328
49246664943
49246670620
49246675747
49246681362
49246685268
49246692409
49246697109
49246703273
49246709865
49246715175
49246720912
49246726467
49246732021
49246739467
49246745204
49246750636
49246756435
49246761501
49246766689
49246772853
49246778285
49246783656
49246789638
49246794215
49246798732
49246805141
49246809352
49246814784
49246820399
49246826137
49246831874
49246836085
49246841273
49246847133
49246851283
49246857997
49246862758
49246867946
49246872829
49246877284
49246883021
49246888026
49246893031
49246898707
49246904078
49246909389
49246914576
49246920680
49246925990
49246931910
49246937404
49246943568
49246949305
49246954310
49246959681
49246967006
49246971034
49246977687
49246983912
49246989955
49246995387
49247000209
49247006007
49247013331
49247019007
49247022853
49247029689
49247035792
49247041041
49247046839
49247053004
49247058985
49247063319
49247069178
49247076014
49247081263
49247085841
49247092188
49247099085
49247104639
49247109950
49247115687
49247119837
49247125330
49247130396
49247135889
49247141383
49247146387
49247152186
49247156336
49247161524
49247166407
49247172205
49247179590
49247185267
49247190699
49247195765
49247202479
49247208887
49247213099
49247220301
49247225855
49247230799
49247236536
49247243067
49247248072
49247254602
49247259180
49247266260
49247272791
49247276941
49247284143
49247289698
49247294336
49247300684
49247306726
49247311914
49247317102
49247322962
49247328699
49247335169
49247341638
49247347009
49247351953
49247357019
49247363306
49247368616
49247374597
49247379236
49247383997
49247389856
49247396631
49247401636
49247408167
49247413049
49247419519
49247424280
49247429712
49247436365
49247440881
49247447595
49247452661
49247457300
49247463159
49247469995
49247474939
49247479700
49247485742
49247491052
49247497156
49247503137
49247508874
49247513757
49247518884
49247524438
49247529260
49247535180
49247542444
49247547082
49247552942
49247557885
49247563195
49247568750
49247575219
49247581445
49247586145
49247591149
49247598046
49247602685
49247609338
49247615258
49247620080
49247625756
49247632104
49247637536
49247643945
49247649072
49247654626
49247659570
49247666467
49247671838
49247676232
49247682092
49247687646
49247692956
49247698998
49247704797
49247710778
49247716759
49247722314
49247728173
49247733239
49247739770
49247744897
49247750756
49247756310
49247762170
49247767602
49247772912
49247779381
49247784508
49247791222
49247796532
49247802331
49247806603
49247813927
49247818810
49247823571
49247829308
49247834923
49247840050
49247847252
49247851525
49247857262
49247863243
49247868248
49247874840
49247880333
49247885949
49247890953
49247896508
49247902611
49247908715
49247913353
49247918724
49247923973
49247929405
49247935204
49247940575
49247946312
49247951561
49247956261
49247962975
49247967919
49247973839
49247979088
49247984947
49247990379
49247995689
49248001183
49248006004
49248011803
49248018517
49248022850
49248028648
49248033043
49248038353
49248044395
49248049278
49248054344
49248059166
49248065025
49248069969
49248075523
49248080650
49248085838
49248091881
49248097984
49248102073
49248108238
49248113365
49248116722
49248122520
49248128624
49248132591
49248138878
49248143333
49248149315
49248153953
49248159752
49248165489
49248170738
49248175254
49248180870
49248185997
49248191429
49248196983
49248201499
49248207908
49248212242
49248216392
49248222923
49248227500
49248232566
49248238426
49248243064
49248249900
49248255271
49248261070
49248266868
49248274619
49248280845
49248286338
49248293784
49248298911
49248305076
49248311362
49248315818
49248322837
49248327964
49248332603
49248339561
49248346580
49248350730
49248357322
49248362083
49248366965
49248372947
49248380454
49248385337
49248391501
49248395347
49248401816
49248406516
49248412558
49248417991
49248424643
49248429648
49248434958
49248440390
49248445945
49248452109
49248457236
49248462302
49248466880
49248473655
49248478843
49248483969
49248489524
49248495871
49248501120
49248505637
49248509909
49248516318
49248523581
49248529074
49248534751
49248538291
49248545676
49248550620
49248556052
49248562705
49248566428
49248572836
49248577658
49248582968
49248588461
49248594260
49248599509
49248603781
49248610251
49248614584
49248620444
49248624777
49248630576
49248636313
49248641928
49248647177
49248651205
49248658285
49248663107
49248669028
49248674643
49248679831
49248685629
49248690695
49248694845
49248700461
49248707663
49248713217
49248718954
49248722921
49248729635
49248733908
49248739523
49248745810
49248750998
49248755514
49248762045
49248766134
49248772665
49248778036
49248783773
49248788595
49248794638
49248798849
49248804647
49248810018
49248815451
49248821737
49248826010
49248831503
49248835714
49248840780
49248846334
49248851766
49248856527
49248861898
49248867147
49248872152
49248876791
49248881490
49248886617
49248892782
49248899618
49248904256
49248909750
49248913595
49248919881
49248925375
49248930929
49248936727
49248943136
49248949666
49248956258
49248962484
49248968404
49248974630
49248980550
49248987569
49248993734
49248997945
49249005147
49249010701
49249015706
49249021993
49249026754
49249034322
49249040181
49249044271
49249051534
49249056844
49249061666
49249067708
49249073140
49249079000
49249086324
49249092305
49249096639
49249102681
49249108113
49249113668
49249119161
49249124410
49249130086
49249135030
49249140157
49249145894
49249151753
49249157247
49249164082
49249168355
49249174458
49249179768
49249186421
49249190633
49249197102
49249202046
49249206990
49249212605
49249217610
49249223775
49249228963
49249234029
49249240071
49249246480
49249250752
49249257466
49249262288
49249269185
49249274190
49249278035
49249284749
49249290059
49249295369
49249301533
49249307454
49249312947
49249318135
49249322346
49249329426
49249334309
49249340840
49249345967
49249349629
49249357563
49249363301
49249368183
49249373982
49249377644
49249385029
49249390889
49249396748
49249403157
49249407490
49249414631
49249419575
49249423908
49249430927
49249437641
49249442646
49249449116
49249454182
49249460774
49249465534
49249471455
49249478108
49249482014
49249488850
49249495014
49249499775
49249505207
49249511250
49249516071
49249522358
49249527973
49249533466
49249539875
49249545917
49249551777
49249557209
49249562763
49249568012
49249572895
49249578632
49249583820
49249590168
49249594929
49249600361
49249605854
49249611042
49249616718
49249622822
49249627643
49249633014
49249639362
49249643024
49249649677
49249653583
49249660419
49249665729
49249671039
49249676960
49249683185
49249688800
49249694538
49249698810
49249705219
49249710712
49249715778
49249720966
49249727313
49249732257
49249737934
49249742145
49249748920
49249754413
49249759845
49249766010
49249771442
49249777118
49249782733
49249787799
49249794025
49249799152
49249805682
49249810992
49249815448
49249822894
49249829059
49249834430
49249839679
49249843341
49249849811
49249855914
49249860736
49249866351
49249871661
49249878497
49249883807
49249889728
49249896014
49249902423
49249908465
49249914386
49249920184
49249925677
49249930926
49249934832
49249942279
49249950702
49249954913
49249961688
49249967852
49249973101
49249979327
49249984332
49249990069
49249995257
49250000567
49250005755
49250012103
49250018145
49250024310
49250029193
49250034442
49250041033
49250046526
49250050799
49250055377
49250061602
49250066729
49250072772
49250078082
49250083941
49250089922
49250095171
49250100665
49250105730
49250111712
49250116228
49250121783
49250128130
49250131914
49250138933
49250145037
49250149920
49250155169
49250160784
49250166399
49250172014
49250177324
49250183367
49250187456
49250193560
49250199846
49250204973
49250211016
49250215349
49250222063
49250226763
49250232378
49250238909
49250243425
49250248919
49250255754
49250262224
49250266252
49250273699
49250278032
49250284502
49250290178
49250295366
49250301287
49250305620
49250312151
49250318132
49250323137
49250328264
49250334123
49250338213
49250344377
49250349565
49250356218
49250361406
49250367449
49250373125
49250379411
49250384660
49250390703
49250396257
49250401201
49250406816
49250412492
49250417436
49250423051
49250426836
49250432756
49250438737
49250444108
49250450090
49250454973
49250461564
49250465959
49250470781
49250477739
49250482683
49250487748
49250493425
49250499589
49250505388
49250511369
49250517595
49250523393
49250527787
49250535112
49250539933
49250544023
49250550187
49250556840
49250561540
49250567643
49250572221
49250578996
49250583879
49250587968
49250594377
49250600236
49250605729
49250610673
49250616532
49250622697
49250628251
49250633134
49250639848
49250643815
49250650102
49250655412
49250661210
49250666886
49250670731
49250678117
49250684220
49250689469
49250694474
49250700394
49250705827
49250712357
49250717362
49250723466
49250729691
49250734940
49250740555
49250744889
49250751847
49250757096
49250762406
49250768387
49250775345
49250780045
49250785233
49250790543
49250796525
49250802140
49250807328
49250813065
49250819535
49250824234
49250829972
49250833573
49250840409
49250846146
49250851151
49250857376
49250862076
49250867386
49250873429
49250878434
49250884232
49250889786
49250895035
49250900223
49250905289
49250911576
49250917069
49250922623
49250928360
49250934036
49250940750
49250945450
49250951614
49250957779
49250962662
49250969986
49250975479
49250983109
49250987869
49250995193
49250999832
49251006546
49251011612
49251015335
49251022293
49251030716
49251035110
49251041763
49251047012
49251051956
49251056900
49251064346
49251069839
49251074844
49251079910
49251085464
49251090835
49251094986
49251100906
49251105728
49251111709
49251116226
49251121475
49251126785
49251132217
49251138687
49251144424
49251149185
49251154312
49251158096
49251164260
49251169815
49251176590
49251182022
49251187271
49251191665
49251195632
49251201919
49251208877
49251213577
49251218398
49251223953
49251227920
49251233901
49251239456
49251245376
49251251479
49251256973
49251260879
49251266433
49251272598
49251277541
49251283889
49251289565
49251294936
49251300185
49251304946
49251310622
49251315078
49251321731
49251326369
49251332351
49251337783
49251343947
49251348403
49251355971
49251361465
49251367690
49251373000
49251379348
49251383315
49251389358
49251394790
49251400588
49251407241
49251413527
49251419021
49251425246
49251429946
49251436232
49251441054
49251446486
49251453383
49251459548
49251464125
49251470717
49251475539
49251481032
49251486037
49251490126
49251496535
49251501601
49251508193
49251513747
49251517226
49251524062
49251528945
49251534987
49251540236
49251545119
49251550429
49251556899
49251562575
49251567946
49251574233
49251578871
49251584242
49251590041
49251596083
49251602675
49251606337
49251612807
49251617567
49251624708
49251630812
49251636366
49251641554
49251646620
49251651869
49251658217
49251662855
49251671034
49251676405
49251681105
49251687330
49251693312
49251696913
49251702528
49251706617
49251713759
49251720778
49251726759
49251732496
49251738112
49251743849
49251749525
49251755140
49251760694
49251765455
49251770521
49251776686
49251781080
49251787245
49251793348
49251799269
49251804518
49251810926
49251816297
49251820753
49251826307
49251831739
49251837538
49251841322
49251847425
49251853712
49251858350
49251864149
49251869154
49251874769
49251881239
49251887647
49251891737
49251897779
49251903394
49251908643
49251914625
49251918958
49251925794
49251929517
49251936170
49251941114
49251946973
49251952833
49251958936
49251964246
49251968580
49251973951
49251979566
49251983167
49251989942
49251996351
49252001600
49252007276
49252012647
49252016736
49252021619
49252026868
49252034070
49252038709
49252043714
49252049207
49252053174
49252060132
49252065259
49252071973
49252076062
49252082227
49252086072
49252092176
49252096448
49252101941
49252108777
49252115064
49252120252
49252124097
49252130322
49252135144
49252140210
49252146375
49252151257
49252157117
49252162488
49252167188
49252172803
49252177197
49252184338
49252190137
49252196423
49252202893
49252208508
49252214612
49252220715
49252225476
49252230542
49252238415
49252243664
49252249585
49252254956
49252260571
49252265637
49252270947
49252277234
49252282422
49252287854
49252292920
49252300122
49252306775
49252310559
49252317517
49252323498
49252329724
49252336804
49252342724
49252347485
49252353100
49252358593
49252364331
49252371411
49252376782
49252381298
49252385693
49252391064
49252398815
49252404980
49252411205
49252416760
49252421948
49252428356
49252434948
49252440136
49252444836
49252450573
49252456188
49252461742
49252467846
49252474865
49252480419
49252485668
49252490612
49252495617
49252501476
49252507275
49252514660
49252519054
49252524792
49252530102
49252535473
49252540844
49252547436
49252552440
49252559032
49252563244
49252567760
49252573925
49252580089
49252586498
49252592174
49252597667
49252603710
49252608593
49252613598
49252619640
49252624523
49252631176
49252636242
49252641918
49252646495
49252652904
49252658031
49252664379
49252668834
49252674327
49252680065
49252684398
49252691539
49252696300
49252701305
49252707042
49252712108
49252717723
49252724193
49252728038
49252734630
49252740611
49252745555
49252751598
49252758983
49252763988
49252771007
49252773753
49252781322
49252786998
49252791087
49252798717
49252802806
49252810069
49252815807
49252820018
49252827403
49252833873
49252839061
49252844798
49252850719
49252857432
49252864207
49252870189
49252874888
49252882640
49252888133
49252894053
49252900157
49252905650
49252910594
49252916697
49252921702
49252927134
49252932994
49252939097
49252944468
49252949473
49252954661
49252959178
49252965342
49252969615
49252975047
49252980113
49252986155
49252991343
49252996348
49253002085
49253007334
49253011119
49253017283
49253023081
49253028452
49253033457
49253038096
49253043711
49253048655
49253054148
49253059153
49253064341
49253069468
49253074107
49253080882
49253086985
49253093394
49253100046
49253105296
49253108897
49253114268
49253119395
49253124766
49253130381
49253136545
49253142222
49253146799
49253151560
49253156870
49253163279
49253170237
49253175669
49253181467
49253187266
49253192698
49253198923
49253203684
49253208750
49253215708
49253221018
49253224802
49253231699
49253238535
49253243845
49253250681
49253255625
49253260385
49253267038
49253271555
49253278452
49253282663
49253289621
49253294565
49253300485
49253306589
49253311289
49253316782
49253322885
49253327341
49253334787
49253340341
49253345407
49253351328
49253355844
49253362558
49253367319
49253371164
49253377145
49253382578
49253388864
49253393686
49253398019
49253404916
49253411203
49253415903
49253423288
49253428049
49253435190
49253439828
49253443551
49253450571
49253456308
49253460702
49253468027
49253473337
49253478708
49253484506
49253491220
49253496957
49253503000
49253506784
49253514352
49253519662
49253525827
49253532113
49253535836
49253542367
49253546884
49253552072
49253557626
49253562692
49253569467
49253574716
49253579782
49253584970
49253589974
49253595895
49253602853
49253607797
49253613168
49253618112
49253623727
49253627877
49253633614
49253639474
49253646005
49253650155
49253654855
49253659982
49253663583
49253670174
49253676278
49253682259
49253687447
49253692086
49253697457
49253701302
49253707589
49253712594
49253718453
49253723519
49253728158
49253733407
49253738351
49253745064
49253750558
49253755623
49253761422
49253766182
49253770638
49253776742
49253782174
49253787606
49253793038
49253799141
49253803475
49253808602
49253813912
49253819283
49253825570
49253830025
49253835945
49253840584
49253846566
49253852242
49253857735
49253863533
49253867867
49253873177
49253878304
49253883065
49253887703
49253893929
49253900826
49253905708
49253911873
49253917549
49253923042
49253929634
49253935249
49253941353
49253946419
49253953865
49253959786
49253964973
49253971199
49253975838
49253982796
49253987495
49253992989
49254000191
49254005745
49254011604
49254017342
49254023262
49254028633
49254034431
49254040901
49254045906
49254050850
49254056709
49254062263
49254068855
49254073005
49254090217
49254095100
49254100471
49254107673
49254113777
49254118965
49254125434
49254128975
49254135139
49254140449
49254147285
49254153327
49254157112
49254163032
49254167915
49254173652
49254178962
49254183967
49254189216
49254194404
49254199592
49254203132
49254209480
49254215339
49254220893
49254227729
49254231147
49254238105
49254243415
49254248664
49254254401
49254258613
49254264472
49254271186
49254275764
49254281013
49254284797
49254291755
49254296516
49254303413
49254308601
49254312324
49254318488
49254323127
49254328803
49254333808
49254339301
49254344489
49254349555
49254354499
49254359321
49254365119
49254369819
49254376288
49254381293
49254387641
49254393805
49254397651
49254404609
49254409919
49254415412
49254421027
49254427192
49254433295
49254439093
49254445685
49254451300
49254457404
49254463874
49254467475
49254474311
49254481696
49254486701
49254493415
49254498786
49254503546
49254510138
49254514838
49254521735
49254526434
49254532294
49254537909
49254545172
49254550238
49254555670
49254561163
49254566901
49254572272
49254577826
49254583746
49254590216
49254593817
49254601080
49254607428
49254611334
49254618170
49254624274
49254629523
49254635992
49254640326
49254645758
49254651983
49254657049
49254662848
49254668463
49254673285
49254679632
49254684332
49254690130
49254696966
49254703741
49254712591
49254717230
49254723150
49254727606
49254734442
49254740301
49254747137
49254753485
49254759039
49254764837
49254770697
49254776922
49254782049
49254787237
49254793218
49254799627
49254805425
49254810247
49254816229
49254822332
49254826483
49254832647
49254836736
49254842352
49254850103
49254854986
49254859014
49254862066
49254866155
49254870733
49254875311
49254878973
49254882513
49254886785
49254890630
49254894292
49254898016
49254902959
49254906194
49254910894
49254914190
49254918401
49254922246
49254925359
49254929632
49254934453
49254937871
49254941595
49254944951
49254949407
49254952947
49254957891
49254961736
49254965398
49254969549
49254973333
49254977361
49254982732
49254986394
49254991216
49254994085
49254997991
49255002324
49255005437
49255010686
49255015386
49255019536
49255023076
49255027410
49255031560
49255036565
49255040654
49255044927
49255048345
49255054082
49255058354
49255062810
49255067266
49255071233
49255075688
49255080449
49255084355
49255088201
49255094243
49255097905
49255102239
49255106694
49255110661
49255116216
49255120427
49255124944
49255129094
49255133366
49255138188
49255142400
49255145818
49255152531
49255157597
49255161504
49255165349
49255169560
49255173772
49255178410
49255182805
49255186772
49255190495
49255195622
49255199406
49255202824
49255207890
49255212102
49255216374
49255220647
49255224736
49255229191
49255233769
49255238835
49255242253
49255246464
49255251164
49255256169
49255258488
49255264164
49255269780
49255273503
49255277470
49255280522
49255286320
49255290959
49255295353
49255299687
49255303410
49255307499
49255312992
49255316227
49255321476
49255325810
49255330326
49255334477
49255338383
49255342594
49255349491
49255352970
49255357792
49255362065
49255366581
49255371464
49255375248
49255379765
49255384709
49255388249
49255392948
49255398441
49255403385
49255407047
49255412419
49255416691
49255420048
49255424015
49255428654
49255433048
49255437870
49255441776
49255444889
49255450016
49255455387
49255458317
49255462894
49255467777
49255471317
49255475590
49255478397
49255484318
49255488468
49255493229
49255497379
49255501285
49255505253
49255509220
49255514286
49255519230
49255522953
49255527531
49255531559
49255534794
49255540470
49255544987
49255549808
49255554447
49255557987
49255563175
49255565983
49255571048
49255573734
49255579349
49255584049
49255587833
49255593326
49255597110
49255602848
49255607608
49255611820
49255616153
49255620792
49255623783
49255629276
49255632938
49255637027
49255641300
49255645694
49255649234
49255652774
49255657108
49255663516
49255667606
49255671817
49255676456
49255680484
49255684574
49255688907
49255694827
49255699039
49255703861
49255707950
49255710758
49255715579
49255721378
49255724857
49255730899
49255734622
49255738162
49255742313
49255747623
49255752139
49255756656
49255761356
49255764468
49255769168
49255774173
49255779361
49255781253
49255786807
49255790652
49255794620
49255799136
49255803470
49255808230
49255812320
49255815860
49255820682
49255824283
49255828799
49255832156
49255836551
49255839725
49255844790
49255849002
49255853702
49255858523
49255862063
49255866397
49255870608
49255875186
49255880191
49255883975
49255890628
49255895449
49255898501
49255902346
49255907656
49255912234
49255916323
49255920352
49255924868
49255929751
49255932437
49255937258
49255941958
49255947879
49255951724
49255954714
49255959780
49255964602
49255969119
49255973391
49255976931
49255982119
49255987002
49255990115
49255994876
49256001162
49256005374
49256010256
49256013735
49256018862
49256023196
49256027041
49256031435
49256035830
49256040102
49256044924
49256048769
49256052126
49256057192
49256060915
49256065432
49256069033
49256073122
49256076784
49256081362
49256085574
49256089541
49256093691
49256097231
49256101321
49256105898
49256109804
49256114199
49256118227
49256122744
49256127382
49256131472
49256136843
49256140810
49256146120
49256150515
49256155581
49256158632
49256163088
49256169375
49256172732
49256178713
49256181765
49256186403
49256191042
49256193728
49256200258
49256205629
49256208864
49256213381
49256216066
49256221132
49256226137
49256230288
49256235048
49256239748
49256243715
49256246645
49256251467
49256258058
49256261721
49256265688
49256269838
49256273622
49256277284
49256281557
49256287172
49256291323
49256294008
49256299684
49256302553
49256308290
49256313295
49256317262
49256321230
49256325441
49256328798
49256333681
49256338991
49256342043
49256347231
49256352480
49256356081
49256360353
49256365175
49256369630
49256374757
49256377748
49256382326
49256387270
49256390260
49256396181
49256401002
49256404848
49256410585
49256414674
49256419191
49256423707
49256428285
49256432252
49256436830
49256441286
49256445436
49256449525
49256453493
49256458131
49256463136
49256467714
49256471925
49256476014
49256481508
49256486940
49256490968
49256494325
49256497010
49256502137
49256507997
49256511659
49256516298
49256520326
49256524293
49256528260
49256532106
49256536439
49256540101
49256544374
49256548097
49256552186
49256555543
49256561585
49256566712
49256571168
49256574708
49256579347
49256584168
49256587770
49256593202
49256596620
49256601197
49256604737
49256608766
49256613526
49256618226
49256622926
49256626222
49256630616
49256636353
49256641724
49256646546
49256650086
49256654237
49256658509
49256663087
49256667725
49256672669
49256677125
49256681885
49256685242
49256688660
49256693726
49256698487
49256703614
49256709290
49256713807
49256717652
49256721924
49256726258
49256731019
49256735169
49256739319
49256742615
49256748780
49256751893
49256756775
49256762879
49256767334
49256771180
49256774659
49256779236
49256783204
49256787415
49256791993
49256796692
49256799378
49256804749
49256809082
49256813904
49256819153
49256824097
49256827698
49256831604
49256834595
49256840027
49256846375
49256851258
49256854370
49256858277
49256862427
49256865967
49256869873
49256873474
49256877686
49256882508
49256886475
49256890625
49256894043
49256899292
49256903992
49256908753
49256911743
49256915955
49256920715
49256925049
49256929443
49256934265
49256938660
49256942017
49256945679
49256949646
49256954956
49256958740
49256962097
49256965820
49256969177
49256973938
49256977173
49256981628
49256984741
49256987671
49256991272
49256995483
49256998962
49257002441
49257005981
49257008362
49257012634
49257019287
49257025696
49257032593
49257040649
49257046936
49257067383
49257085327
49257099304
49257105468
49257130371
49257135986
49257156311
49257173217
49257188049
49257197814
49257216552
49257224548
49257244018
49257252624
49257272460
49257287109
49257311461
49257317992
49257337218
49257348266
49257366942
49257379943
49257397826
49257411559
49257430053
49257443297
49257460631
49257474730
49257492796
49257508788
49257523680
49257536253
49257551573
49257567686
49257582152
49257596129
49257607542
49257627928
49257636229
49257658079
49257667906
49257686766
49257700132
49257718016
49257730162
49257747740
49257766599
49257779539
49257800901
49257813169
49257833616
49257845518
49257861448
49257872068
49257895200
49257905271
49257926511
49257940732
49257957151
49257973874
49257989438
49258002683
49258020505
49258033445
49258048825
49258066953
49258076962
49258095822
49258110227
49258127072
49258137143
49258161252
49258170468
49258192502
49258204465
49258225461
49258242795
49258256405
49258265255
49258284665
49258297116
49258316647
49258330868
49258350521
49258362057
49258379086
49258394406
49258411800
49258424435
49258437374
49258452206
49258470943
49258486385
49258505672
49258520016
49258534969
49258549862
49258558101
49258580318
49258596981
49258614864
49258624141
49258645687
49258654476
49258674068
49258687984
49258703304
49258716121
49258731075
49258749629
49258767329
49258777400
49258791499
49258811397
49258822932
49258840632
49258853572
49258867610
49258882747
49258897456
49258911250
49258925654
49258933222
49258952143
49258964045
49258977168
49258986262
49258994563
49259001765
49259009760
49259015742
49259020564
49259031428
49259038447
49259047297
49259053461
49259062922
49259068903
49259076472
49259084284
49259090998
49259095576
49259106379
49259113154
49259118891
49259127680
49259135737
49259146357
49259148798
49259161493
49259169123
49259176386
49259183100
49259189325
49259197138
49259204462
49259214411
49259221369
49259230097
49259236872
49259243524
49259251276
49259257990
49259264276
49259272272
49259282465
49259291010
49259298456
49259308099
49259314386
49259321344
49259327081
49259333673
49259342096
49259349359
49259356561
49259363580
49259370843
49259378412
49259382928
49259391107
49259399774
49259406488
49259415277
49259420770
49259430169
49259437005
49259445611
49259452203
49259454583
49259468560
49259474603
49259478936
49259486078
49259495050
49259508416
49259514764
49259519586
49259526239
49259530206
49259539483
49259545220
49259551080
49259561761
49259568475
49259576409
49259580987
49259589593
49259595696
49259599297
49259610589
49259618646
49259642510
49259654229
49259669793
49259680779
49259695428
49259706841
49259720269
49259732598
49259744500
49259753228
49259763115
49259775933
49259788811
49259796135
49259807549
49259814141
49259830559
49259840264
49259851494
49259861321
49259872673
49259883171
49259888786
49259901177
49259909050
49259917778
49259926811
49259934441
49259943840
49259952690
49259960197
49259968803
49259976921
49259984062
49259991386
49259998222
49260007561
49260017692
49260022880
49260029899
49260038444
49260044914
49260052665
49260059379
49260065544
49260074516
49260080864
49260086418
49260092887
49260097892
49260104240
49260110466
49260116813
49260124443
49260129753
49260136833
49260142814
49260150321
49260156303
49260163566
49260170463
49260179801
49260185966
49260193168
49260199333
49260206596
49260213065
49260219413
49260227592
49260234855
49260242667
49260250785
49260258842
49260264945
49260273917
49260281852
49260287955
49260295402
49260303458
49260311088
49260318107
49260324149
49260331595
49260340506
49260347464
49260355277
49260361075
49260369010
49260376761
49260384818
49260394034
49260401480
49260408438
49260413626
49260420890
49260427664
49260435050
49260442496
49260448722
49260454825
49260461356
49260468741
49260473136
49260480826
49260488638
49260494498
49260498892
49260503470
49260507132
49260511038
49260515311
49260519156
49260523978
49260528311
49260532889
49260536795
49260540823
49260544913
49260549307
49260553641
49260557425
49260561758
49260565298
49260569937
49260573904
49260579092
49260583365
49260587332
49260592215
49260595267
49260599539
49260602530
49260608084
49260612356
49260616934
49260620779
49260625296
49260629507
49260633413
49260637259
49260642202
49260647024
49260650259
49260656424
49260660086
49260664541
49260667715
49260672598
49260677664
49260681143
49260687307
49260691397
49260695913
49260699697
49260704580
49260709768
49260714041
49260719412
49260722830
49260728384
49260730825
49260737600
49260740103
49260746755
49260751211
49260756887
49260762014
49260765615
49260770498
49260775686
49260781667
49260785452
49260791128
49260794851
49260800527
49260804128
49260809927
49260814443
49260821157
49260826711
49260831472
49260836355
49260840566
49260846181
49260851308
49260856618
49260862661
49260868459
49260872304
49260877492
49260882619
49260888235
49260892507
49260898244
49260903676
49260908681
49260913930
49260918081
49260923147
49260927419
49260932851
49260938527
49260943044
49260950795
49260953786
49260960378
49260964345
49260970327
49260976308
49260983754
49260988637
49260996144
49261000905
49261006887
49261011037
49261016469
49261022939
49261029836
49261034535
49261041249
49261045949
49261051930
49261055715
49261061818
49261067494
49261074147
49261078847
49261085988
49261088674
49261095998
49261100514
49261106923
49261112294
49261118092
49261122426
49261130421
49261135121
49261141225
49261145375
49261150685
49261158559
49261163563
49261167714
49261176198
49261182851
49261188588
49261194142
49261199513
49261204701
49261214772
49261219594
49261226430
49261230153
49261238759
49261244923
49261249928
49261257069
49261263905
49261274159
49261281117
49261286061
49261291005
49261298024
49261306080
49261312184
49261318348
49261325062
49261332814
49261337025
49261344715
49261350575
49261356861
49261363880
49261367787
49261376515
49261383106
49261390003
49261397694
49261404224
49261408985
49261414906
49261422169
49261429310
49261436634
49261444324
49261449634
49261459888
49261467091
49261474110
49261482838
49261489673
49261496387
49261504505
49261509937
49261517750
49261523365
49261533680
49261539356
49261546741
49261551319
49261559986
49261566455
49261573780
49261581348
49261587329
49261596241
49261605091
49261609912
49261617420
49261621875
49261630542
49261637012
49261644092
49261651904
49261659656
49261667835
49261672412
49261680225
49261688281
49261693836
49261700732
49261704700
49261712634
49261719043
49261727588
49261735156
49261741504
49261748462
49261754871
49261760425
49261768481
49261770495
49261781116
49261787707
49261796252
49261804858
49261810046
49261816882
49261821032
49261829944
49261835925
49261840381
49261849658
49261855700
49261863208
49261867663
49261876757
49261883105
49261888659
49261895678
49261899829
49261909228
49261913378
49261921435
49261932421
49261934619
49261944140
49261950549
49261957446
49261963427
49261969409
49261976367
49261980944
49261989184
49261998522
49262003100
49262010424
49262014208
49262023486
49262029650
49262034533
49262041918
49262051073
49262058703
49262063036
49262071581
49262077990
49262081652
49262088976
49262095446
49262101916
49262108690
49262115038
49262123339
49262127855
49262137560
49262143725
49262149706
49262155748
49262163256
49262168505
49262176500
49262185900
49262193041
49262199877
49262205980
49262213182
49262218309
49262224291
49262232286
49262238695
49262246141
49262253771
49262258470
49262265795
49262273729
49262277635
49262284471
49262290453
49262298021
49262304613
49262313402
49262321031
49262325365
49262334947
49262341173
49262347215
49262353014
49262359666
49262366746
49262372789
49262383287
49262389757
49262396959
49262402940
49262407152
49262415269
49262421373
49262426988
49262436326
49262442857
49262451158
49262455674
49262463121
49262471421
49262477464
49262483567
49262489610
49262496568
49262502183
49262510789
49262521043
49262527207
49262534593
49262538377
49262546433
49262552537
49262559251
49262566575
49262572129
49262581101
49262589219
49262593491
49262602586
49262607957
49262615098
49262621140
49262627976
49262632188
49262640061
49262650437
49262656968
49262661851
49262667954
49262673997
49262680833
49262686936
49262694810
49262701157
49262707078
49262715806
49262720017
49262726914
49262733078
49262739975
49262745957
49262751267
49262760422
49262766831
49262775132
49262779892
49262786850
49262795029
49262800583
49262807480
49262813401
49262819870
49262826035
49262833176
49262840622
49262845078
49262854111
49262860520
49262866867
49262872910
49262880539
49262885483
49262892075
49262900375
49262909958
49262913559
49262922775
49262927963
49262934982
49262941269
49262948044
49262954574
49262964462
49262972824
49262977157
49262984299
49262990219
49262995712
49263004684
49263008835
49263017257
49263023605
49263028854
49263039291
49263041488
49263051559
49263057663
49263063339
49263069687
49263073593
49263083114
49263091842
49263100570
49263107101
49263114608
49263121627
49263128951
49263136459
49263141158
49263151473
49263158737
49263164291
49263172225
49263179000
49263188400
49263195663
49263203170
49263207687
49263217635
49263222335
49263229598
49263238082
49263243026
49263253036
49263259566
49263267867
49263274337
49263278670
49263286910
49263293807
49263303145
49263309676
49263315902
49263322982
49263327071
49263335494
49263341597
49263346969
49263354171
49263358992
49263368880
49263375716
49263382613
49263388716
49263392806
49263402632
49263406783
49263415206
49263421492
49263428145
49263435591
49263440108
49263449385
49263455550
49263460494
49263467635
49263471663
49263481429
49263487959
49263493269
49263503218
49263510359
49263515486
49263521895
49263529585
49263535750
49263541182
49263548018
49263559370
49263567061
49263571028
49263579756
49263587874
49263593306
49263600325
49263604780
49263613203
49263617476
49263626997
49263634626
49263641218
49263648542
49263654463
49263660627
49263666975
49263673506
49263678328
49263686201
49263695173
49263704084
49263708662
49263715437
49263722029
49263728071
49263736067
49263740644
49263747968
49263755293
49263765730
49263771955
49263777387
49263784101
49263790205
49263797529
49263803449
49263810651
49263815046
49263826032
49263832929
49263837629
49263845747
49263851728
49263859724
49263865766
49263867780
49263877912
49263886457
49263896833
49263903974
49263910199
49263916730
49263920759
49263930585
49263936994
49263940961
49263947980
49263957990
49263966291
49263970075
49263980573
49263987104
49263993756
49264000287
49264006818
49264014203
49264020734
49264031537
49264036481
49264046918
49264053143
49264058698
49264066266
49264074323
49264079694
49264087079
49264095075
49264102338
49264110516
49264116803
49264124432
49264131696
49264136151
49264143597
49264150433
49264160565
49264169171
49264176495
49264182232
49264188763
49264196820
49264203167
49264205304
49264215252
49264221234
49264230755
49264235455
49264242901
49264248822
49264256207
49264260968
49264267071
49264274395
49264282147
49264290814
49264297283
49264304425
49264310711
49264315716
49264322003
49264325970
49264334210
49264341473
49264349163
49264355633
49264363140
49264369488
49264376019
49264380962
49264387005
49264393963
49264398663
49264405804
49264414898
49264420269
49264427776
49264431683
49264440105
49264445721
49264452495
49264460247
49264469890
49264477642
49264483440
49264491375
49264498150
49264502971
49264509014
49264515423
49264522686
49264530376
49264537578
49264544597
49264552837
49264557598
49264564556
49264570110
49264576397
49264583232
49264589519
49264598674
49264604473
49264611736
49264616252
49264623210
49264629131
49264634563
49264640911
49264648113
49264658244
49264660503
49264671245
49264675945
49264684612
49264690654
49264695049
49264701518
49264708415
49264717876
49264724651
49264729472
49264736064
49264741801
49264747111
49264752544
49264759135
49264767131
49264774333
49264778422
49264787883
49264795390
49264800090
49264806498
49264812846
49264820537
49264827311
49264835673
49264843669
49264849833
49264854716
49264862712
49264868205
49264873698
49264879496
49264887980
49264897013
49264899211
49264909953
49264913859
49264921183
49264927226
49264933573
49264940348
49264949870
49264957011
49264961161
49264970438
49264976176
49264982707
49264988932
49264993937
49265000346
49265014140
49265023356
49265025492
49265027262
49265029154
49265031107
49265033060
49265035258
49265037211
49265039286
49265041178
49265043070
49265045328
49265047098
49265049235
49265051371
49265053751
49265055643
49265057596
49265059855
49265062113
49265064188
49265066202
49265068156
49265069864
49265071696
49265073649
49265075785
49265077494
49265079569
49265081461
49265083353
49265085245
49265087382
49265089335
49265091166
49265093180
49265095011
49265097269
49265099039
49265101053
49265103006
49265104838
49265107157
49265109049
49265111246
49265113382
49265115275
49265117411
49265119425
49265121500
49265123575
49265125406
49265127787
49265130167
49265132303
49265134317
49265136332
49265138407
49265140482
49265142740
49265144510
49265146524
49265148478
49265150614
49265152750
49265154642
49265156534
49265158609
49265160807
49265162943
49265164957
49265166971
49265169168
49265170999
49265173014
49265175089
49265177042
49265178873
49265180704
49265182596
49265184671
49265186502
49265188455
49265190348
49265192179
49265194132
49265196085
49265198221
49265199991
49265202188
49265204203
49265205912
49265208048
49265210245
49265212076
49265214151
49265215921
49265217630
49265219644
49265221659
49265223673
49265225626
49265227518
49265229410
49265231241
49265233194
49265235208
49265237100
49265238748
49265240885
49265242960
49265244730
49265246805
49265248758
49265250894
49265253092
49265255228
49265257242
49265259073
49265261026
49265263162
49265265115
49265267069
49265269266
49265271280
49265272928
49265275003
49265277261
49265279154
49265281046
49265283182
49265285074
49265287454
49265289102
49265291055
49265292886
49265294656
49265296976
49265298929
49265301248
49265303018
49265305154
49265307413
49265309183
49265311319
49265313211
49265315164
49265317239
49265319376
49265321634
49265323587
49265325357
49265327371
49265328958
49265331216
49265333108
49265334756
49265336893
49265338663
49265340677
49265342935
49265344827
49265346902
49265349039
49265350992
49265353433
49265355386
49265357461
49265359353
49265361246
49265363504
49265365274
49265367227
49265369058
49265371133
49265373086
49265375039
49265377054
49265378946
49265380960
49265382791
49265384683
49265386819
49265388711
49265390359
49265392312
49265394082
49265396341
49265398294
49265400491
49265402322
49265404336
49265406534
49265408365
49265410501
49265412149
49265414224
49265416238
49265418069
49265420083
49265422159
49265423990
49265425821
49265427835
49265429605
49265431680
49265433572
49265435647
49265437722
49265440103
49265442117
49265444131
49265445840
49265448404
49265450174
49265452432
49265454690
49265456521
49265458718
49265460672
49265462625
49265464761
49265466775
49265468789
49265470681
49265472512
49265474710
49265476907
49265478860
49265480508
49265482644
49265484475
49265486428
49265488198
49265490151
49265492349
49265494363
49265496499
49265498208
49265500039
49265502481
49265504495
49265506814
49265508279
49265510232
49265512551
49265514565
49265516641
49265518350
49265520364
49265522256
49265524514
49265526040
49265527932
49265529702
49265531167
49265532998
49265534951
49265537148
49265539163
49265540994
49265542764
49265544534
49265546426
49265548257
49265550454
49265552224
49265554360
49265556252
49265558083
49265560281
49265561990
49265563882
49265565591
49265567300
49265569131
49265571206
49265573037
49265574746
49265576760
49265578530
49265580178
49265582070
49265584329
49265586160
49265588113
49265589761
49265591531
49265593301
49265595071
49265596963
49265598977
49265601357
49265602944
49265605264
49265606850
49265608620
49265610329
49265612283
49265614053
49265615823
49265617409
49265619179
49265621133
49265622964
49265624673
49265626748
49265628457
49265630593
49265632241
49265634377
49265636025
49265637795
49265639748
49265641518
49265643777
49265645486
49265647439
49265649270
49265651101
49265653420
49265655373
49265657021
49265658547
49265660378
49265661904
49265663796
49265665505
49265667336
49265668862
49265670632
49265672524
49265674294
49265676491
49265678444
49265680520
49265682412
49265684426
49265686135
49265687966
49265689980
49265691872
49265693642
49265695595
49265697243
49265699074
49265700966
49265702797
49265704445
49265706399
49265708107
49265710183
49265711709
49265713479
49265715065
49265716774
49265718850
49265720437
49265722207
49265724221
49265726235
49265728066
49265729531
49265731972
49265733925
49265735939
49265737709
49265740090
49265741982
49265743874
49265745400
49265747353
49265749123
49265750954
49265752541
49265754372
49265756264
49265758217
49265760170
49265762184
49265763832
49265765969
49265767739
49265769692
49265771584
49265773232
49265775063
49265776955
49265779091
49265781044
49265783303
49265784951
49265786721
49265788796
49265790627
49265792519
49265794167
49265795937
49265797524
49265799294
49265801247
49265802956
49265804543
49265806252
49265808449
49265810097
49265811806
49265813332
49265815407
49265817360
49265819191
49265821022
49265823097
49265825112
49265826637
49265828407
49265830055
49265831703
49265833534
49265835365
49265837380
49265839272
49265841042
49265842690
49265844765
49265846535
49265848305
49265850075
49265851723
49265854103
49265855812
49265858009
49265859718
49265861366
49265863625
49265865456
49265867592
49265869545
49265871559
49265873268
49265875038
49265877297
49265879005
49265880898
49265882546
49265884621
49265886391
49265888100
49265889931
49265891823
49265893837
49265895607
49265897621
49265899391
49265901649
49265903419
49265905617
49265907631
49265909462
49265911110
49265913002
49265915321
49265917030
49265919044
49265920753
49265922890
49265925026
49265926552
49265928200
49265929848
49265931618
49265933632
49265935402
49265937111
49265939003
49265940590
49265942543
49265944496
49265946449
49265948280
49265950111
49265951881
49265954079
49265955849
49265957680
49265959511
49265961708
49265963417
49265965248
49265967079
49265968849
49265970436
49265972206
49265974159
49265975685
49265977394
49265979347
49265981178
49265982948
49265984779
49265986793
49265988380
49265990638
49265992347
49265994850
49265996803
49265998512
49266000343
49266002235
49266004127
49266006202
49266008095
49266009620
49266011451
49266013221
49266015114
49266016884
49266018654
49266020790
49266022255
49266024025
49266025856
49266027443
49266029457
49266031105
49266033302
49266035133
49266037025
49266038917
49266041298
49266043007
49266044777
49266046608
49266048378
49266050514
49266052345
49266054176
49266055885
49266057899
49266059852
49266061744
49266063514
49266065162
49266067482
49266069191
49266071083
49266072853
49266074745
49266076881
49266078773
49266080787
49266082557
49266084754
49266086524
49266088600
49266090248
49266092445
49266094276
49266096107
49266097694
49266099464
49266101295
49266103065
49266104835
49266106727
49266108619
49266110389
49266112281
49266114173
49266115821
49266117713
49266119728
49266121437
49266123145
49266124732
49266127113
49266128761
49266130531
49266132362
49266134254
49266136390
49266137977
49266139686
49266141639
49266143348
49266144874
49266146827
49266148536
49266150245
49266151954
49266153663
49266155677
49266157691
49266159217
49266161292
49266162879
49266164954
49266166724
49266168861
49266170448
49266172645
49266174659
49266176917
49266178870
49266180640
49266182472
49266184119
49266185950
49266187843
49266189674
49266191261
49266193153
49266195106
49266196998
49266198707
49266200477
49266202674
49266204139
49266205787
49266207862
49266209571
49266211280
49266213050
49266215247
49266217017
49266218848
49266220863
49266222816
49266225074
49266226783
