49054142365
49054148835
49054154023
49054159882
49054165985
49054171540
49054177094
49054183014
49054189728
49054196259
49054202545
49054209503
49054216034
49054222260
49054228241
49054235138
49054241974
49054247406
49054255890
49054262604
49054269379
49054276947
49054284454
49054292450
49054298309
49054305634
49054311859
49054319427
49054326263
49054333404
49054340607
49054347015
49054355316
49054363129
49054369354
49054376190
49054384308
49054391937
49054399322
49054407562
49054411285
49054419525
49054427337
49054435516
49054443756
49054449920
49054456512
49054462616
49054471649
49054478729
49054485137
49054492706
49054498687
49054505706
49054511993
49054519683
49054527313
49054531646
49054540923
49054547759
49054554534
49054560638
49054567962
49054575469
49054583770
49054590423
49054596465
49054603118
49054610625
49054616119
49054624847
49054630401
49054638518
49054644195
49054652068
49054657683
49054666045
49054676116
49054681304
49054687957
49054694365
49054700896
49054707244
49054713958
49054721099
49054729888
49054737456
49054742705
49054749724
49054756377
49054763457
49054769072
49054776396
49054784941
49054791960
49054798430
49054805876
49054812956
49054821684
49054826384
49054836699
49054843718
49054850127
49054856169
49054862639
49054870390
49054875639
49054884795
49054890593
49054898222
49054903777
49054911711
49054917265
49054925200
49054933134
49054939848
49054946867
49054953398
49054959685
49054966337
49054974028
49054981718
49054989409
49054996916
49055003386
49055008207
49055015654
49055022856
49055029387
49055037138
49055045256
49055052458
49055058744
49055062651
49055071257
49055078642
49055086271
49055093901
49055101408
49055105558
49055116117
49055124052
49055131864
49055139127
49055147184
49055155729
49055163969
49055170499
49055178434
49055186979
49055194242
49055201933
49055208402
49055217435
49055225736
49055233732
49055241483
49055244169
49055255155
49055264188
49055272306
49055280973
49055287320
49055296354
49055302091
49055310758
49055316556
49055325040
49055333646
49055341459
49055349759
49055358915
49055365323
49055373685
49055381559
49055387906
49055395963
49055404752
49055413114
49055417874
49055427701
49055436612
49055442410
49055449063
49055457364
49055468167
49055474210
49055482694
49055490628
49055495328
49055505276
49055511807
49055520596
49055529324
49055537198
49055541592
49055553006
49055558011
49055568204
49055574978
49055582364
49055589993
49055599820
49055606961
49055618924
49055624722
49055636929
49055642605
49055653592
49055663723
49055670742
49055677700
49055686001
49055692654
49055702236
49055709194
49055716641
49055723293
49055734951
49055741299
49055749539
49055757656
49055766445
49055772854
49055781399
49055787991
49055798550
49055805080
49055814114
49055822292
49055828396
49055836574
49055841518
49055852321
49055861416
49055869839
49055874599
49055885708
49055890468
49055899196
49055908168
49055914333
49055924404
49055935085
49055944484
49055953456
49055959194
49055970790
49055980983
49055987758
49055997707
49056006740
49056012416
49056023097
49056028224
49056039455
49056046962
49056057033
49056065639
49056074184
49056081264
49056090785
49056097560
49056106471
49056113002
49056121181
49056128078
49056137050
49056144618
49056151637
49056157863
49056165004
49056171962
49056178615
49056187404
49056193446
49056201381
49056207606
49056215236
49056221461
49056229152
49056237819
49056246241
49056253688
49056261500
49056268885
49056277064
49056284205
49056291896
49056300135
49056308985
49056316615
49056324122
49056331873
49056339259
49056345973
49056352931
49056360255
49056368189
49056375330
49056382471
49056390589
49056397974
49056405604
49056414210
49056421839
49056429896
49056437525
49056446070
49056455164
49056463892
49056469690
49056481470
49056486597
49056498072
49056503077
49056514490
49056523035
49056531702
49056538477
49056546534
49056555262
49056562952
49056568872
49056573145
49056582849
49056589563
49056594629
49056600855
49056607141
49056612512
49056618616
49056624292
49056630823
49056637171
49056642847
49056648340
49056655298
49056661340
49056668054
49056673547
49056679346
49056685815
49056691125
49056697168
49056704004
49056710229
49056715845
49056721765
49056727380
49056733545
49056738733
49056746240
49056751184
49056757959
49056762720
49056768762
49056775903
49056779931
49056787134
49056793481
49056798669
49056803735
49056809716
49056814355
49056820520
49056825647
49056832727
49056838281
49056842981
49056849023
49056854638
49056861108
49056866174
49056872155
49056877404
49056883508
49056888207
49056895165
49056900659
49056906396
49056912133
49056917260
49056922326
49056928185
49056932580
49056939294
49056944726
49056949853
49056956750
49056962426
49056967492
49056973473
49056979516
49056984399
49056990319
49056995080
49057001549
49057006860
49057012414
49057017358
49057023339
49057028405
49057034203
49057039879
49057045312
49057049706
49057055443
49057061669
49057066735
49057072045
49057077355
49057083214
49057087121
49057092980
49057098778
49057105248
49057110436
49057114647
49057122033
49057124779
49057130577
49057136681
49057141564
49057147972
49057153954
49057158532
49057163719
49057168968
49057174034
49057180504
49057186730
49057193199
49057198143
49057203392
49057209252
49057214501
49057220177
49057225914
49057231590
49057236839
49057241417
49057247093
49057252464
49057257286
49057263512
49057268700
49057273888
49057278465
49057283226
49057288841
49057295311
49057299339
49057305016
49057309898
49057314781
49057320640
49057325157
49057331444
49057336815
49057342552
49057347496
49057352379
49057357261
49057362877
49057368797
49057374901
49057380089
49057385093
49057389671
49057395286
49057399131
49057405357
49057409813
49057416343
49057421409
49057426414
49057431236
49057437950
49057443992
49057449180
49057454490
49057459434
49057464073
49057469078
49057474876
49057480613
49057486595
49057492515
49057499900
49057504356
49057509666
49057516075
49057520408
49057527305
49057533592
49057537986
49057544151
49057551963
49057555686
49057563316
49057568443
49057573203
49057578880
49057584678
49057590232
49057595664
49057600730
49057607261
49057611533
49057618369
49057625877
49057631126
49057636497
49057641379
49057646079
49057652122
49057658774
49057663901
49057669394
49057674643
49057680381
49057686118
49057691062
49057697532
49057702536
49057708396
49057713584
49057719321
49057724509
49057731345
49057736533
49057742697
49057748679
49057753501
49057759177
49057764304
49057769004
49057774680
49057779746
49057785239
49057790488
49057796469
49057802207
49057807028
49057812949
49057816977
49057824057
49057829794
49057834433
49057842062
49057847556
49057852927
49057857687
49057862509
49057869711
49057875998
49057881247
49057887411
49057892294
49057898215
49057904379
49057909262
49057915732
49057920920
49057926901
49057932944
49057939169
49057944479
49057950583
49057956320
49057961203
49057965597
49057972006
49057976950
49057982565
49057989035
49057992941
49057999777
49058004904
49058009604
49058015402
49058022116
49058026937
49058032736
49058037130
49058042929
49058047628
49058052694
49058057699
49058063192
49058069174
49058074362
49058079000
49058085226
49058090414
49058095602
49058101644
49058106527
49058111288
49058115927
49058121786
49058125509
49058131246
49058135214
49058143758
49058149252
49058154440
49058159689
49058165121
49058170553
49058178243
49058184286
49058189474
49058194479
49058201070
49058206258
49058212179
49058218893
49058223714
49058229330
49058235067
49058240621
49058247640
49058252767
49058257955
49058263265
49058268941
49058274862
49058280477
49058285970
49058290609
49058296102
49058301229
49058305990
49058310811
49058317952
49058322713
49058328206
49058333821
49058339193
49058344869
49058351644
49058356404
49058362386
49058366841
49058371480
49058377034
49058382039
49058389119
49058395040
49058401875
49058407063
49058413228
49058419393
49058424458
49058431172
49058437825
49058442952
49058450276
49058454793
49058461079
49058465840
49058472066
49058477620
49058482808
49058488301
49058493611
49058498921
49058503926
49058509785
49058514973
49058520772
49058525410
49058532063
49058537617
49058543049
49058548176
49058552937
49058558613
49058564168
49058570820
49058577717
49058583210
49058587788
49058594319
49058600789
49058605793
49058612202
49058617329
49058622151
49058628926
49058633992
49058641072
49058645832
49058651387
49058657124
49058662678
49058667988
49058673542
49058678669
49058683857
49058689656
49058694599
49058700581
49058704670
49058711506
49058715656
49058721882
49058725788
49058731953
49058737080
49058742512
49058748371
49058752399
49058757710
49058763752
49058768635
49058773457
49058778522
49058784809
49058789814
49058795246
49058798420
49058805866
49058810810
49058816425
49058821247
49058827412
49058832722
49058837543
49058842609
49058848285
49058852924
49058860004
49058865619
49058869526
49058876728
49058881672
49058887714
49058894916
49058900776
49058907184
49058913898
49058919452
49058925129
49058931476
49058936725
49058943683
49058948261
49058954181
49058959308
49058965290
49058970233
49058976825
49058981952
49058986774
49058992084
49058998187
49059002887
49059008808
49059015033
49059020221
49059025043
49059030597
49059036884
49059042011
49059049762
49059054828
49059060321
49059065265
49059071368
49059076373
49059082111
49059087604
49059092059
49059097064
49059102985
49059108966
49059115436
49059119769
49059125384
49059130084
49059136371
49059141376
49059146991
49059153399
49059157794
49059161700
49059168048
49059173114
49059178180
49059183856
49059189776
49059196673
49059201251
49059205829
49059211688
49059216693
49059223285
49059229022
49059232928
49059239764
49059246356
49059250323
49059256427
49059262713
49059267352
49059274005
49059279376
49059284930
49059290179
49059296160
49059301287
49059307574
49059311724
49059318804
49059325091
49059329302
49059334612
49059340655
49059345416
49059351641
49059356036
49059362261
49059368914
49059374163
49059379717
49059384722
49059389849
49059395647
49059400225
49059407000
49059411761
49059416582
49059422869
49059429583
49059434221
49059439470
49059443621
49059451006
49059455645
49059461809
49059467608
49059472796
49059477923
49059483355
49059489214
49059494951
49059501848
49059506487
49059512346
49059516436
49059522478
49059528582
49059535540
49059540239
49059545916
49059551531
49059556353
49059562822
49059568315
49059573259
49059578508
49059584184
49059590166
49059594988
49059600176
49059604997
49059611040
49059617693
49059622270
49059627519
49059632768
49059637590
49059642961
49059649248
49059654253
49059659196
49059665300
49059670061
49059674577
49059680742
49059685442
49059692644
49059697832
49059704179
49059710466
49059714189
49059721452
49059726335
49059732133
49059738664
49059744462
49059750017
49059755876
49059759904
49059766862
49059773088
49059778459
49059784074
49059790300
49059795976
49059801164
49059805558
49059812761
49059818315
49059822282
49059829545
49059833940
49059840104
49059846879
49059851945
49059857926
49059864457
49059869828
49059875199
49059881669
49059886125
49059893693
49059900224
49059906449
49059913590
49059918595
49059923112
49059930253
49059937272
49059941605
49059947770
49059954240
49059959122
49059966142
49059972672
49059976762
49059983292
49059989457
49059993485
49060000870
49060007340
49060013383
49060017960
49060024308
49060029679
49060035660
49060040543
49060047257
49060052811
49060057816
49060063004
49060067643
49060073868
49060080826
49060086197
49060091568
49060097672
49060102921
49060107621
49060114945
49060121476
49060126297
49060131729
49060136368
49060142227
49060147660
49060152603
49060157730
49060163773
49060168900
49060173905
49060179642
49060183731
49060188919
49060195511
49060200516
49060206925
49060212235
49060217178
49060224442
49060229446
49060235855
49060240433
49060246109
49060251419
49060258255
49060262283
49060269241
49060275223
49060279495
49060286697
49060292801
49060298111
49060303360
49060308792
49060313553
49060319961
49060324173
49060330337
49060335708
49060340835
49060346512
49060351333
49060356827
49060363052
49060368667
49060374954
49060379654
49060384536
49060389969
49060394363
49060402176
49060408096
49060413711
49060417984
49060424636
49060430130
49060435806
49060440994
49060446853
49060452346
49060457046
49060463699
49060468337
49060475784
49060480789
49060485732
49060491348
49060496353
49060502761
49060509231
49060515457
49060519973
49060526260
49060529983
49060536208
49060542129
49060547073
49060553664
49060557937
49060564468
49060569350
49060574599
49060581008
49060585097
49060591994
49060597549
49060602553
49060607619
49060614760
49060619460
49060624892
49060630874
49060635695
49060641311
49060647170
49060654860
49060658706
49060665053
49060669509
49060675490
49060680434
49060686477
49060691481
49060697280
49060703383
49060706801
49060712844
49060717238
49060724318
49060728713
49060735427
49060740615
49060745803
49060750624
49060757094
49060762221
49060767775
49060771620
49060777602
49060781996
49060788771
49060793959
49060801039
49060805678
49060810072
49060815627
49060820754
49060826552
49060831862
49060837233
49060844008
49060849318
49060854140
49060860304
49060867201
49060873793
49060879103
49060883498
49060889906
49060895705
49060901991
49060908827
49060913893
49060918776
49060924513
49060930983
49060936720
49060942763
49060949110
49060953993
49060960158
49060964247
49060970228
49060976698
49060981642
49060986586
49060990797
49060997328
49061002943
49061007826
49061014296
49061018995
49061025648
49061030531
49061036573
49061042982
49061048292
49061053541
49061059400
49061063917
49061070387
49061076002
49061081922
49061087660
49061092665
49061098707
49061104749
49061109998
49061115675
49061120802
49061125501
49061131178
49061137952
49061142713
49061148084
49061154188
49061160291
49061165968
49061170667
49061177076
49061181226
49061187696
49061193555
49061198682
49061203382
49061208021
49061213575
49061219251
49061224500
49061229627
49061235670
49061240186
49061244886
49061250074
49061254712
49061260816
49061265821
49061272962
49061278394
49061282544
49061289380
49061294873
49061299756
49061306104
49061311719
49061317029
49061322339
49061327222
49061333387
49061340955
49061346875
49061352490
49061357862
49061362561
49061367566
49061372998
49061378125
49061383985
49061388684
49061393079
49061397595
49061404065
49061411145
49061416455
49061421460
49061427075
49061432324
49061437878
49061443066
49061449658
49061453687
49061460095
49061464734
49061469434
49061472241
49061479260
49061485059
49061490430
49061495557
49061499829
49061506116
49061508923
49061515637
49061521924
49061527783
49061532361
49061536816
49061542798
49061548657
49061553540
49061559826
49061565014
49061570996
49061575940
49061581067
49061586377
49061591504
49061598950
49061604077
49061609448
49061614636
49061619702
49061625195
49061629162
49061635937
49061641613
49061646801
49061652355
49061656933
49061661328
49061666821
49061674633
49061680737
49061686840
49061692944
49061699108
49061703991
49061709606
49061715649
49061720837
49061727184
49061732800
49061738659
49061744396
49061749218
49061755016
49061761547
49061765636
49061773327
49061778881
49061783092
49061789928
49061794994
49061800121
49061805675
49061812206
49061817272
49061823070
49061828869
49061834911
49061840770
49061846142
49061851879
49061857860
49061862926
49061869213
49061873424
49061879223
49061884716
49061890331
49061896312
49061901134
49061908153
49061913768
49061918529
49061925731
49061931896
49061937206
49061944103
49061947155
49061956127
49061963024
49061968151
49061973216
49061978710
49061983287
49061988292
49061993724
49061998729
49062004405
49062010082
49062014354
49062019847
49062023753
49062030040
49062035899
49062040233
49062047008
49062052074
49062056712
49062062816
49062067821
49062074535
49062079234
49062084666
49062091197
49062096202
49062102305
49062108104
49062112926
49062119212
49062124705
49062130931
49062136485
49062141795
49062147349
49062153636
49062159190
49062164256
49062171641
49062177134
49062182139
49062188670
49062193675
49062198924
49062204783
49062210643
49062216441
49062222911
49062228953
49062234141
49062241221
49062247813
49062252452
49062258494
49062264598
49062269358
49062275340
49062280589
49062286082
49062292735
49062296824
49062302805
49062308177
49062313548
49062319407
49062324412
49062329050
49062335276
49062341013
49062345957
49062351878
49062356638
49062363718
49062368967
49062374155
49062380625
49062387461
49062392771
49062399119
49062404429
49062409312
49062415659
49062420420
49062427744
49062433359
49062438364
49062444163
49062449656
49062456064
49062461924
49062467234
49062471994
49062476084
49062482309
49062488108
49062493418
49062499948
49062506662
49062511240
49062516123
49062520822
49062527048
49062531687
49062538584
49062544016
49062549082
49062554941
49062559458
49062564524
49062571665
49062576608
49062582102
49062587473
49062592233
49062596079
49062602670
49062608774
49062614572
49062620187
49062626413
49062630930
49062636850
49062642709
49062648325
49062653390
49062660654
49062665659
49062670969
49062678903
49062684885
49062690927
49062696359
49062703134
49062708932
49062714242
49062719736
49062724801
49062730478
49062736581
49062742380
49062747690
49062752450
49062758371
49062763437
49062770028
49062775522
49062781686
49062786996
49062792855
49062798288
49062803231
49062809579
49062813668
49062820382
49062826486
49062831185
49062836923
49062842477
49062847909
49062854379
49062858773
49062864633
49062870065
49062876534
49062881051
49062885140
49062892526
49062898019
49062902230
49062909737
49062914498
49062919564
49062925851
49062930306
49062937142
49062942147
49062947518
49062953622
49062959481
49062963387
49062971139
49062975228
49062982430
49062988106
49062993355
49062998543
49063004891
49063009652
49063015694
49063021798
49063026192
49063032113
49063036141
49063042977
49063048104
49063053292
49063059578
49063063485
49063068978
49063077034
49063082161
49063087655
49063092598
49063097969
49063103951
49063109688
49063115609
49063121041
49063125679
49063131661
49063137154
49063142342
49063148812
49063154427
49063159249
49063165962
49063169625
49063175484
49063182137
49063187142
49063193550
49063199898
49063206368
49063210884
49063216744
49063223396
49063228951
49063235542
49063241158
49063246284
49063252083
49063258430
49063262520
49063269783
49063272591
49063278450
49063284187
49063288521
49063295112
49063299751
49063305794
49063310798
49063316047
49063320808
49063326179
49063331245
49063336494
49063341621
49063346138
49063352058
49063357795
49063361702
49063368171
49063374397
49063380378
49063385017
49063389595
49063395149
49063402107
49063406990
49063413642
49063417549
49063423042
49063427375
49063433967
49063439704
49063445137
49063450569
49063455757
49063460517
49063466316
49063471443
49063477607
49063483528
49063488410
49063493049
49063499824
49063504890
49063510139
49063514961
49063520820
49063525764
49063530586
49063535468
49063540412
49063544746
49063551521
49063557990
49063562751
49063568610
49063575263
49063580451
49063586066
49063591621
49063596564
49063601813
49063606940
49063612311
49063617621
49063623542
49063628608
49063634162
49063641425
49063647040
49063652533
49063658759
49063662421
49063669867
49063675361
49063680121
49063686225
49063692389
49063697943
49063704047
49063709052
49063713874
49063718878
49063724738
49063730902
49063737616
49063742438
49063747260
49063752204
49063758368
49063764594
49063770575
49063775397
49063781622
49063787360
49063794196
49063800665
49063805853
49063813117
49063817389
49063823981
49063828680
49063835761
49063841254
49063847174
49063853583
49063858343
49063864508
49063870184
49063875616
49063880682
49063886297
49063892462
49063896857
49063902716
49063909918
49063916022
49063920965
49063927008
49063932440
49063939459
49063944403
49063950934
49063955999
49063961187
49063966497
49063973028
49063979437
49063984747
49063990118
49063995916
49064001165
49064006781
49064013433
49064018743
49064023992
49064028509
49064034796
49064040167
49064045233
49064050726
49064056890
49064060430
49064067144
49064073187
49064078741
49064083502
49064089666
49064095281
49064101629
49064107366
49064112859
49064118047
49064122137
49064129339
49064135320
49064140752
49064145574
49064151006
49064156377
49064162420
49064168645
49064174200
49064179388
49064185064
49064190862
49064196172
49064200933
49064207342
49064211431
49064218389
49064223821
49064230169
49064235479
49064240484
49064246831
49064251775
49064257512
49064263860
49064268987
49064274602
49064280706
49064286382
49064291570
49064298528
49064304692
49064309575
49064315679
49064319585
49064326055
49064332524
49064336736
49064342290
49064346807
49064354558
49064360173
49064364995
49064371465
49064379826
49064384831
49064390202
49064395879
49064400700
49064406377
49064413274
49064418218
49064424443
49064429265
49064435979
49064441594
49064447758
49064453801
49064459416
49064464177
49064470402
49064476933
49064483098
49064489323
49064494755
49064500920
49064506718
49064511662
49064517033
49064523991
49064529240
49064535405
49064540593
49064545414
49064551457
49064557805
49064562443
49064568608
49064574528
49064579777
49064585392
49064590641
49064596074
49064601078
49064605778
49064612004
49064617253
49064622563
49064629765
49064635075
49064640690
49064646488
49064651188
49064656864
49064661686
49064668461
49064674870
49064679264
49064686039
49064691288
49064697270
49064702641
49064706852
49064714481
49064719059
49064724125
49064730473
49064736454
49064742069
49064747135
49064753117
49064758854
49064765201
49064769413
49064775944
49064781315
49064785953
49064791874
49064797855
49064804264
49064811466
49064817814
49064823368
49064829471
49064833866
49064839481
49064845951
49064851383
49064857486
49064863834
49064869388
49064875858
49064881290
49064887088
49064892459
49064896671
49064903629
49064908939
49064914676
49064919742
49064924076
49064931400
49064936893
49064941959
49064946720
49064951724
49064957828
49064964481
49064968265
49064974429
49064980228
49064985782
49064991580
49064996829
49065001529
49065007938
49065012576
49065018924
49065024905
49065029056
49065036258
49065041202
49065047061
49065052676
49065057132
49065064273
49065070376
49065075015
49065080997
49065087894
49065093143
49065098819
49065103885
49065108706
49065115603
49065122073
49065128238
49065134341
49065139346
49065144717
49065151492
49065155093
49065161441
49065166018
49065173159
49065178958
49065183780
49065189822
49065196170
49065200625
49065207705
49065213320
49065217959
49065223818
49065227969
49065235293
49065240847
49065246157
49065251589
49065257022
49065262393
49065268862
49065273135
49065279543
49065285952
49065291811
49065297122
49065301333
49065307925
49065314028
49065319277
49065325991
49065328860
49065336672
49065342104
49065346255
49065353091
49065358340
49065362978
49065370791
49065375857
49065381960
49065387881
49065391299
49065398806
49065404055
49065408632
49065415346
49065422243
49065426516
49065433474
49065438784
49065444338
49065450869
49065455507
49065461672
49065466616
49065471499
49065478212
49065484377
49065489626
49065495607
49065502016
49065507082
49065513124
49065518373
49065524843
49065533327
49065537294
49065543337
49065549745
49065554628
49065561159
49065566286
49065572267
49065578615
49065583925
49065589601
49065594545
49065600404
49065607729
49065611757
49065618532
49065623903
49065629396
49065634340
49065640871
49065645448
49065652223
49065656618
49065663087
49065669374
49065674684
49065680116
49065686281
49065691041
49065697328
49065702882
49065707521
49065713746
49065719179
49065726137
49065730531
49065736818
49065742860
49065747682
49065754579
49065760194
49065766603
49065772828
49065779115
49065786439
49065791932
49065795961
49065802919
49065807374
49065812135
49065818421
49065822694
49065828981
49065834474
49065840760
49065847596
49065853211
49065857240
49065864442
49065869325
49065875672
49065880555
49065884889
49065893006
49065898805
49065903626
49065909974
49065915101
49065919862
49065925904
49065930848
49065939088
49065944337
49065949891
49065955079
49065959351
49065966248
49065971680
49065977418
49065982850
49065987061
49065993531
49066000062
49066004090
49066010315
49066016602
49066021424
49066026978
49066032166
49066037354
49066044251
49066049012
49066055115
49066061341
49066067017
49066072022
49066078247
49066083619
49066089905
49066096192
49066101624
49066107483
49066113098
49066118714
49066124878
49066130188
49066135987
49066142273
49066147583
49066153870
49066158142
49066163819
49066170715
49066176026
49066181458
49066187195
49066194031
49066199402
49066204956
49066209839
49066215698
49066220581
49066227295
49066231995
49066237610
49066243896
49066250183
49066254761
49066261902
49066267090
49066271973
49066277893
49066283203
49066288635
49066295593
49066299499
49066306213
49066312134
49066316040
49066322998
49066330688
49066334533
49066340942
49066345459
49066351196
49066358337
49066365051
49066370422
49066375671
49066380249
49066386169
49066391296
49066398193
49066403625
49066408569
49066413818
49066419799
49066424987
49066431274
49066437316
49066443603
49066449035
49066453796
49066460021
49066464660
49066473205
49066478881
49066483032
49066489562
49066495788
49066499450
49066506286
49066512939
49066518066
49066523254
49066527160
49066534667
49066540771
49066546935
49066552428
49066558471
49066563476
49066568481
49066572875
49066579833
49066586242
49066591308
49066597167
49066602111
49066607665
49066614135
49066619628
49066624633
49066630797
49066634826
49066641723
49066646605
49066651976
49066658019
49066663085
49066668090
49066673827
49066679015
49066684203
49066690428
49066695678
49066700927
49066706664
49066711608
49066718444
49066724486
49066729613
49066735289
49066740599
49066747252
49066751952
49066757140
49066763487
49066768126
49066774596
49066779723
49066785155
49066789977
49066794920
49066801573
49066807066
49066812376
49066817992
49066823973
49066829649
49066836546
49066841612
49066847044
49066852171
49066857237
49066863463
49066870116
49066875181
49066881529
49066885985
49066892576
49066898009
49066903380
49066909239
49066914732
49066920164
49066925596
49066931273
49066936400
49066942076
49066948423
49066954588
49066958616
49066964964
49066970274
49066975584
49066980894
49066985105
49066991880
49066997618
49067003538
49067008970
49067015501
49067020811
49067026792
49067032774
49067038389
49067045835
49067050596
49067057554
49067062986
49067069090
49067074827
49067081052
49067086057
49067092161
49067097105
49067103086
49067108396
49067114744
49067121214
49067126707
49067131284
49067137754
49067142454
49067147581
49067153013
49067158445
49067164426
49067170286
49067174863
49067181943
49067188718
49067193540
49067200132
49067205320
49067210325
49067216123
49067223447
49067229734
49067237241
49067243161
49067249082
49067255613
49067260678
49067266416
49067272458
49067276914
49067284543
49067289609
49067294858
49067299619
49067306882
49067311826
49067317746
49067321897
49067328000
49067333432
49067337949
49067345395
49067352109
49067357236
49067362790
49067368710
49067373654
49067379758
49067385556
49067390805
49067397397
49067401425
49067408566
49067413327
49067418027
49067424863
49067429684
49067434689
49067440976
49067445920
49067452756
49067459103
49067464108
49067470273
49067475522
49067480588
49067486752
49067492001
49067497677
49067503232
49067508664
49067514218
49067518612
49067524716
49067530880
49067536068
49067541073
49067545773
49067551510
49067556881
49067561703
49067568173
49067575375
49067581112
49067587338
49067592892
49067598263
49067602230
49067609616
49067615902
49067619992
49067625851
49067631283
49067637692
49067645260
49067650265
49067654781
49067660519
49067668087
49067673580
49067678341
49067683468
49067690243
49067696468
49067700680
49067707577
49067711117
49067718685
49067723568
49067728878
49067733944
49067741268
49067746395
49067753780
49067758358
49067763302
49067770199
49067775020
49067780575
49067786983
49067791988
49067797603
49067801632
49067808834
49067814205
49067818660
49067824520
49067830379
49067835140
49067840816
49067846431
49067852047
49067858577
49067863277
49067868587
49067873775
49067878963
49067886043
49067892818
49067897518
49067902156
49067908687
49067914485
49067919490
49067925533
49067930293
49067936153
49067940792
49067945979
49067951167
49067956477
49067963313
49067967586
49067973384
49067978999
49067983760
49067988277
49067993892
49067999995
49068004390
49068010677
49068015071
49068020198
49068026546
49068030696
49068036922
49068042354
49068046382
49068051387
49068056575
49068060420
49068066096
49068073360
49068077815
49068083674
49068087825
49068095271
49068101314
49068107173
49068112544
49068119136
49068123774
49068129878
49068133540
49068139277
49068146174
49068151728
49068157832
49068161921
49068168635
49068174128
49068179927
49068185786
49068191584
49068197077
49068203059
49068208125
49068214472
49068219721
49068226313
49068231867
49068237971
49068243403
49068248713
49068254145
49068260798
49068266535
49068272212
49068278620
49068283686
49068289545
49068294367
49068300288
49068305048
49068311213
49068317561
49068323298
49068327998
49068334284
49068338190
49068345454
49068352717
49068359614
49068364558
49068370905
49068375544
49068382075
49068388300
49068392756
49068399531
49068404291
49068410517
49068415522
49068421198
49068426203
49068433222
49068438410
49068443110
49068449823
49068454767
49068459894
49068466364
49068473322
49068476435
49068483820
49068489069
49068494684
49068501337
49068506891
49068513178
49068518061
49068522333
49068529169
49068535944
49068540949
49068546930
49068552850
49068558832
49068563532
49068569025
49068573785
49068581293
49068585321
49068591241
49068596307
49068601678
49068607416
49068613458
49068618280
49068624445
49068631280
49068635980
49068641534
49068645685
49068653009
49068658685
49068663080
49068669733
49068675348
49068681329
49068688287
49068692438
49068698663
49068704217
49068708368
49068715814
49068722040
49068726861
49068733575
49068738275
49068743158
49068749688
49068753473
49068759698
49068763971
49068770868
49068776300
49068781427
49068788079
49068793328
49068797967
49068803338
49068809136
49068814141
49068820855
49068825860
49068832635
49068838433
49068843743
49068849297
49068854424
49068859979
49068865838
49068871087
49068877129
49068882195
49068887078
49068892083
49068897881
49068903619
49068908135
49068913934
49068919122
49068925103
49068930108
49068934869
49068941582
49068946770
49068951897
49068957268
49068962456
49068967339
49068973199
49068978631
49068983636
49068989861
49068995293
49068998833
49069005059
49069009514
49069016289
49069021782
49069027886
49069035027
49069041192
49069046990
49069053460
49069058220
49069063042
49069070305
49069075371
49069080559
49069086602
49069092156
49069097893
49069103813
49069109368
49069116020
49069121025
49069126641
49069131890
49069136223
49069143852
49069148674
49069153984
49069159538
49069166435
49069171990
49069177483
49069181877
49069189384
49069195427
49069201591
49069207329
49069212273
49069217216
49069223198
49069227470
49069234123
49069239799
49069245109
49069250481
49069256401
49069261711
49069267937
49069272026
49069278557
49069285026
49069288994
49069296257
49069301750
49069306450
49069311943
49069316826
49069323845
49069329582
49069335258
49069341179
49069346611
49069351432
49069357536
49069362663
49069367973
49069375480
49069380485
49069386467
49069391166
49069396354
49069403007
49069407951
49069413688
49069418876
49069423210
49069429679
49069435722
49069442008
49069447379
49069453666
49069459098
49069464713
49069470878
49069476066
49069481132
49069485709
49069492912
49069498527
49069503288
49069509879
49069515067
49069521293
49069526969
49069532951
49069538261
49069543265
49069548820
49069554801
49069561393
49069567008
49069571891
49069578055
49069583060
49069588309
49069593924
49069599845
49069604728
49069609305
49069615653
49069620353
49069626212
49069632682
49069636832
49069643058
49069648490
49069653556
49069660697
49069665457
49069671134
49069677664
49069682303
49069688468
49069693534
49069700370
49069705924
49069711356
49069716300
49069722830
49069728690
49069735098
49069739188
49069746207
49069748831
49069756888
49069761343
49069767874
49069772513
49069776785
49069783133
49069789359
49069794547
49069800772
49069805594
49069811270
49069817007
49069823050
49069827689
49069834036
49069838003
49069844412
49069848807
49069854727
49069859793
49069864493
49069870596
49069877554
49069882498
49069887381
49069893118
49069899161
49069902762
49069908804
49069914663
49069919912
49069925283
49069930838
49069935720
49069941214
49069946646
49069952749
49069958059
49069963552
49069967459
49069973440
49069978750
49069983755
49069989309
49069994680
49070001150
49070005972
49070010610
49070015249
49070020620
49070026907
49070032095
49070036550
49070042104
49070047048
49070052236
49070057241
49070064199
49070068288
49070073660
49070077566
49070083913
49070089346
49070094473
49070101064
49070106252
49070111623
49070116628
49070122488
49070126882
49070132680
49070138296
49070142934
49070148916
49070153432
49070158620
49070164358
49070168325
49070174978
49070180166
49070185781
49070188527
49070194875
49070201406
49070205434
49070212331
49070216543
49070222280
49070226491
49070232412
49070237539
49070242788
49070248525
49070253591
49070258474
49070263417
49070268117
49070274526
49070279592
49070286611
49070290334
49070296193
49070301686
49070306569
49070310597
49070315907
49070322011
49070327016
49070333425
49070339833
49070345326
49070351552
49070357350
49070362660
49070369679
49070376393
49070382802
49070387929
49070393910
49070399953
49070408009
49070412770
49070417714
49070424062
49070428151
49070434437
49070440541
49070446644
49070451771
49070456898
49070462330
49070469227
49070474782
49070479481
49070485402
49070489430
49070495106
49070501881
49070506520
49070512501
49070516652
49070522511
49070528553
49070533009
49070539235
49070543202
49070550465
49070555592
49070561024
49070566029
49070572743
49070577320
49070583485
49070589344
49070594410
49070599598
49070605702
49070612110
49070617542
49070622975
49070629017
49070633045
49070640003
49070646351
49070650440
49070656422
49070662464
49070667408
49070673512
49070678822
49070684681
49070689991
49070695240
49070700733
49070705982
49070712391
49070718250
49070722889
49070730579
49070734730
49070737842
49070742481
49070747181
49070751331
49070754810
49070757923
49070762928
49070767505
49070771839
49070775257
49070780262
49070784046
49070787464
49070793995
49070796680
49070802662
49070806568
49070811390
49070815479
49070820179
49070824268
49070827930
49070832447
49070835804
49070841114
49070845508
49070849170
49070854602
49070859241
49070863697
49070868640
49070873584
49070878345
49070882740
49070886646
49070892566
49070897632
49070901660
49070905811
49070909046
49070915210
49070919177
49070923023
49070928455
49070933093
49070938098
49070942920
49070945239
49070951343
49070956226
49070959644
49070964587
49070969592
49070973865
49070978381
49070981921
49070986865
49070991260
49070995410
49071000598
49071005359
49071009936
49071013721
49071017505
49071024341
49071029040
49071033252
49071037585
49071041553
49071045215
49071049243
49071053454
49071058337
49071062610
49071066394
49071070727
49071076037
49071081836
49071087146
49071090869
49071095874
49071099353
49071104602
49071108081
49071114001
49071116198
49071121508
49071125720
49071130908
49071135119
49071140063
49071144152
49071147876
49071152453
49071156726
49071161669
49071166003
49071169970
49071174426
49071178759
49071184436
49071188952
49071192248
49071197253
49071201586
49071206225
49071210620
49071214404
49071219287
49071223925
49071229113
49071233019
49071237353
49071242480
49071247485
49071250597
49071254687
49071259448
49071264025
49071267748
49071271777
49071276110
49071281481
49071285510
49071289660
49071293261
49071297350
49071302966
49071306383
49071311327
49071315722
49071318835
49071323046
49071326647
49071331347
49071338610
49071343310
49071348376
49071352587
49071356249
49071361071
49071364733
49071369188
49071373766
49071378832
49071382677
49071386767
49071391161
49071396471
49071400072
49071405138
49071411242
49071415148
49071419420
49071423571
49071427294
49071431627
49071434923
49071441027
49071444811
49071449327
49071454210
49071458300
49071462694
49071466478
49071470812
49071474901
49071479662
49071484667
49071488268
49071493212
49071496691
49071502611
49071506578
49071511156
49071515734
49071518663
49071523119
49071528246
49071532274
49071538439
49071543627
49071547472
49071552171
49071556505
49071559618
49071564378
49071568529
49071573595
49071576830
49071581041
49071585619
49071590257
49071594102
49071598985
49071601976
49071606676
49071611314
49071615343
49071621507
49071626268
49071629503
49071635057
49071639940
49071643419
49071648363
49071654283
49071658433
49071663804
49071667711
49071672532
49071677720
49071682054
49071687486
49071692308
49071696763
49071700670
49071705125
49071709459
49071714280
49071718187
49071722032
49071725389
49071730699
49071735704
49071739244
49071744188
49071748155
49071751878
49071756578
49071759019
49071764207
49071768479
49071773301
49071777879
49071781785
49071786973
49071791856
49071795152
49071799974
49071803880
49071807542
49071812547
49071816392
49071821641
49071826646
49071830430
49071834580
49071838548
49071843247
49071847520
49071850694
49071855821
49071859971
49071864732
49071868943
49071873277
49071878281
49071882249
49071885545
49071889512
49071894456
49071898484
49071903367
49071908067
49071912400
49071917466
49071922166
49071925400
49071930527
49071934128
49071942124
49071950303
49071958359
49071961289
49071969224
49071975937
49071986435
49071989243
49071999314
49072005906
49072012864
49072019761
49072026535
49072034958
49072042344
49072052414
49072058029
49072063217
49072068100
49072078110
49072084091
49072091965
49072098984
49072105271
49072112351
49072119980
49072126816
49072134323
49072142197
49072145126
49072153977
49072163254
49072170639
49072177231
49072184189
49072189987
49072196579
49072201706
49072207504
49072215012
49072220688
49072226852
49072236191
49072243454
49072248520
49072254379
49072259201
49072267624
49072271530
49072279709
49072286056
49072294479
49072300888
49072305893
49072313583
49072319564
49072322372
49072332565
49072337509
49072345077
49072349472
49072358200
49072365280
49072368331
49072377304
49072383956
49072390609
49072396774
49072400253
49072409591
49072417343
49072426193
49072430404
49072437545
49072443710
49072447982
49072456466
49072462753
49072469222
49072475875
49072483443
49072490401
49072495773
49072504439
49072508712
49072516463
49072523482
49072527999
49072535567
49072542403
49072548080
49072554671
49072562850
49072568953
49072578475
49072584273
49072591842
49072597945
49072603866
49072616011
49072620894
49072628157
49072634566
49072640364
49072646773
49072654341
49072660994
49072668135
49072677230
49072680220
49072688948
49072696028
49072704024
49072708113
49072716109
49072723799
49072731246
49072740218
49072743636
49072752730
49072759810
49072767439
49072773543
49072780318
49072787398
49072794661
49072803755
49072807417
49072817061
49072824019
49072830916
49072837385
49072844221
49072851179
49072858320
49072867537
49072874251
49072881636
49072888350
49072893660
49072900068
49072907087
49072912581
49072919355
49072929792
49072935469
49072944197
49072951094
49072957197
49072965376
49072967878
49072976301
49072983808
49072994795
49073000959
49073008650
49073015547
49073021162
49073029402
49073031599
49073039961
49073051862
49073058698
49073066938
49073074628
49073078779
49073086835
49073093122
49073098005
49073108320
49073113813
49073123579
49073131269
49073138776
49073145124
49073152875
49073158979
49073164960
49073170759
49073177961
49073188581
49073194501
49073203595
49073210431
49073215680
49073223615
49073229474
49073235944
49073240888
49073252973
49073255841
49073265119
49073272138
49073279584
49073286298
49073291425
49073297772
49073306073
49073313214
49073318829
49073328046
49073332440
49073340436
49073347028
49073354474
49073362531
49073368756
49073377423
49073382672
49073390668
49073397015
49073404767
49073411175
49073417035
49073425397
49073432599
49073441998
49073448224
49073456769
49073464032
49073469647
49073477582
49073484967
49073491681
49073498761
49073506207
49073511883
49073520916
49073527935
49073534161
49073540326
49073546612
49073552899
49073564434
49073571514
49073577008
49073585980
49073589825
49073598431
49073604778
49073611553
49073617718
49073626080
49073637615
49073643597
49073651104
49073657757
49073665508
49073671124
49073678082
49073683819
49073692852
49073702312
49073710003
49073715862
49073724407
49073727276
49073737408
49073742657
49073750774
49073759075
49073769695
49073775127
49073782085
49073788311
49073796978
49073803081
49073807476
49073814983
49073822673
49073832561
49073837749
49073845684
49073852825
49073858867
49073864665
49073870647
49073878704
49073884929
49073895366
49073900737
49073909587
49073913799
49073923992
49073930644
49073937907
49073944865
49073952068
49073959148
49073964336
49073973247
49073980266
49073986369
49073992473
49073999858
49074006145
49074016337
49074023784
49074031718
49074037944
49074042460
49074052592
49074057475
49074065471
49074074077
49074081584
49074089457
49074097392
49074105021
49074110148
49074117778
49074122783
49074132243
49074139811
49074146708
49074153117
49074161662
49074168254
49074173686
49074180827
49074186686
49074193827
49074199992
49074207133
49074216410
49074223734
49074229655
49074235575
49074240275
49074248393
49074254984
49074261454
49074268107
49074275431
49074282572
49074287943
49074296061
49074302653
49074309183
49074314982
49074319620
49074327494
49074332377
49074345316
49074351542
49074359537
49074365397
49074370035
49074377421
49074383463
49074390421
49074396280
49074403421
49074412272
49074419657
49074426310
49074432108
49074436747
49074444925
49074448770
49074456949
49074463236
49074471170
49074479288
49074485086
49074491373
49074498209
49074504129
49074510050
49074514871
49074522562
49074528055
49074538004
49074546610
49074549844
49074557718
49074564310
49074570169
49074576212
49074580911
49074589700
49074596597
49074605203
49074612222
49074618753
49074625345
49074631265
49074637124
49074643838
49074648477
49074657144
49074666116
49074672891
49074677896
49074684366
49074690469
49074696878
49074704995
49074710305
49074716958
49074721841
49074729104
49074738504
49074746865
49074752969
49074761392
49074768289
49074776406
49074783669
49074789529
49074801370
49074804360
49074814675
49074819741
49074826821
49074833474
49074840859
49074847939
49074856118
49074863259
49074869790
49074878274
49074883034
49074889626
49074896523
49074902749
49074910439
49074923073
49074929360
49074935830
49074944192
49074949868
49074956215
49074961159
49074970437
49074978798
49074986367
49074994118
49075000954
49075010842
49075020180
49075027993
49075035927
49075040383
49075051613
49075058510
49075061745
49075072975
49075080727
49075087563
49075095314
49075102028
49075108315
49075117104
49075124611
49075131142
49075139320
49075146217
49075151955
49075156960
49075165749
49075174355
49075182411
49075189491
49075197182
49075204628
49075214088
49075221901
49075229225
49075235634
49075244423
49075251686
49075259987
49075267982
49075273842
49075280006
49075284462
49075293190
49075300636
49075309974
49075317115
49075324195
49075327980
49075337562
49075343299
49075349464
49075355873
49075362709
49075373023
49075378211
49075386939
49075394019
49075400550
49075406715
49075413917
49075420692
49075427345
49075436805
49075439796
49075449928
49075456641
49075465797
49075471412
49075481361
49075489051
49075495765
49075503089
49075510291
49075518836
49075527076
49075533973
49075536719
49075548499
49075554114
49075562415
49075568946
49075577308
49075583228
49075587867
49075594703
49075600806
49075608313
49075614783
49075619605
49075630286
49075635657
49075641516
49075647437
49075654700
49075660498
49075665137
49075673621
49075681555
49075689368
49075695654
49075698279
49075709143
49075713721
49075720740
49075728613
49075735327
49075739294
49075745032
49075756689
49075761755
49075768713
49075774512
49075781042
49075787146
49075791968
49075800391
49075805823
49075816931
49075823340
49075831030
49075836706
49075843298
49075848913
49075854712
49075859228
49075867956
49075874731
49075884131
49075888586
49075896338
49075902136
49075906713
49075915014
49075920752
49075927832
49075934545
49075942785
49075953161
49075959204
49075965978
49075972082
49075978185
49075986059
49075991369
49075997961
49076006140
49076013769
49076020361
49076025915
49076033849
49076040441
49076046545
49076052465
49076057104
49076065404
49076072790
49076080968
49076085607
49076093053
49076099157
49076103796
49076111852
49076118017
49076121068
49076130895
49076139318
49076149877
49076154882
49076161840
49076168126
49076174596
49076180578
49076185460
49076193212
49076200292
49076207311
49076214086
49076222081
49076227574
49076232701
49076240697
49076247411
49076253697
49076257665
49076267858
49076274388
49076282079
49076289403
49076295323
49076301610
49076307347
49076314000
49076320287
49076326817
49076334691
49076341039
49076346227
49076355138
49076359410
49076366734
49076372655
49076377599
49076384862
49076393895
49076401951
49076406468
49076415562
49076422215
49076431859
49076437474
49076444493
49076451939
49076460240
49076467015
49076473851
49076480198
49076485142
49076494786
49076501683
49076508335
49076516148
49076519627
49076531468
49076535130
49076546971
49076550022
49076558445
49076565159
49076572483
49076582066
49076591221
49076597935
49076604160
49076610447
49076618626
49076624851
49076629673
49076638157
49076646824
49076654636
49076661777
49076670444
49076676243
49076683628
49076689854
49076694736
49076703342
49076712009
49076720249
49076729709
49076735935
49076742161
49076749607
49076756138
49076764621
49076768589
49076777805
49076786350
49076792209
49076800449
49076807468
49076815219
49076821262
49076827732
49076834629
49076841770
49076850559
49076856174
49076864414
49076871250
49076877841
49076884982
49076892063
49076899143
49076905246
49076914035
49076917331
49076926364
49076934238
49076941562
49076948520
49076955112
49076962619
49076969577
49076979098
49076982700
49076993686
49076998874
49077007358
49077014377
49077021029
49077028049
49077035190
49077042941
49077049716
49077057528
49077063510
49077070651
49077077853
49077083835
49077091525
49077100314
49077107272
49077113864
49077122409
49077129367
49077135531
49077140719
49077148287
49077157504
49077166171
49077173983
49077180392
49077188143
49077197421
49077205477
49077213046
49077220431
49077228793
49077236239
49077244357
49077250216
49077255831
49077265658
49077272616
49077279635
49077288119
49077294405
49077302706
49077309664
49077317782
49077321017
49077330050
49077336275
49077345553
49077354708
49077363253
49077366854
49077376680
49077381929
49077388948
49077395052
49077401705
49077408541
49077416170
49077427523
49077433382
49077439913
49077443819
49077451326
49077457491
49077462007
49077469332
49077477449
49077484957
49077493623
49077500215
49077508821
49077511263
49077521333
49077529451
49077536226
49077541109
49077553255
49077560396
49077568880
49077574190
49077581636
49077587800
49077595613
49077600313
49077611055
49077617402
49077624788
49077630891
49077635774
49077645112
49077649934
49077657380
49077665071
49077671479
49077680757
49077687593
49077693452
49077701509
49077707917
49077712739
49077720796
49077728669
49077736787
49077744844
49077752290
49077759248
49077765840
49077771577
49077779206
49077785676
49077791291
49077801911
49077807221
49077815705
49077822175
49077827973
49077834382
49077841950
49077852082
49077859772
49077867646
49077876008
49077882172
49077887238
49077896271
49077903107
49077910493
49077918549
49077926179
49077934662
49077942475
49077948945
49077952057
49077962372
49077967438
49077977875
49077984955
49077994660
49077999360
49078008393
49078014496
49078020966
49078026886
49078033783
49078038361
49078044892
49078051117
49078061188
49078066376
49078074738
49078080414
49078086823
49078092926
49078097382
49078105988
49078110687
49078118683
49078127655
49078130707
49078139618
49078146393
49078153229
49078159149
49078165619
49078171844
49078179901
49078189911
49078196747
49078203827
49078211212
49078214264
49078227142
49078233612
49078240021
49078246673
49078256439
49078261993
49078269378
49078275543
49078282684
49078288665
49078293731
49078301239
49078309906
49078316375
49078323883
49078330657
49078336700
49078341583
49078350860
49078355499
49078361602
49078368255
49078376434
49078382781
49078390594
49078396575
49078405303
49078411651
49078418243
49078425323
49078432891
49078439239
49078449493
49078455779
49078463287
49078469085
49078477752
49078484466
49078490752
49078498260
49078501006
49078509368
49078514434
49078522735
49078528533
49078537444
49078542083
49078549895
49078557952
49078563445
49078568999
49078575835
49078582000
49078589995
49078594695
49078603057
49078612334
49078620146
49078625762
49078631682
49078637053
49078641570
49078648711
49078655425
49078663054
49078669951
49078676360
49078684111
49078691313
49078697722
49078701079
49078710173
49078716094
49078725127
49078730864
49078739165
49078743681
49078751616
49078757719
49078764250
49078771147
49078779082
49078785063
49078791716
49078798308
49078802885
49078809904
49078816252
49078823027
49078829985
49078839689
49078845366
49078853361
49078860075
49078864714
49078872099
49078879118
49078885954
49078892424
49078899687
49078908354
49078914213
49078920866
49078925199
49078932829
49078938566
49078946562
49078950773
49078957548
49078968473
49078972868
49078980253
49078986479
49078992033
49078998075
49079005094
49079010954
49079016019
49079025846
49079030363
49079039640
49079046110
49079051237
49079056669
49079061124
49079069791
49079075223
49079083036
49079089261
49079096525
49079102628
49079106901
49079113675
49079121549
49079127408
49079134611
49079140226
49079147794
49079154203
49079160672
49079167142
49079172940
49079178312
49079183927
49079190030
49079197293
49079206632
49079211698
49079218839
49079225980
49079233182
49079240018
49079245877
49079253568
49079261563
49079267484
49079276578
49079284696
49079291898
49079297818
49079305509
49079312222
49079319241
49079325162
49079332791
49079340359
49079347440
49079353177
49079359891
49079366482
49079376675
49079384671
49079387601
49079397061
49079404629
49079411526
49079417691
49079426480
49079431729
49079441983
49079446805
49079456387
49079461270
49079469510
49079476895
49079482937
49079489407
49079498013
49079504361
49079511257
49079516812
49079523464
49079529202
49079534024
49079545803
49079553005
49079561001
49079569302
49079575283
49079582058
49079587673
49079593655
49079599514
49079605434
49079617641
49079620449
49079630520
49079636013
49079643642
49079650783
49079658779
49079667385
49079678249
49079685696
49079691677
49079698208
49079705837
49079712307
49079719997
49079727199
49079734524
49079737514
49079748623
49079753811
49079762050
49079768886
49079776577
49079783413
49079788601
49079797206
49079802455
49079811855
49079818569
49079823879
49079832363
49079839260
49079842189
49079852321
49079861049
49079868007
49079876430
49079884853
49079891445
49079900234
49079907802
49079913600
49079924953
49079930690
49079941249
49079949001
49079957057
49079961757
49079970851
49079977687
49079982875
49079992457
49079996852
49080005885
49080012660
49080018214
49080028163
49080033290
49080040736
49080049464
49080052516
49080062526
49080070338
49080077723
49080083216
49080089808
49080104823
49080112574
49080123439
49080131007
49080136317
49080145045
49080148341
49080157130
49080165980
49080175318
49080182887
49080185877
49080194666
49080202479
49080209010
49080215784
49080218897
49080231776
49080237452
49080246729
49080251185
49080261256
49080267969
49080274134
49080282191
49080286768
49080296168
49080303919
49080313807
49080321497
49080326563
49080333826
49080340906
49080347559
49080356409
49080362085
49080369226
49080376673
49080384607
49080391993
49080397242
49080407251
49080411707
49080420984
49080427637
49080434046
49080442652
49080449304
49080457056
49080463648
49080471948
49080478784
49080484155
49080493555
49080500208
49080503198
49080513452
49080519739
49080529749
49080537195
49080545190
49080551782
49080554895
49080564905
49080572351
49080578943
49080585962
49080591333
49080601159
49080607202
49080616723
49080623498
49080626672
49080636987
49080642480
49080651025
49080658227
49080668359
49080675378
49080678613
49080688745
49080696191
49080702539
49080709314
49080718225
49080724938
49080730981
49080740502
49080744836
49080753381
49080760095
49080767846
49080774499
49080781213
49080789697
49080796533
49080802880
49080812829
49080820214
49080827905
49080834435
49080837487
49080848717
49080856164
49080863488
49080870690
49080873864
49080884667
49080889855
49080899071
49080905907
49080913598
49080920311
49080925561
49080934960
49080944298
49080952538
49080959923
49080962914
49080974572
49080982079
49080988671
49080995507
49080998497
49081009056
49081017601
49081025353
49081031822
49081040123
49081047020
49081052208
49081060448
49081067162
49081074608
49081084190
49081089256
49081099327
49081106651
49081114586
49081121483
49081128441
49081135216
49081142784
49081150474
49081158897
49081166832
49081174461
49081179527
49081187523
49081194237
49081201805
49081208824
49081213951
49081222191
49081229881
49081240257
49081247459
49081250206
49081261741
49081267234
49081275169
49081281944
49081289573
49081296348
49081306114
49081313499
49081320274
49081328880
49081336021
49081341209
49081348899
49081355979
49081363120
49081372520
49081375816
49081386802
49081394187
49081402122
49081408775
49081415183
49081422263
49081430015
49081436179
49081443504
49081454124
49081461021
49081466636
49081474814
49081481711
49081489158
49081495933
49081501487
49081509604
49081517112
49081524619
49081534202
49081537131
49081547263
49081554587
49081562278
49081569419
49081572654
49081583823
49081589988
49081598227
49081604819
49081608115
49081618186
49081625937
49081633811
49081640708
49081643698
49081655173
49081661093
49081670615
49081678244
49081684226
49081693503
49081696555
49081705466
49081713217
49081720908
49081728049
49081736105
49081743368
49081748617
49081758200
49081762717
49081771139
49081777731
49081782980
49081792502
49081800314
49081809164
49081816610
49081822043
49081831869
49081836447
49081845785
49081852499
49081855429
49081865622
49081873739
49081881430
49081888205
49081897299
49081903952
49081909323
49081917257
49081923849
49081932638
49081939962
49081947347
49081955709
49081962972
49081970236
49081976827
49081982137
49081991293
49081998861
49082005880
49082012960
49082018636
49082029501
49082034872
49082042806
49082052328
49082059774
49082066427
49082069417
49082080404
49082090169
49082097616
49082104329
49082107503
49082118673
49082123861
49082131368
49082137899
49082140767
49082151387
49082159261
49082166280
49082172567
49082179891
49082186055
49082190389
49082197835
49082204122
49082206624
49082215962
49082223653
49082233846
49082240682
49082247640
49082253377
49082255879
49082264974
49082273763
49082283162
49082290791
49082297444
49082305562
49082313435
49082319966
49082325154
49082335286
49082343220
49082351216
49082358845
49082366109
49082373067
49082380391
49082386922
49082392476
49082403035
49082409749
49082415913
49082422871
49082426106
49082438923
49082444966
49082452900
49082459553
49082466450
49082473408
49082478413
49082487324
49082495137
49082503071
49082509907
49082518635
49082525166
49082530293
49082537678
49082544026
49082551960
49082561237
49082565815
49082577778
49082583576
49082589985
49082599018
49082601948
49082611835
49082619160
49082625446
49082632587
49082635395
49082647846
49082654560
49082660480
49082667072
49082672260
49082678058
49082682880
49082691608
49082700397
49082711017
49082716327
49082723102
49082728962
49082731647
49082742633
49082749042
49082754902
49082762287
49082769428
49082778217
49082781452
49082789997
49082796588
49082803852
49082809711
49082812335
49082821308
49082829364
49082837116
49082843341
49082851276
49082857013
49082865558
49082870990
49082879352
49082887164
49082891193
49082902972
49082910419
49082916705
49082921527
49082930804
49082935199
49082944537
49082951312
49082959552
49082966022
49082973651
49082979938
49082985736
49082994098
49082998858
49083006244
49083013568
49083022479
49083029010
49083036761
49083043353
49083050738
49083057879
49083067401
49083074908
49083078204
49083090777
49083093829
49083104510
49083109332
49083116412
49083122698
49083126116
49083136675
49083142596
49083153338
49083160662
49083168414
49083175066
49083177996
49083189898
49083195269
49083203326
49083210345
49083219073
49083226519
49083231768
49083239641
49083246294
49083254412
49083260882
49083266131
49083276079
49083281145
49083291704
49083298845
49083301897
49083311724
49083318865
49083325945
49083332903
49083335711
49083346392
49083355364
49083364702
49083368975
49083378374
49083385088
49083390337
49083399675
49083406938
49083412859
49083420366
49083427202
49083436785
49083444414
49083451555
49083458391
49083465715
49083472429
49083480180
49083487383
49083495622
49083503618
49083511369
49083516496
49083523820
49083530962
49083539445
49083546220
49083551836
49083559587
49083567155
49083576066
49083583146
49083588640
49083597978
49083602495
49083611406
49083618181
49083623491
49083633195
49083639787
49083650224
49083675431
49083680741
49083687760
49083696244
49083699296
49083709001
49083714860
49083724259
49083728898
49083736833
49083742814
49083749101
49083756059
49083763139
49083765763
49083775468
49083782731
49083793534
49083798966
49083805741
49083811600
49083818986
49083824906
49083829484
49083837540
49083844132
49083846879
49083858781
49083861893
49083870194
49083877030
49083883072
49083888749
49083893326
49083902482
49083909745
49083918351
49083923844
49083931656
49083937760
49083942337
49083948807
49083955277
49083964554
49083972428
49083979996
49083987381
49083992447
49084000748
49084006790
49084013199
49084019119
49084025772
49084032547
49084039322
49084045609
49084054459
49084057449
49084065872
49084072708
49084078812
49084085526
49084090164
49084097672
49084106522
49084115982
49084123306
49084128982
49084134964
49084139664
49084147964
49084154922
49084160416
49084167068
49084174454
49084181839
49084186905
49084195266
49084201065
49084203628
49084214309
49084218887
49084225235
49084232864
49084244094
49084251114
49084254226
49084264358
49084269302
49084276687
49084282913
49084285415
49084294509
49084302383
49084311538
49084315750
49084323440
49084329299
49084333938
49084342117
49084348037
49084355911
49084362441
49084371719
49084380508
49084385574
49084393447
49084397598
49084404556
49084410476
49084415542
49084423537
49084432082
49084438369
49084447158
49084453689
49084459609
49084466323
49084472487
49084478469
49084483230
49084491530
49084500747
49084508498
49084512771
49084521132
49084527419
49084533034
49084539016
49084545974
49084551040
49084557204
49084568129
49084574660
49084582534
49084588576
49084594557
49084601149
49084607436
49084612197
49084619216
49084625807
49084634902
49084641982
49084649733
49084656081
49084660597
49084667555
49084673842
49084680861
49084686720
49084693068
49084703688
49084707960
49084715041
49084721205
49084725783
49084735304
49084739271
49084747816
49084754896
49084761061
49084769972
49084775648
49084781752
49084787733
49084795057
49084800917
49084805555
49084814894
49084819105
49084827711
49084834852
49084842482
49084850660
49084854200
49084866651
49084875013
49084882154
49084885878
49084898085
49084904066
49084912977
49084919447
49084925123
49084931532
49084939161
49084946180
49084954237
49084965528
49084972059
49084977369
49084982252
49084990064
49084997144
49085004469
49085011854
49085020582
49085029310
49085033033
49085042982
49085049573
49085055860
49085063184
49085070386
49085077466
49085084730
49085091382
49085101758
49085107984
49085114759
49085120740
49085125806
49085133863
49085143201
49085152417
49085157727
49085166639
49085172986
49085179517
49085186048
49085193555
49085200208
