49086579843
49086585580
49086591134
49086595590
49086601999
49086607492
49086612008
49086618051
49086624582
49086630319
49086634591
49086641916
49086647775
49086652902
49086657601
49086664193
49086669747
49086675546
49086681344
49086687387
49086694039
49086698983
49086706613
49086712899
49086719369
49086727242
49086732797
49086739144
49086747567
49086752389
49086761605
49086767770
49086775582
49086782906
49086788644
49086796639
49086802193
49086808724
49086816903
49086823006
49086830270
49086838021
49086845467
49086851876
49086858224
49086865120
49086872445
49086880013
49086886361
49086892891
49086900704
49086907784
49086916024
49086920968
49086929512
49086935433
49086943306
49086949715
49086957466
49086965645
49086973275
49086979988
49086987679
49086992989
49086999153
49087007576
49087015328
49087022041
49087029732
49087035896
49087043404
49087051033
49087058968
49087067207
49087073433
49087080635
49087087593
49087094551
49087103096
49087109016
49087118782
49087123604
49087130928
49087137886
49087145149
49087152778
49087158394
49087166206
49087174385
49087180977
49087187874
49087192756
49087201790
49087210029
49087217109
49087223884
49087230171
49087236702
49087243660
49087250923
49087258979
49087266548
49087270393
49087278938
49087286140
49087292793
49087299323
49087308235
49087316535
49087321967
49087329780
49087336250
49087343208
49087350288
49087358527
49087367255
49087372993
49087380256
49087387458
49087394843
49087402656
49087410102
49087418220
49087427802
49087435248
49087442451
49087449592
49087455390
49087463935
49087474494
49087480536
49087488410
49087495917
49087503913
49087511237
49087519660
49087527167
49087533698
49087541693
49087548407
49087558356
49087566107
49087574835
49087581732
49087590521
49087597357
49087605353
49087613288
49087620734
49087629279
49087639349
49087647101
49087656867
49087665533
49087673224
49087680975
49087690009
49087700446
49087707098
49087718512
49087726935
49087735174
49087744696
49087752386
49087761175
49087769781
49087779425
49087789190
49087796209
49087805853
49087813543
49087823248
49087828436
49087840399
49087846624
49087855780
49087865423
49087872686
49087882574
49087890142
49087899298
49087908941
49087915899
49087925604
49087936102
49087943853
49087951849
49087961675
49087969976
49087976507
49087984624
49087994268
49088002996
49088009710
49088019536
49088026800
49088035772
49088043340
49088053106
49088062200
49088070806
49088076543
49088089177
49088097905
49088107488
49088117498
49088125615
49088133306
49088141668
49088150640
49088159673
49088167974
49088175969
49088185613
49088193608
49088200749
49088211797
49088216863
49088227422
49088232182
49088243535
49088249455
49088260197
49088268803
49088277592
49088285039
49088292241
49088301030
49088308049
49088320866
49088326726
49088335881
49088344670
49088351201
49088355839
49088368290
49088378727
49088385869
49088394108
49088400578
49088410099
49088417424
49088427678
49088435246
49088443730
49088450627
49088460331
49088467900
49088474674
49088482548
49088492497
49088498661
49088508671
49088515934
49088522953
49088529850
49088536869
49088544987
49088553593
49088559696
49088566959
49088574039
49088580753
49088588383
49088596989
49088605167
49088612369
49088619755
49088627201
49088636844
49088643436
49088652347
49088659977
49088668155
49088676212
49088682865
49088688053
49088698307
49088705387
49088713321
49088721195
49088730289
49088736881
49088744083
49088751651
49088758914
49088765445
49088773441
49088779788
49088788455
49088798343
49088805057
49088813236
49088819522
49088827213
49088833743
49088842105
49088851444
49088857059
49088867435
49088874454
49088882877
49088890018
49088896243
49088902347
49088910159
49088917300
49088922793
49088929385
49088935123
49088941348
49088948245
49088955508
49088960940
49088967105
49088972049
49088977908
49088982181
49088989077
49088995913
49089001223
49089006961
49089012881
49089019107
49089025821
49089031680
49089037112
49089042605
49089047854
49089054812
49089059512
49089067202
49089071963
49089077151
49089082583
49089088931
49089094729
49089100894
49089105898
49089111758
49089116335
49089123171
49089128787
49089135012
49089140810
49089147646
49089151919
49089157717
49089162112
49089169253
49089173586
49089180361
49089185854
49089191531
49089196780
49089202151
49089208132
49089214236
49089219973
49089225283
49089230227
49089235171
49089242861
49089249209
49089254214
49089259890
49089265993
49089272402
49089276491
49089282168
49089287661
49089294558
49089300417
49089306398
49089310976
49089316652
49089322451
49089328188
49089333925
49089340090
49089344606
49089350466
49089356264
49089360231
49089366274
49089373110
49089378603
49089384462
49089389101
49089394472
49089400209
49089406069
49089411073
49089416872
49089422060
49089427370
49089432985
49089439027
49089443727
49089450258
49089456117
49089462099
49089467409
49089472780
49089477357
49089484376
49089487306
49089494264
49089499940
49089504518
49089510866
49089516786
49089521730
49089526552
49089531557
49089538759
49089544496
49089550355
49089555482
49089559633
49089565980
49089571473
49089577577
49089583497
49089588502
49089595094
49089599916
49089605958
49089610963
49089616578
49089620362
49089626954
49089632142
49089636720
49089642945
49089647035
49089654176
49089659730
49089664918
49089670045
49089675965
49089681520
49089686952
49089691041
49089697206
49089702149
49089708863
49089714784
49089721009
49089725587
49089731202
49089735597
49089741639
49089747376
49089752992
49089758851
49089763734
49089768983
49089774781
49089780518
49089785950
49089790467
49089796204
49089802796
49089808961
49089813172
49089818421
49089826050
49089831849
49089837952
49089843567
49089848450
49089854432
49089862183
49089867310
49089873475
49089877991
49089884400
49089889527
49089895081
49089900147
49089906128
49089911621
49089915711
49089922120
49089928528
49089934265
49089940186
49089944947
49089950379
49089956604
49089960755
49089968201
49089973206
49089978699
49089984009
49089989136
49089995606
49090001892
49090007813
49090013977
49090019592
49090025086
49090030640
49090035095
49090040711
49090046204
49090052124
49090057312
49090063293
49090068298
49090073730
49090080017
49090084778
49090090393
49090095276
49090100525
49090105591
49090110779
49090116943
49090122009
49090127624
49090132812
49090137390
49090141968
49090149292
49090154663
49090160888
49090166931
49090173523
49090179260
49090184570
49090190185
49090195190
49090201538
49090205810
49090215454
49090220398
49090226684
49090232971
49090239624
49090244323
49090250244
49090254089
49090262023
49090267028
49090273559
49090278503
49090284484
49090290100
49090296447
49090302368
49090308532
49090314636
49090317809
49090324645
49090329650
49090336852
49090342895
49090346313
49090352782
49090358276
49090363952
49090369506
49090375243
49090380675
49090387450
49090392638
49090399474
49090405517
49090410094
49090415649
49090422057
49090427001
49090432128
49090437133
49090443114
49090449828
49090455382
49090460448
49090467162
49090471618
49090477294
49090483153
49090488341
49090495299
49090500487
49090505614
49090511840
49090517577
49090523009
49090528929
49090533873
49090540343
49090545226
49090551634
49090556822
49090562071
49090567320
49090572692
49090577452
49090583556
49090590026
49090594664
49090600096
49090605956
49090611632
49090617735
49090622557
49090627684
49090633910
49090639098
49090644408
49090650877
49090656065
49090662169
49090667052
49090672301
49090678221
49090684691
49090690184
49090695555
49090701536
49090706358
49090712034
49090716124
49090722655
49090728453
49090734190
49090739439
49090745176
49090750181
49090756651
49090762266
49090767515
49090773741
49090777769
49090784910
49090790892
49090798277
49090804319
49090809690
49090814756
49090820799
49090824034
49090831358
49090837400
49090843321
49090849241
49090852842
49090859251
49090863340
49090870237
49090876524
49090883360
49090887449
49090893125
49090899717
49090906126
49090911314
49090916563
49090923765
49090927183
49090934568
49090939634
49090945737
49090951597
49090956052
49090963316
49090967893
49090972715
49090979063
49090984312
49090989316
49090996030
49091000669
49091006711
49091012937
49091019651
49091024595
49091030393
49091036313
49091041379
49091048398
49091053525
49091059385
49091065793
49091071042
49091077085
49091084226
49091088498
49091096250
49091101560
49091106992
49091112485
49091118955
49091126157
49091131650
49091136167
49091143064
49091147397
49091153256
49091159848
49091163083
49091169858
49091176328
49091182004
49091188901
49091193784
49091199399
49091204892
49091210324
49091215451
49091222836
49091228574
49091234555
49091240292
49091245297
49091251035
49091257504
49091261960
49091267514
49091274167
49091279416
49091284360
49091290524
49091295468
49091301022
49091306760
49091312070
49091318478
49091323788
49091329526
49091333676
49091340512
49091346676
49091350705
49091357174
49091362729
49091367733
49091373593
49091380185
49091385678
49091392147
49091396237
49091401852
49091406124
49091414975
49091420102
49091425167
49091429928
49091435665
49091440914
49091446957
49091452938
49091457638
49091463986
49091468441
49091474301
49091479489
49091485287
49091491268
49091497982
49091502804
49091508968
49091514950
49091521175
49091525936
49091532040
49091537228
49091543453
49091549007
49091552242
49091559689
49091565914
49091570003
49091576534
49091581783
49091588131
49091595638
49091598751
49091605648
49091611324
49091615902
49091621761
49091626705
49091633968
49091638729
49091644710
49091649471
49091654659
49091659847
49091665401
49091672115
49091677425
49091683345
49091687923
49091693111
49091699642
49091706234
49091710567
49091716243
49091721187
49091726070
49091731624
49091737972
49091744075
49091748836
49091756038
49091760677
49091765987
49091772701
49091776607
49091783077
49091788020
49091793636
49091800533
49091804927
49091812496
49091818294
49091822261
49091828731
49091834102
49091840144
49091846553
49091851436
49091856502
49091862910
49091868343
49091873775
49091878780
49091885799
49091891536
49091896358
49091901240
49091907832
49091911861
49091919368
49091924434
49091930110
49091935298
49091939815
49091947322
49091952998
49091957087
49091964534
49091969111
49091974482
49091979182
49091984797
49091991206
49091996272
49092001704
49092007258
49092012568
49092017329
49092022883
49092027644
49092034663
49092039241
49092046870
49092052973
49092059504
49092064143
49092069941
49092075678
49092082270
49092086848
49092093318
49092098811
49092104853
49092110652
49092116572
49092121394
49092128474
49092133967
49092139643
49092145625
49092151789
49092156550
49092162897
49092169062
49092174921
49092179316
49092186213
49092192072
49092197443
49092202997
49092209650
49092215998
49092220148
49092227472
49092232111
49092237848
49092244501
49092249384
49092255549
49092261164
49092266413
49092272333
49092277521
49092282770
49092289057
49092293329
49092301081
49092306452
49092311274
49092317926
49092323175
49092328180
49092334772
49092338739
49092344599
49092350458
49092356562
49092361872
49092367914
49092373285
49092379083
49092385370
49092391107
49092396600
49092401727
49092406793
49092411859
49092418085
49092423212
49092428095
49092434137
49092438898
49092443903
49092448602
49092455011
49092459528
49092465387
49092471979
49092477777
49092481744
49092487298
49092492853
49092498529
49092503412
49092508844
49092515924
49092522149
49092526117
49092534112
49092541131
49092545343
49092551874
49092558221
49092563958
49092570123
49092575128
49092580865
49092586602
49092591485
49092598687
49092605218
49092609552
49092615472
49092621759
49092626397
49092631585
49092636712
49092643670
49092648919
49092654229
49092660028
49092663934
49092670526
49092675958
49092681085
49092687554
49092692315
49092697503
49092702691
49092707696
49092713677
49092717950
49092724725
49092729302
49092734551
49092739678
49092745354
49092753045
49092755914
49092762994
49092768548
49092773980
49092779107
49092784722
49092789056
49092795586
49092800469
49092805962
49092810906
49092815667
49092821953
49092826348
49092832146
49092837456
49092843255
49092847283
49092853264
49092857171
49092863030
49092867669
49092873406
49092878289
49092882866
49092888604
49092894341
49092898796
49092904595
49092909905
49092915642
49092920159
49092926201
49092930596
49092937187
49092942864
49092947563
49092953606
49092958367
49092963066
49092968743
49092974358
49092980705
49092985222
49092990349
49092996147
49093001579
49093006279
49093012444
49093018303
49093024468
49093031364
49093036858
49093043694
49093048820
49093054802
49093061027
49093067924
49093072929
49093079216
49093084526
49093089592
49093095512
49093101189
49093106193
49093111076
49093117485
49093122978
49093128044
49093134819
49093139335
49093145012
49093151787
49093158256
49093163749
49093169059
49093173698
49093179069
49093185661
49093190666
49093196281
49093201774
49093207023
49093213188
49093217765
49093225151
49093231437
49093237113
49093242790
49093247428
49093254264
49093258659
49093264396
49093270500
49093275566
49093280692
49093286491
49093292167
49093297843
49093303642
49093308097
49093315543
49093320121
49093325248
49093331413
49093337150
49093342399
49093349296
49093353202
49093359489
49093363883
49093370231
49093374869
49093380729
49093386344
49093391349
49093397025
49093403373
49093408500
49093415092
49093419974
49093425773
49093430594
49093435538
49093440543
49093447318
49093452262
49093457572
49093463187
49093468009
49093475394
49093482047
49093487174
49093494071
49093498099
49093503958
49093509207
49093514945
49093520682
49093525382
49093531913
49093536795
49093542838
49093548941
49093554495
49093559928
49093565726
49093570853
49093576285
49093582755
49093588858
49093593619
49093599722
49093604666
49093609854
49093615347
49093621268
49093627005
49093631522
49093637076
49093643912
49093648734
49093654410
49093659537
49093665091
49093669791
49093676688
49093681082
49093686697
49093692435
49093698294
49093702688
49093707205
49093713003
49093717886
49093722464
49093727896
49093733023
49093738882
49093744558
49093749380
49093754446
49093759695
49093764517
49093770742
49093776297
49093781912
49093787771
49093795095
49093800222
49093805532
49093811636
49093817678
49093822561
49093827993
49093833059
49093838430
49093844534
49093849600
49093854727
49093860342
49093865347
49093870901
49093877310
49093883047
49093888601
49093893362
49093898794
49093903433
49093908682
49093914175
49093920217
49093925832
49093932180
49093939321
49093943716
49093949880
49093956106
49093961599
49093967824
49093973379
49093978994
49093986440
49093990591
49093996938
49094003957
49094008779
49094015005
49094020315
49094026113
49094031728
49094038442
49094045217
49094050222
49094053823
49094062124
49094067128
49094072927
49094079213
49094084707
49094089894
49094095693
49094100881
49094105580
49094111745
49094116017
49094121755
49094127614
49094133168
49094138356
49094143788
49094150197
49094154897
49094159657
49094166249
49094171254
49094176564
49094182973
49094187550
49094193227
49094198537
49094204274
49094209828
49094216237
49094219960
49094226979
49094231557
49094237721
49094243459
49094248708
49094254079
49094259877
49094265248
49094270009
49094276417
49094282033
49094286366
49094292103
49094296986
49094303029
49094309682
49094315114
49094322743
49094328602
49094332570
49094337941
49094342457
49094350514
49094355885
49094361073
49094365834
49094370900
49094376210
49094383107
49094389820
49094394520
49094401783
49094407948
49094413197
49094418995
49094424977
49094430348
49094436512
49094443348
49094448475
49094454396
49094459706
49094465016
49094471302
49094477528
49094482838
49094487599
49094493641
49094499439
49094504078
49094509510
49094516102
49094522266
49094528248
49094533192
49094538685
49094544666
49094550892
49094555469
49094562061
49094565967
49094573658
49094578174
49094583668
49094589344
49094593860
49094599476
49094606312
49094611744
49094617908
49094623585
49094629444
49094635425
49094641285
49094646290
49094652271
49094658619
49094663501
49094668934
49094674427
49094680835
49094687244
49094692798
49094698108
49094703174
49094708057
49094713855
49094718128
49094725208
49094730030
49094735462
49094742359
49094746814
49094753101
49094759265
49094763233
49094769458
49094775562
49094781360
49094787708
49094793262
49094798267
49094804065
49094810230
49094814929
49094820300
49094824939
49094830920
49094836719
49094841846
49094847034
49094853503
49094863940
49094869250
49094874194
49094880115
49094886767
49094891955
49094897326
49094903186
49094908862
49094913928
49094919665
49094926318
49094930713
49094936206
49094942309
49094946399
49094953479
49094958911
49094964038
49094970019
49094974597
49094980090
49094984973
49094992968
49094998095
49095002917
49095007983
49095014453
49095020556
49095025439
49095031298
49095036791
49095042224
49095046191
49095052722
49095057604
49095063403
49095070483
49095074999
49095079882
49095085864
49095090136
49095096301
49095102404
49095108019
49095113635
49095118029
49095124804
49095129626
49095135119
49095141466
49095146288
49095152575
49095157214
49095162096
49095168322
49095172961
49095178881
49095184618
49095189745
49095194872
49095199511
49095205919
49095211291
49095217333
49095223253
49095229418
49095234728
49095239428
49095243639
49095251085
49095257067
49095261217
49095269335
49095273912
49095280138
49095285387
49095292162
49095296373
49095302721
49095307543
49095313585
49095320604
49095326586
49095331774
49095337511
49095342577
49095348314
49095354479
49095359178
49095365221
49095369493
49095375719
49095380907
49095387377
49095391771
49095398302
49095404039
49095410020
49095415636
49095421373
49095426805
49095431505
49095438280
49095442430
49095448289
49095453294
49095459825
49095465623
49095471727
49095476488
49095482164
49095488023
49095493761
49095498826
49095504014
49095509996
49095514390
49095521409
49095526231
49095532640
49095538560
49095543199
49095548326
49095554612
49095558519
49095564683
49095569261
49095575364
49095580186
49095584764
49095590440
49095594773
49095600633
49095605699
49095611192
49095617662
49095621202
49095626512
49095632798
49095637986
49095642930
49095647874
49095654466
49095657945
49095663987
49095669969
49095675157
49095680772
49095686448
49095693711
49095700791
49095704514
49095712083
49095717454
49095723374
49095729661
49095734483
49095741318
49095746629
49095752000
49095757676
49095763901
49095769517
49095775681
49095781602
49095787644
49095793015
49095800095
49095804734
49095810776
49095817124
49095822312
49095827866
49095833298
49095838791
49095842881
49095848618
49095853867
49095860276
49095866013
49095872361
49095877304
49095883042
49095887802
49095894333
49095900009
49095905381
49095911972
49095917832
49095922898
49095928086
49095933335
49095938767
49095944809
49095949509
49095955124
49095959946
49095966965
49095972092
49095976975
49095983872
49095989121
49095995468
49096000778
49096006088
49096011337
49096017258
49096021164
49096027512
49096033920
49096039841
49096044968
49096051376
49096056015
49096060470
49096065048
49096070602
49096075790
49096081711
49096086471
49096092636
49096097214
49096101730
49096107345
49096113388
49096118637
49096123825
49096128769
49096133896
49096138839
49096143844
49096149215
49096154220
49096160385
49096163925
49096169845
49096175460
49096181808
49096186996
49096192428
49096198226
49096203292
49096208419
49096212326
49096218490
49096224411
49096228134
49096233871
49096239425
49096244064
49096249679
49096255538
49096260787
49096266219
49096272079
49096277450
49096281539
49096287093
49096292037
49096297775
49096303207
49096308395
49096313461
49096318160
49096323837
49096328719
49096334945
49096339706
49096344772
49096350814
49096355392
49096360946
49096366500
49096372420
49096376754
49096383224
49096389571
49096396468
49096401290
49096407210
49096412887
49096419112
49096425277
49096431746
49096438155
49096443770
49096450484
49096456771
49096463179
49096468367
49096473677
49096479842
49096484847
49096490340
49096496932
49096501876
49096507613
49096512923
49096519149
49096524520
49096531417
49096536177
49096540511
49096548018
49096553023
49096558699
49096564620
49096569319
49096574446
49096580916
49096585005
49096592391
49096597945
49096602950
49096609236
49096614180
49096621321
49096626509
49096631697
49096637740
49096642805
49096648177
49096655012
49096661116
49096665755
49096671553
49096677168
49096681929
49096686995
49096694746
49096700484
49096705427
49096711531
49096717390
49096723372
49096730574
49096737043
49096742720
49096747908
49096752363
49096758528
49096765181
49096769758
49096777021
49096782576
49096787641
49096792829
49096797651
49096804487
49096810163
49096814436
49096820112
49096826094
49096831587
49096836225
49096843244
49096847883
49096853864
49096858564
49096864607
49096870649
49096876386
49096881757
49096887556
49096892866
49096899091
49096903486
49096909284
49096914716
49096919599
49096926008
49096930097
49096936201
49096941022
49096947248
49096953107
49096958478
49096963361
49096969465
49096973859
49096979841
49096986310
49096990949
49096997114
49097002424
49097007429
49097012006
49097018476
49097024946
49097031049
49097036481
49097041730
49097048566
49097055646
49097060346
49097066205
49097071698
49097076825
49097083173
49097088666
49097094709
49097099836
49097105207
49097110395
49097115033
49097120099
49097125958
49097132306
49097137189
49097142072
49097146649
49097152509
49097157330
49097163129
49097167523
49097174603
49097179913
49097185101
49097189130
49097193951
49097200055
49097206464
49097211163
49097216351
49097220990
49097226666
49097231000
49097237347
49097241986
49097247540
49097252057
49097258343
49097263043
49097268353
49097273175
49097278790
49097284039
49097290082
49097293988
49097299969
49097305951
49097311139
49097316815
49097322735
49097329388
49097335309
49097339825
49097347943
49097352948
49097357586
49097365094
49097371441
49097377484
49097383221
49097388836
49097394879
49097400311
49097406658
49097411602
49097416973
49097423321
49097429363
49097434796
49097441265
49097445782
49097452191
49097457989
49097464398
49097470135
49097474529
49097481670
49097487591
49097491802
49097498333
49097503582
49097509624
49097514690
49097519756
49097525738
49097530010
49097536541
49097542400
49097547405
49097552593
49097558208
49097564190
49097570232
49097575237
49097580181
49097585857
49097591289
49097596416
49097602093
49097608135
49097612530
49097617717
49097621624
49097627971
49097632793
49097638530
49097643901
49097648845
49097653911
49097658855
49097665020
49097669414
49097675273
49097681438
49097687664
49097694744
49097700603
49097706523
49097711772
49097717815
49097723918
49097729106
49097734905
49097739665
49097746013
49097751445
49097757121
49097764018
49097767131
49097773601
49097780193
49097786601
49097791789
49097796611
49097803752
49097808696
49097814983
49097820293
49097827495
49097831584
49097837321
49097843181
49097846904
49097853191
49097859416
49097864421
49097870341
49097875590
49097881633
49097887675
49097892497
49097897014
49097902202
49097908610
49097913554
49097918437
49097925578
49097930034
49097936625
49097941569
49097946757
49097953166
49097958476
49097965922
49097970988
49097977580
49097982280
49097987895
49097993144
49097998820
49098004313
49098009928
49098015483
49098020121
49098025187
49098030680
49098035929
49098041117
49098045268
49098051676
49098057231
49098062785
49098069254
49098074503
49098079264
49098085673
49098090373
49098096232
49098101481
49098106608
49098112467
49098117411
49098123270
49098129008
49098134806
49098139933
49098145182
49098149882
49098156473
49098161478
49098166666
49098172465
49098178568
49098182963
49098187235
49098195109
49098199930
49098205301
49098212137
49098217264
49098222025
49098228617
49098233866
49098239481
49098244303
49098251749
49098259012
49098263651
49098268778
49098274698
49098280313
49098287088
49098293924
49098298258
49098304483
49098310404
49098315775
49098321817
49098326700
49098332804
49098338480
49098343546
49098348612
49098354532
49098359598
49098366312
49098371195
49098377664
49098382913
49098387918
49098394754
49098398355
49098404825
49098410745
49098416666
49098421793
49098426675
49098433816
49098439798
49098444803
49098451334
49098456094
49098461282
49098467874
49098473245
49098478555
49098484720
49098489297
49098495401
49098500223
49098506387
49098511880
49098517618
49098523294
49098527627
49098534219
49098540262
49098546182
49098552041
49098557473
49098560464
49098568521
49098573465
49098580423
49098585794
49098591470
49098596292
49098602212
49098607400
49098613687
49098620095
49098625344
49098630044
49098634683
49098641091
49098645730
49098651528
49098656838
49098662515
49098668618
49098675454
49098680581
49098687661
49098692300
49098699685
49098705727
49098710549
49098717141
49098723000
49098728188
49098733193
49098740029
49098745522
49098752053
49098756570
49098762063
49098768471
49098773720
49098778176
49098784463
49098789528
49098795144
49098800820
49098806313
49098811867
49098817055
49098824257
49098829384
49098835427
49098841164
49098847512
49098851967
49098857338
49098864479
49098870583
49098875832
49098880532
49098886574
49098892617
49098897744
49098903176
49098909157
49098913857
49098918312
49098924660
49098930824
49098937172
49098943215
49098949867
49098954079
49098960854
49098965920
49098971169
49098977089
49098983193
49098988014
49098993202
49098998817
49099004494
49099009193
49099017128
49099022377
49099029274
49099033913
49099039711
49099045021
49099051063
49099056190
49099061134
49099067909
49099072182
49099078468
49099085060
49099092384
49099097755
49099102943
49099107887
49099114174
49099119117
49099125587
49099130958
49099136390
49099142006
49099147438
49099154640
49099159584
49099165382
49099171913
49099176979
49099182167
49099186317
49099192298
49099197731
49099203773
49099209510
49099216957
49099223548
49099227821
49099234046
49099239601
49099244544
49099250953
49099256996
49099261695
49099268287
49099272376
49099279090
49099286353
49099290931
49099297401
49099302222
49099309669
49099314613
49099320289
49099325355
49099330726
49099336707
49099342689
49099347632
49099353614
49099359595
49099364112
49099370826
49099375892
49099381385
49099386939
49099392859
49099397925
49099402503
49099407813
49099413916
49099420142
49099425330
49099430457
49099437903
49099441687
49099449317
49099455298
49099461097
49099467505
49099472632
49099478614
49099483741
49099487952
49099494788
49099499976
49099506446
49099511267
49099517798
49099523413
49099529334
49099534644
49099539954
49099545630
49099550940
49099557654
49099561804
49099568030
49099572485
49099579810
49099584021
49099589209
49099595129
49099599829
49099606848
49099612158
49099616125
49099622656
49099628638
49099634314
49099639197
49099644507
49099650000
49099655432
49099660315
49099666723
49099672949
49099677771
49099684118
49099689245
49099694983
49099700171
49099705420
49099710852
49099716894
49099721472
49099727453
49099732824
49099738928
49099745276
49099751318
49099755835
49099760473
49099766088
49099772741
49099777624
49099783117
49099789099
49099793188
49099799719
49099804846
49099810522
49099817358
49099821874
49099828710
49099833959
49099838659
49099845129
49099851110
49099857031
49099862035
49099867101
49099872289
49099876379
49099883337
49099889196
49099893774
49099900488
49099905309
49099910009
49099914770
49099921117
49099926672
49099931310
49099936986
49099941320
49099946569
49099952672
49099958776
49099964696
49099970251
49099975988
49099980993
49099985326
49099992650
49099998876
49100003942
49100009618
49100015844
49100021886
49100028051
49100033544
49100039220
49100043554
49100049596
49100055577
49100061132
49100066686
49100072728
49100078710
49100084874
49100090428
49100095616
49100101476
49100106969
49100112462
49100118260
49100124120
49100129857
49100134618
49100139989
49100145177
49100150975
49100157384
49100162877
49100168004
49100175084
49100179784
49100185826
49100190160
49100195836
49100200414
49100206639
49100212987
49100217625
49100224278
49100229893
49100233800
49100240636
49100246190
49100251683
49100257664
49100263035
49100267796
49100274205
49100278660
49100285679
49100291478
49100295201
49100300816
49100306492
49100312352
49100318821
49100324498
49100330723
49100333836
49100340977
49100347508
49100351719
49100358677
49100363743
49100369053
49100375035
49100380040
49100386998
49100392430
49100398350
49100403294
49100407688
49100415379
49100421910
49100426060
49100433140
49100437657
49100442661
49100447605
49100453953
49100458408
49100463596
49100470432
49100475315
49100480076
49100485752
49100491123
49100497776
49100503635
49100509434
49100515110
49100521824
49100527683
49100533115
49100537998
49100543003
49100548984
49100555027
49100560642
49100566929
49100572422
49100577732
49100582981
49100589023
49100593967
49100598667
49100604892
49100610752
49100615940
49100622471
49100627414
49100633640
49100638218
49100644626
49100649814
49100655185
49100661411
49100666660
49100673069
49100679050
49100684543
49100690891
49100695651
49100701267
49100707187
49100712802
49100719211
49100724094
49100730075
49100734775
49100741062
49100746860
49100752841
49100758640
49100764194
49100769992
49100777194
49100782687
49100787265
49100792880
49100799045
49100803989
49100810092
49100815036
49100820163
49100826388
49100832370
49100837314
49100843539
49100849399
49100854953
49100860324
49100865512
49100871554
49100876071
49100881869
49100889193
49100895236
49100900302
49100904879
49100911105
49100915561
49100921054
49100926059
49100931613
49100936374
49100942721
49100946627
49100952914
49100957553
49100963473
49100969882
49100974093
49100981356
49100986300
49100991061
49100996493
49101002474
49101009188
49101014437
49101019503
49101024386
49101030367
49101036227
49101041049
49101047457
49101053133
49101059664
49101064852
49101070223
49101075289
49101082064
49101087435
49101093295
49101098727
49101105074
49101111361
49101116610
49101122164
49101128207
49101133822
49101139132
49101144869
49101151583
49101155855
49101162569
49101168978
49101173006
49101179842
49101185518
49101190584
49101196016
49101200655
49101206331
49101212618
49101217745
49101223421
49101229281
49101235140
49101241121
49101245943
49101251192
49101257296
49101263521
49101269380
49101275179
49101281771
49101287935
49101294893
49101299166
49101305025
49101309908
49101315767
49101322908
49101329805
49101334505
49101340181
49101344515
49101350496
49101355318
49101362276
49101367830
49101372408
49101378938
49101383882
49101389619
49101394929
49101401521
49101405977
49101412447
49101417940
49101422761
49101429353
49101435640
49101440401
49101446565
49101450838
49101456331
49101460969
49101468294
49101473421
49101478303
49101484407
49101489717
49101494661
49101502290
49101507295
49101512605
49101518708
49101523225
49101529145
49101534639
49101540437
49101546418
49101551179
49101556428
49101561860
49101567048
49101573213
49101579316
49101584626
49101589204
49101595185
49101600251
49101605500
49101610749
49101616853
49101621858
49101626740
49101632173
49101637361
49101643708
49101649568
49101654206
49101659882
49101664338
49101669892
49101674836
49101681855
49101688813
49101693757
49101698945
49101704499
49101709016
49101715913
49101721650
49101726533
49101731904
49101738068
49101743561
49101749482
49101755463
49101760468
49101766572
49101771943
49101777131
49101783234
49101789521
49101794709
49101800202
49101805390
49101810517
49101813630
49101823700
49101829804
49101834381
49101838654
49101844635
49101850678
49101855561
49101861603
49101866547
49101872528
49101878022
49101882416
49101888520
49101893891
49101898834
49101905304
49101908722
49101915253
49101918122
49101925385
49101931610
49101936676
49101942230
49101947540
49101951996
49101958710
49101963165
49101968353
49101975006
49101981293
49101987030
49101991425
49101997955
49102003082
49102009369
49102014252
49102020294
49102025116
49102031647
49102036651
49102042816
49102048736
49102054352
49102060394
49102065582
49102071197
49102077362
49102081939
49102087005
49102091766
49102098114
49102104339
49102109405
49102115936
49102118438
49102124786
49102129974
49102135833
49102142547
49102147796
49102152923
49102158050
49102162994
49102167999
49102174896
49102180511
49102186676
49102192657
49102196258
49102203887
49102208465
49102213897
49102219329
49102224517
49102229400
49102234100
49102238983
49102245513
49102251190
49102256500
49102261688
49102267364
49102271758
49102277190
49102281890
49102287994
49102293853
49102299590
49102305144
49102309783
49102316619
49102321441
49102325774
49102331451
49102335967
49102341033
49102347442
49102352141
49102357146
49102363738
49102367644
49102374358
49102379729
49102385405
49102390288
49102394561
49102400786
49102406157
49102411467
49102417754
49102423308
49102428191
49102433745
49102439666
49102446379
49102452788
49102456389
49102462188
49102469023
49102474211
49102479705
49102484648
49102490813
49102497222
49102501006
49102507720
49102512358
49102518950
49102525237
49102532073
49102536650
49102541106
49102546416
49102552580
49102557707
49102562590
49102568938
49102574614
49102579741
49102584746
49102589262
49102595549
49102602995
49102608183
49102612944
49102619292
49102625151
49102630583
49102635710
49102641386
49102648527
49102654143
49102660063
49102665312
49102670805
49102675871
49102681303
49102685576
49102691069
49102698271
49102702482
49102709379
49102715117
49102718840
49102725798
49102732206
49102737150
49102743559
49102746183
49102753630
49102759245
49102764616
49102770109
49102776091
49102781217
49102786650
49102791166
49102796903
49102803922
49102809171
49102813810
49102819853
49102824003
49102829496
49102835722
49102841032
49102846830
49102850492
49102856474
49102861906
49102867704
49102873991
49102878751
49102883695
49102888334
49102894315
49102899015
49102904691
49102910734
49102916166
49102920621
49102925260
49102930692
49102934659
49102940641
49102946744
49102952360
49102956815
49102962064
49102967801
49102972867
49102979154
49102983548
49102989957
49102995694
49103000455
49103005582
49103009855
49103016507
49103021268
49103027372
49103032743
49103037870
49103042325
49103048673
49103053922
49103060575
49103065641
49103071500
49103077664
49103081998
49103089200
49103095365
49103099637
49103106473
49103112760
49103117581
49103123380
49103131314
49103136136
49103143155
49103148770
49103155789
49103162076
49103166715
49103172269
49103178128
49103184109
49103188626
49103195340
49103201932
49103206448
49103212613
49103219205
49103223904
49103228604
49103233792
49103240323
49103245633
49103252286
49103255643
49103259366
49103263760
49103267850
49103271328
49103275723
49103279629
49103282620
49103288418
49103292569
49103296109
49103300564
49103304715
49103308499
49103313931
49103318570
49103320706
49103327481
49103330593
49103335842
49103339627
49103345242
49103349026
49103354336
49103358670
49103361599
49103367337
49103372830
49103376797
49103382046
49103386746
49103390774
49103394802
49103400051
49103403591
49103408657
49103414028
49103417568
49103422695
49103426968
49103431851
49103436001
49103439907
49103444607
49103448391
49103453823
49103458462
49103463162
49103467983
49103472134
49103476345
49103481533
49103485317
49103490322
49103494228
49103498257
49103502407
49103506069
49103510891
49103516628
49103519924
49103524441
49103529323
49103532375
49103537990
49103540066
49103545315
49103550319
49103554775
49103558742
49103561977
49103567043
49103572414
49103575710
49103579311
49103584316
49103589321
49103594265
49103599209
49103603359
49103607631
49103610988
49103615505
49103619899
49103625087
49103629360
49103633083
49103637416
49103641323
49103645046
49103651393
49103656337
49103660244
49103664272
49103668727
49103672573
49103678066
49103681850
49103685939
49103690700
49103694118
49103698146
49103703639
49103708339
49103712917
49103716823
49103720790
49103725063
49103729274
49103734523
49103739894
49103743678
49103748378
49103752589
49103756557
49103761806
49103765163
49103770412
49103774806
49103778651
49103783351
49103786769
49103791347
49103795985
49103799953
49103804347
49103808498
49103811427
49103816798
49103820643
49103824977
49103829127
49103833217
49103836879
49103840053
49103844386
49103848475
49103852748
49103855922
49103860988
49103863856
49103867946
49103872218
49103876063
49103879542
49103883937
49103888698
49103892421
49103895961
49103900294
49103903773
49103908229
49103912379
49103916468
49103919947
49103923182
49103927760
49103931544
49103935328
49103938624
49103941127
49103945216
49103948451
49103951503
49103954982
49103957911
49103961634
49103964686
49103966700
49103969325
49103972377
49103974940
49103977259
49103980128
49103982264
49103984767
49103987208
49103989222
49103991419
49103993678
49103995631
49103997706
49103999659
49104001673
49104003382
49104005641
49104007350
49104009608
49104011195
49104013331
49104015284
49104017237
49104019312
49104021266
49104023158
49104024989
49104026942
49104029383
49104031214
49104032923
49104034815
49104037196
49104039027
49104040980
49104042872
49104044886
49104046595
49104048487
49104050379
49104052638
49104054469
49104056422
49104058192
49104060267
49104062403
49104064478
49104066492
49104068446
49104070887
49104072840
49104074732
49104077052
49104078822
49104080897
49104082667
49104085108
49104086878
49104088953
49104090723
49104092554
49104094813
49104096766
49104098536
49104100367
49104102381
49104104395
49104106226
49104108179
49104109766
49104111841
49104114100
49104116053
49104118128
49104119898
49104121912
49104124232
49104126063
49104128260
49104130274
49104132166
49104134241
49104136255
49104138453
49104140406
49104142542
49104144190
49104146204
49104148401
49104150477
49104152369
49104154200
49104156031
49104157801
49104159632
49104161707
49104163721
49104165552
49104167444
49104169397
49104171656
49104173609
49104175745
49104177881
49104179957
49104182032
49104183863
49104185999
49104188074
49104189844
49104191736
49104193750
49104195643
49104197474
49104199427
49104201319
49104203211
49104205103
49104206934
49104208826
49104210718
49104212854
49104214869
49104216822
49104218714
49104220789
49104222742
49104224939
49104226831
49104228907
49104230677
49104232691
49104235132
49104237085
49104239405
49104241358
49104243311
49104245203
49104246973
49104249170
49104250940
49104252832
49104254663
49104256494
49104258325
49104260218
49104261988
49104264002
49104265955
49104267908
49104269800
49104272058
49104273828
49104275843
49104277735
49104279749
49104281946
49104283899
49104285852
49104287866
49104289881
49104292078
49104293787
49104295740
49104297510
49104299585
49104301416
49104303186
49104305078
49104307092
49104309046
49104310877
49104312769
49104314783
49104316675
49104318872
49104320703
49104322901
49104324732
49104326685
49104328577
49104330469
49104332788
49104334741
49104336755
49104338953
49104341211
49104343225
49104345300
49104347253
49104349023
49104350794
49104352625
49104354578
49104356775
49104358728
49104360681
49104362573
49104364282
49104366480
49104368188
49104370142
49104371851
49104373926
49104375574
49104377649
49104379724
49104381616
49104383569
49104385767
49104387842
49104389734
49104391809
49104393518
49104395715
49104397546
49104399927
49104401880
49104403955
49104405847
49104407800
49104409997
49104412012
49104413721
49104415796
49104417505
49104419336
49104421106
49104422998
49104424829
49104426721
49104428369
49104430383
49104432519
49104434350
49104436304
49104438135
49104439905
49104442041
49104443872
49104445703
49104447656
49104449792
49104452112
49104453943
49104456018
49104458093
49104459741
49104461938
49104463708
49104465967
49104468042
49104469873
49104471887
49104473901
49104475854
49104477746
49104479516
49104481530
49104483239
49104485437
49104487451
49104489282
49104491235
49104493188
49104495507
49104497339
49104499658
49104501550
49104503320
49104505395
49104507043
49104509362
49104511193
49104513330
49104515161
49104516809
49104518823
49104520593
49104522485
49104524377
49104526147
49104528161
49104530053
49104531945
49104534021
49104535852
49104537744
49104539514
49104541711
49104543542
49104545434
49104547143
49104549035
49104551232
49104553063
49104555078
49104556909
49104558679
49104560693
49104562463
49104564599
49104566247
49104568261
49104570153
49104572045
49104573815
49104575769
49104577600
49104579492
49104581323
49104583459
49104585229
49104586999
49104588891
49104590783
49104593225
49104595117
49104597070
49104599023
49104600854
49104603051
49104604821
49104607202
49104609277
49104611108
49104612878
49104614770
49104617150
49104618920
49104620873
49104622765
49104624719
49104626916
49104628747
49104630700
49104632592
49104634423
49104636193
49104638268
49104640038
49104641869
49104643639
49104645532
49104647485
49104649438
49104651330
49104653466
49104655480
49104657250
49104659631
49104661279
49104663293
49104665185
49104667016
49104669518
49104671471
49104673241
49104675378
49104677148
49104679406
49104681420
49104683312
49104685021
49104687463
49104689416
49104691186
49104693383
49104695275
49104697228
49104699059
49104700951
49104703210
49104705041
49104706872
49104708947
49104710839
49104713097
49104714989
49104717065
49104719323
49104721276
49104723290
49104725243
49104727135
49104729455
49104731347
49104733117
49104735192
49104737450
49104739098
49104741356
49104743310
49104745080
49104747094
49104749108
49104750878
49104752892
49104754784
49104757165
49104759118
49104760949
49104763085
49104765099
49104767296
49104769188
49104771081
49104773583
49104775597
49104777794
49104779564
49104782067
49104784020
49104785912
49104787682
49104789635
49104792016
49104793786
49104795739
49104797509
49104799462
49104801354
49104803246
49104805260
49104807152
49104808922
49104810875
49104812767
49104814965
49104816857
49104818932
49104820946
49104822899
49104825280
49104827050
49104829125
49104831322
49104833214
49104835106
49104837120
49104839074
49104840905
49104842980
49104844872
49104846886
49104848900
49104850609
49104852684
49104854576
49104856407
49104858666
49104860375
49104862389
49104864342
49104865990
49104868675
49104870445
49104872338
49104874657
49104876549
49104878746
49104880699
49104882530
49104884728
49104886742
49104888695
49104890831
49104892662
49104895043
49104897240
49104899193
49104900963
49104903282
49104904991
49104907066
49104908898
49104910790
49104912743
49104914452
49104916161
49104918175
49104919945
49104921776
49104923729
49104925682
49104927940
49104929894
49104932091
49104934044
49104936119
49104938316
49104940331
49104942345
49104944176
49104946068
49104948326
49104950340
49104952354
49104954247
49104956261
49104958031
49104959862
49104961998
49104963829
49104965660
49104967369
49104969078
49104971214
49104973289
49104974998
49104977013
49104979088
49104981285
49104983116
49104985558
49104987266
49104989647
49104991356
49104993126
49104995445
49104997398
49104999535
49105001427
49105003197
49105005089
49105006798
49105008812
49105010765
49105012657
49105014671
49105016746
49105018577
49105020531
49105022301
49105024376
49105026329
49105028221
49105030235
49105032188
49105034080
49105036156
49105038231
49105040123
49105042625
49105044334
49105046531
49105048485
49105050438
49105052208
49105054283
49105055992
49105058128
49105059959
49105061912
49105063682
49105065269
49105067161
49105069114
49105071007
49105072777
49105074547
49105076317
49105078392
49105080650
49105082481
49105084495
49105086326
49105088340
49105090355
49105092186
49105094139
49105096092
49105098045
49105100120
49105101890
49105103721
49105105674
49105107566
49105109642
49105111595
49105113426
49105115257
49105117332
49105119102
49105121055
49105123069
49105124778
49105126548
49105128501
49105130516
49105132591
49105134910
49105136985
49105138877
49105140708
49105142967
49105144981
49105147239
49105149009
49105150962
49105152915
49105154869
49105157127
49105158653
49105160789
49105162681
49105164512
49105166831
49105168724
49105170860
49105172813
49105174644
49105176597
49105178489
49105180381
49105182334
49105184410
49105186057
49105187889
49105190025
49105192100
49105194053
49105196189
49105197959
49105200340
49105202171
49105204063
49105205833
49105207664
49105210288
49105212058
49105213950
49105215659
49105217552
49105219688
49105221458
49105223472
49105225120
49105227134
49105228965
49105230857
49105232810
49105234824
49105236594
49105238609
49105240623
49105242515
49105244590
49105246543
49105248557
49105250449
49105252891
49105254478
49105256980
49105259238
49105261192
49105263572
49105265525
49105267539
49105269614
49105271568
49105273521
49105275413
49105277915
49105279990
49105281760
49105283652
49105285667
49105287803
49105289634
49105291648
49105293479
49105295493
49105297996
49105299888
49105302085
49105305503
49105308677
49105311484
49105313499
49105315879
49105317588
49105319602
49105321494
49105323569
49105325889
49105327781
49105329734
49105331565
49105333640
49105335654
49105337607
49105339622
49105341331
49105343406
49105344932
49105347068
49105349021
49105350791
49105352866
49105354636
49105356467
49105358909
49105360740
49105362449
49105365256
49105367270
49105369590
49105371482
49105373313
49105375510
49105377280
49105379477
49105381492
49105383567
49105385398
49105387412
49105389487
49105391684
49105393515
49105395346
49105397178
49105398948
49105400962
49105402976
49105404746
49105406394
49105408469
49105410544
49105412497
49105414450
49105416404
49105418540
49105420493
49105422324
49105424216
49105426047
49105428366
49105430320
49105432151
49105433921
49105436057
49105438315
49105440146
49105441977
49105443869
49105446067
49105448020
49105450095
49105451926
49105453757
49105455649
49105457602
49105459372
49105461386
49105463401
49105465781
49105467673
49105469931
49105472190
49105474265
49105476218
49105478171
49105480734
49105482382
49105484397
49105486411
49105488303
49105490561
49105492331
49105494101
49105495993
49105498007
49105500022
49105502097
49105504050
49105506125
49105508078
49105509848
49105511984
49105513999
49105515891
49105517905
49105519736
49105521506
49105524008
49105525839
49105527731
49105529990
49105531882
49105534384
49105536276
49105538168
49105540244
49105542136
49105544150
49105546103
49105548117
49105549765
49105551657
49105553549
49105555197
49105557333
49105558981
49105561240
49105563071
49105564963
49105567099
49105569113
49105571066
49105573019
49105574850
49105577292
49105579062
49105581198
49105583456
49105585471
49105587546
49105589316
49105591086
49105593527
49105595480
49105597555
49105599509
49105601523
49105603415
49105605368
49105607138
49105609152
49105611105
49105612875
49105614828
49105616781
49105618674
49105620566
49105622519
49105624411
49105626425
49105628378
49105630270
49105632040
49105633993
49105636374
49105638449
49105640158
49105642111
49105644186
49105646444
49105648276
49105649923
49105651938
49105653952
49105655783
49105657736
49105659750
49105661642
49105663473
49105665487
49105667441
49105669394
49105671347
49105673239
49105675192
49105677023
49105679159
49105680868
49105682699
49105684897
49105686728
49105688925
49105690878
49105692892
49105694967
49105696798
49105698996
49105700949
49105703268
49105705221
49105707052
49105708761
49105710592
49105712667
49105714499
49105716330
49105718344
49105720358
49105722372
49105724386
49105726461
49105728292
49105730123
49105732382
49105734457
49105736593
49105738668
49105740621
49105742941
49105745138
49105747396
49105749288
49105751242
49105753256
49105755087
49105757345
49105759237
49105761190
49105763082
49105764974
49105766744
49105768698
49105770529
49105772604
49105774313
49105776205
49105778341
49105780172
49105782003
49105783956
49105785909
49105787679
49105789938
49105791586
49105793722
49105795370
49105797201
49105799459
49105801412
49105803488
49105805929
49105807821
49105809713
49105811544
49105813497
49105815328
49105817159
49105819051
49105820821
49105822958
49105824972
49105826925
49105828817
49105830587
49105832662
49105834432
49105836569
49105838522
49105840475
49105842672
49105844564
49105846822
49105848776
49105850607
49105852743
49105854452
49105856710
49105858541
49105860555
49105862386
49105864645
49105866964
49105868978
49105870992
49105872701
49105874471
49105876180
49105878133
49105880148
49105882101
49105883993
49105886373
49105888448
49105890462
49105892416
49105894369
49105896444
49105898275
49105900655
49105902364
49105904439
49105906270
49105908224
49105910421
49105912496
49105914205
49105916341
49105917867
49105920309
49105922079
49105923849
49105925802
49105927877
49105929769
49105931600
49105933370
49105935323
49105937276
49105939229
49105941060
49105943075
49105945333
49105947347
49105949483
49105951253
49105953634
49105955709
49105957540
49105959676
49105961568
49105963765
49105965352
49105967550
49105969564
49105971517
49105973714
49105975484
49105977315
49105979268
49105981099
49105983114
49105985006
49105986837
49105988790
49105990804
49105992574
49105994344
49105996297
49105998433
49106000325
49106002095
49106003926
49106005880
49106007772
49106009786
49106011800
49106013753
49106015706
49106017720
49106019674
49106021993
49106023946
49106025777
49106027547
49106029439
49106031453
49106033162
49106035237
49106036946
49106038900
49106040975
49106042928
49106044942
49106046712
49106048848
49106050801
49106052693
49106054952
49106056844
49106058736
49106060750
49106062581
49106064778
49106066793
49106068624
49106070638
49106072774
49106074910
49106076741
49106078877
49106080709
49106082601
49106084493
49106086507
49106088643
49106090474
49106092366
49106094258
49106096395
49106098531
49106100423
49106102315
49106104146
49106106160
49106108602
49106110494
49106112386
49106114217
49106116536
49106118550
49106120442
49106122579
49106124532
49106126668
49106128438
49106130513
49106132832
49106134786
49106136678
49106138509
49106141072
49106143269
49106145223
49106147115
49106149007
49106151326
49106153218
49106155232
49106157185
49106159200
49106161336
49106163289
49106165608
49106167622
49106169514
49106171712
49106173665
49106175923
49106177754
49106179707
49106181660
49106183675
49106185811
49106187520
49106189778
49106191487
49106193562
49106195393
49106197346
49106199361
49106201070
49106202840
49106204915
49106206807
49106208943
49106210896
49106212849
49106214680
49106216694
49106219014
49106220967
49106222859
49106224873
49106227009
49106229207
49106230977
49106233296
49106235005
49106236958
49106238911
49106240803
49106242634
49106244649
49106246541
49106248433
49106250508
49106252461
49106254292
49106256184
49106258076
49106259907
49106261982
49106263875
49106265522
49106268025
49106269856
49106272053
49106274067
49106276082
49106278157
49106280232
49106282246
49106284016
49106286030
49106288228
49106290120
49106292073
49106294026
49106296162
49106298115
49106300068
49106301899
49106303852
49106305684
49106307515
49106309407
49106311421
49106313374
49106314900
49106316975
49106319050
49106321064
49106323017
49106324726
49106326680
49106329121
49106330769
49106332844
49106334797
49106336750
49106338826
49106340718
49106342610
49106344502
49106346455
49106348835
49106350666
49106352558
49106354512
49106356465
49106358296
49106360127
49106361958
49106364216
49106366230
49106367939
49106369892
49106371906
49106373860
49106375935
49106378071
49106379780
49106381794
49106383991
49106386128
49106388508
49106390522
49106392719
49106394795
49106396626
49106398762
49106400654
49106402546
49106404621
49106406513
49106408466
49106410481
49106412495
49106414509
49106416645
49106418415
49106420246
49106422382
49106424397
49106426777
49106428608
49106430622
49106432758
49106434589
49106436909
49106438801
49106440632
49106442890
49106444904
49106446735
49106448933
49106451130
49106453327
49106455341
49106457111
49106458881
49106461384
49106463215
49106465229
49106466938
49106469074
49106471149
49106472736
49106474689
49106476887
49106478901
49106482563
49106489216
49106491535
49106493305
49106495258
49106497455
49106499409
49106501850
49106503864
49106505695
49106507526
49106509296
49106511677
49106513630
49106515522
49106517353
49106519245
49106521198
49106523090
49106525104
49106526996
49106528950
49106530903
49106532795
49106534809
49106537006
49106538959
49106540851
49106542743
49106544880
49106547016
49106548664
49106551044
49106552814
49106555256
49106557331
49106559040
49106561237
49106563068
49106564960
49106566913
49106568866
49106571857
49106575336
49106577778
49106579914
49106581806
49106583881
49106585834
49106587787
49106589618
49106591571
49106593464
49106595478
49106597553
49106599384
49106602069
49106603901
49106605732
49106608051
49106609882
49106612140
49106613971
49106615802
49106617878
49106619709
49106621601
49106623676
49106625751
49106627765
49106629657
49106631366
49106633197
49106635395
49106637287
49106639301
49106641376
49106643268
49106645221
49106647052
49106649066
49106651325
49106653217
49106655048
49106656940
49106658832
49106661151
49106663043
49106665302
49106667255
49106669513
49106671344
49106673297
49106675617
49106677631
49106679767
49106681598
49106683368
49106685443
49106687641
49106689472
49106691425
49106693439
49106695270
49106697284
49106699359
49106701129
49106703632
49106705402
49106707294
49106709430
49106711322
49106713825
49106715717
49106717487
49106719745
49106721698
49106723712
49106725665
49106727618
49106729938
49106731891
49106733722
49106735614
49106737872
49106739581
49106741534
49106743427
49106745380
49106747455
49106749286
49106751178
49106753314
49106755389
49106757159
49106759113
49106761127
49106763202
49106765155
49106767291
49106769305
49106771197
49106773151
49106775104
49106777057
49106779071
49106780963
49106783282
49106785236
49106787006
49106788959
49106790973
49106792743
49106794818
49106796893
49106798785
49106800738
49106802630
49106804339
49106806476
49106808490
49106810321
49106812030
49106814166
49106816363
49106818500
49106820331
49106822345
49106824176
49106826312
49106828387
49106830340
49106832477
49106834247
49106836566
49106838519
49106840716
49106842853
49106844989
49106846759
49106848651
49106850665
49106852740
49106854754
49106856463
49106858478
49106860370
49106862323
49106864276
49106866107
49106868060
49106870135
49106872210
49106874102
49106875934
49106878009
49106880145
49106882281
49106884478
49106886554
49106888568
49106890399
49106892230
49106894549
49106896441
49106898455
49106900225
49106901995
49106904315
49106906390
49106908160
49106910113
49106912188
49106913775
49106915789
49106918048
49106919940
49106921771
49106923480
49106925372
49106927630
49106929705
49106931597
49106933551
49106935260
49106937579
49106939471
49106942034
49106943865
49106945880
49106947772
49106949542
49106951373
49106953387
49106955279
49106957232
49106959002
49106960833
49106962908
49106964862
49106966937
49106968829
49106970904
49106972735
49106974810
49106976946
49106978778
49106981219
49106983294
49106985369
49106987444
49106989398
49106991473
49106993304
49106995562
49106997515
49106999285
49107001055
49107003069
49107005023
49107006854
49107008624
49107010516
49107012591
49107014544
49107016375
49107018267
49107020037
49107021868
49107023760
49107025652
49107027850
49107029681
49107031512
49107033282
49107035113
49107037615
49107039507
49107041277
49107043291
49107045184
49107047259
49107049212
49107051043
49107052874
49107054888
49107056902
49107058733
49107060748
49107062518
49107064471
49107066180
49107067950
49107069964
49107072222
49107074175
49107075945
49107077898
49107079668
49107081927
49107083880
49107086260
49107088274
49107090472
49107092425
49107094317
49107096636
49107098650
49107100725
49107102801
49107104693
49107106890
49107108904
49107110918
49107112810
49107114702
49107116656
49107118487
49107120196
49107122271
49107124102
49107126421
49107128374
49107130327
49107132219
49107134356
49107136736
49107138689
49107140764
49107142473
49107144488
49107146868
49107148882
49107151079
49107153093
49107154986
49107156878
49107158831
49107160845
49107162676
49107164446
49107166277
49107168352
49107170611
49107172442
49107174456
49107176348
49107178240
49107180132
49107182024
49107184038
49107185930
49107187822
49107189653
49107191546
49107193621
49107195513
49107197527
49107199419
49107201372
49107203569
49107205400
49107207842
49107209734
49107211504
49107213518
49107215471
49107217302
49107219072
49107220781
49107222918
49107224810
49107226641
49107228533
49107230486
49107232378
49107234270
49107236162
49107238115
49107239885
49107242021
49107243791
49107246111
49107248003
49107250017
49107251909
49107253801
49107255937
49107258135
49107260576
49107262346
49107264299
49107266130
49107268267
49107270464
49107272356
49107274187
49107276079
49107277971
49107279802
49107281938
49107283769
49107285661
49107287431
49107289324
49107291094
49107293535
49107295854
49107297563
49107299761
49107301531
49107303850
49107305559
49107307451
49107309343
49107311174
49107313616
49107315630
49107317522
49107319414
49107321306
49107323503
49107325395
49107327226
49107328874
49107330888
49107332781
49107334612
49107336443
49107338457
49107340349
49107342241
49107344011
49107346025
49107348283
49107350114
49107352129
49107354204
49107356706
49107358537
49107360368
49107362810
49107364641
49107367082
49107368791
49107370744
49107372819
49107374773
49107376543
49107378801
49107380754
49107382524
49107384599
49107386613
49107388689
49107390825
49107392534
49107394304
49107396257
49107398088
49107400651
49107402238
49107404130
49107406511
49107408464
49107410722
49107412553
49107414689
49107416826
49107418657
49107420427
49107422258
49107424150
49107426591
49107428483
49107430253
49107432268
49107434099
49107435869
49107437944
49107439836
49107441850
49107443742
49107445695
49107447526
49107450029
49107451982
49107453691
49107455522
49107457353
49107459611
49107461381
49107463090
49107464982
49107467180
49107469194
49107471208
49107473039
49107474870
49107477006
49107479142
49107481035
49107482927
49107484880
49107487077
49107488847
49107490983
49107492997
49107494889
49107496598
49107498491
49107500688
49107502641
49107504533
49107506486
49107508439
49107510392
49107512529
49107514665
49107516862
49107518632
49107520646
49107522843
49107525041
49107527299
49107529191
49107531510
49107533342
49107535050
49107537187
49107538957
49107540788
49107542680
49107544755
49107546525
49107548600
49107550492
49107552201
49107554093
49107556352
49107558366
49107560258
49107562333
49107564469
49107566422
49107568376
49107570512
49107572465
49107574601
49107576859
49107578813
49107580949
49107582841
49107584794
49107586686
49107588639
49107590714
49107592423
49107594438
49107596452
49107598222
49107600358
49107602128
49107603898
49107605790
49107607926
49107609757
49107611833
49107613969
49107615800
49107617753
49107619584
49107621476
49107623917
49107625749
49107627885
49107629899
49107631608
49107633683
49107635697
49107637528
49107639481
49107641251
49107643388
49107645219
49107647233
49107649064
49107651139
49107652909
49107654984
49107656998
49107658829
49107660844
49107662675
49107664567
49107666581
49107668534
49107670182
49107672196
49107674088
49107676285
49107678239
49107680497
49107682328
49107684403
49107686600
49107688554
49107690507
49107692582
49107694474
49107696427
49107698441
49107700333
49107702958
49107706315
49107708817
49107711075
49107712906
49107715165
49107717179
49107719132
49107721329
49107723466
49107725541
49107727799
49107729691
49107732194
49107734086
49107736832
49107738663
49107740555
49107742508
49107744645
49107746964
49107748978
49107750931
49107752823
49107754960
49107756974
49107758805
49107760819
49107762711
49107764664
49107766678
49107768509
49107770768
49107772660
49107774735
49107776566
49107778275
49107780533
49107782364
49107784501
49107786332
49107788285
49107790482
49107792374
49107794693
49107796830
49107798844
49107800858
49107802811
49107805191
49107807206
49107809098
49107811112
49107812882
49107815201
49107817337
49107818924
49107820938
49107822769
49107824906
49107826920
49107828751
49107830826
49107832779
49107834976
49107836991
49107839371
49107841141
49107843216
49107845413
49107847489
49107849808
49107851639
49107854141
49107856034
49107857987
49107860062
49107861954
49107863785
49107865921
49107867935
49107869889
