49184074955
49184080143
49184087101
49184093082
49184098575
49184103824
49184109561
49184113895
49184120243
49184126590
49184131168
49184137271
49184141849
49184149906
49184156253
49184160465
49184167972
49184174320
49184179569
49184187930
49184194095
49184199832
49184206607
49184213382
49184219241
49184227542
49184236026
49184242191
49184250064
49184255740
49184262515
49184269473
49184275210
49184282718
49184291141
49184297183
49184303958
49184309573
49184320010
49184326053
49184333011
49184340396
49184347964
49184355227
49184361819
49184368960
49184377627
49184383853
49184389041
49184397952
49184406741
49184412844
49184420901
49184430422
49184435427
49184443179
49184450381
49184458804
49184466189
49184472842
49184481631
49184488162
49184495791
49184503787
49184510867
49184519167
49184526675
49184532900
49184541384
49184548464
49184556887
49184564272
49184571657
49184579653
49184585207
49184593508
49184603457
49184610293
49184617434
49184624209
49184630800
49184639223
49184647036
49184655336
49184661806
49184670290
49184676577
49184682558
49184690432
49184698793
49184705934
49184714479
49184719362
49184728029
49184736330
49184744509
49184754030
49184760195
49184767458
49184775697
49184781618
49184789736
49184798158
49184804018
49184812990
49184817873
49184826357
49184835390
49184841920
49184850099
49184857362
49184864992
49184872133
49184878175
49184888063
49184895814
49184903505
49184911012
49184918031
49184926637
49184935121
49184940370
49184950807
49184957032
49184966859
49184974061
49184981263
49184990358
49184997682
49185007142
49185013551
49185021974
49185030824
49185037721
49185046021
49185053407
49185062684
49185072144
49185080445
49185088929
49185097718
49185106324
49185115785
49185123536
49185132935
49185138917
49185148988
49185155946
49185164674
49185174195
49185182374
49185191712
49185198670
49185208314
49185215882
49185225525
49185234376
49185242920
49185251099
49185259522
49185266785
49185275757
49185285157
49185290467
49185300171
49185305481
49185315430
49185324646
49185330567
49185339722
49185346070
49185355347
49185362488
49185372132
49185379822
49185388916
49185393921
49185404907
49185411316
49185422058
49185431152
49185437683
49185446838
49185455139
49185464844
49185472595
49185481140
49185488708
49185498779
49185504028
49185514343
49185522094
49185529358
49185537231
49185549011
49185554626
49185565429
49185573242
49185580566
49185587402
49185594543
49185604309
49185612426
49185619567
49185630432
49185639282
49185649780
49185658080
49185665893
49185674865
49185682922
49185693237
49185701721
49185710387
49185719177
49185725768
49185736510
49185745971
49185754272
49185761962
49185771789
49185776916
49185787536
49185797484
49185805663
49185813964
49185823180
49185830932
49185838256
49185850219
49185859618
49185865661
49185875060
49185884276
49185892272
49185900328
49185911254
49185917479
49185929930
49185938231
49185944640
49185953856
49185962096
49185969908
49185976073
49185986144
49185994689
49186003355
49186010863
49186017943
49186025328
49186034483
49186042113
49186049559
49186055785
49186063475
49186071715
49186078795
49186088499
49186096617
49186106993
49186115050
49186122862
49186131224
49186138975
49186149290
49186156431
49186167234
49186172117
49186184202
49186192320
49186199583
49186207518
49186215269
49186225950
49186232969
49186238951
49186246092
49186255308
49186262876
49186272093
49186279295
49186287046
49186294676
49186303709
49186312742
49186321043
49186327879
49186335874
49186344175
49186352232
49186356992
49186366209
49186376340
49186384946
49186393186
49186400266
49186406248
49186410703
49186418088
49186422788
49186429563
49186434568
49186440305
49186446164
49186451658
49186456113
49186461728
49186466977
49186474363
49186479856
49186485288
49186490720
49186496091
49186499265
49186506223
49186512632
49186518003
49186523740
49186527768
49186534116
49186539365
49186544248
49186549802
49186555783
49186560483
49186567380
49186571469
49186578305
49186582883
49186588071
49186594357
49186601010
49186604367
49186611081
49186615537
49186622678
49186625790
49186633603
49186638913
49186644955
49186651669
49186656552
49186662289
49186668332
49186673581
49186679074
49186684323
49186689572
49186694882
49186700375
49186706112
49186711911
49186717099
49186722897
49186729184
49186734555
49186739377
49186745175
49186751828
49186757504
49186763180
49186768917
49186773312
49186777707
49186785031
49186791684
49186795651
49186801754
49186807308
49186812008
49186818051
49186824154
49186828854
49186834957
49186838986
49186845394
49186850643
49186856136
49186861691
49186866940
49186871639
49186877926
49186882015
49186888241
49186895138
49186900326
49186906429
49186912838
49186918087
49186923336
49186929256
49186934139
49186940426
49186946407
49186952206
49186957271
49186962276
49186968990
49186974850
49186980404
49186985897
49186992245
49186997249
49187003780
49187009517
49187015377
49187021419
49187027157
49187032345
49187038448
49187043026
49187049190
49187055599
49187060726
49187067257
49187071712
49187079036
49187083858
49187089290
49187095272
49187100582
49187105403
49187112483
49187117061
49187123897
49187129695
49187133663
49187139644
49187144405
49187150875
49187156368
49187161861
49187166988
49187171443
49187178951
49187184871
49187190486
49187196407
49187202022
49187206844
49187213313
49187216670
49187223750
49187228938
49187233089
49187240962
49187246211
49187252010
49187257930
49187263118
49187268611
49187275691
49187280452
49187286189
49187291072
49187296260
49187302180
49187307734
49187312861
49187318660
49187323909
49187329219
49187336299
49187340266
49187347285
49187352595
49187358027
49187363581
49187369380
49187374507
49187380244
49187385432
49187390132
49187394282
49187400691
49187407099
49187412043
49187417903
49187422663
49187427851
49187433039
49187438105
49187444270
49187449030
49187454463
49187460322
49187465937
49187470637
49187477229
49187481806
49187487605
49187492426
49187498652
49187504633
49187509821
49187516779
49187521784
49187526545
49187532160
49187536433
49187544245
49187549677
49187554316
49187560480
49187566096
49187570490
49187575556
49187581843
49187588129
49187593317
49187598688
49187602289
49187608393
49187612848
49187617914
49187624323
49187628962
49187635065
49187639093
49187644648
49187650019
49187654963
49187660944
49187666376
49187671442
49187676447
49187682123
49187687494
49187693903
49187699213
49187705439
49187712458
49187718439
49187724237
49187729791
49187735102
49187740900
49187745783
49187751032
49187757746
49187762018
49187768671
49187774774
49187778742
49187785333
49187791559
49187796930
49187802423
49187807672
49187812494
49187817743
49187822260
49187830011
49187834955
49187840082
49187844781
49187851190
49187856317
49187862665
49187867059
49187873468
49187879816
49187885675
49187891229
49187896722
49187901788
49187908136
49187912896
49187918145
49187925470
49187931268
49187936334
49187940423
49187947870
49187953058
49187958673
49187965448
49187971795
49187976861
49187982354
49187987359
49187991998
49187998590
49188003228
49188009698
49188015069
49188020196
49188026116
49188030023
49188036248
49188042779
49188047051
49188054315
49188059503
49188064263
49188070001
49188076226
49188081292
49188087212
49188091607
49188098016
49188103692
49188109307
49188115411
49188120110
49188126275
49188132012
49188136590
49188143426
49188148614
49188153985
49188159783
49188165887
49188170830
49188176446
49188181145
49188188531
49188193230
49188198479
49188204583
49188209649
49188215325
49188221062
49188226494
49188232354
49188236443
49188242974
49188248955
49188254509
49188259270
49188265313
49188270317
49188275750
49188280693
49188287346
49188292107
49188297173
49188302971
49188308403
49188313164
49188318840
49188324028
49188331291
49188335991
49188341423
49188347099
49188352287
49188357475
49188363884
49188369560
49188375237
49188380913
49188385552
49188392510
49188397331
49188402275
49188408989
49188413017
49188420341
49188424980
49188430534
49188436150
49188441765
49188446831
49188453056
49188457268
49188464104
49188469475
49188474174
49188481193
49188485771
49188491447
49188496757
49188502067
49188508476
49188511406
49188518974
49188524101
49188528434
49188533867
49188539909
49188545097
49188550590
49188556999
49188562370
49188568229
49188572563
49188579094
49188584404
49188589714
49188595512
49188600578
49188605888
49188612113
49188617668
49188624015
49188630058
49188635856
49188641532
49188646842
49188651542
49188658195
49188662284
49188668327
49188674308
49188680229
49188685355
49188691459
49188696647
49188701896
49188707572
49188713309
49188718742
49188725272
49188731132
49188735160
49188740653
49188745292
49188752677
49188758414
49188763724
49188769156
49188774955
49188779777
49188786002
49188790885
49188798148
49188803519
49188809562
49188813834
49188818717
49188825126
49188830436
49188835563
49188841361
49188847586
49188852408
49188858207
49188862540
49188869071
49188874503
49188879935
49188885794
49188890433
49188895743
49188902274
49188906302
49188912650
49188915885
49188923270
49188929007
49188933341
49188939505
49188945304
49188951041
49188957816
49188962821
49188968009
49188973685
49188977835
49188984061
49188989493
49188994681
49189000662
49189005789
49189011221
49189018423
49189023489
49189028738
49189035452
49189039908
49189046255
49189051749
49189056814
49189062552
49189066580
49189073477
49189079825
49189085501
49189091543
49189096426
49189102163
49189108511
49189114859
49189120535
49189127005
49189131338
49189137503
49189143484
49189147879
49189154104
49189161489
49189167044
49189173086
49189177359
49189183096
49189188894
49189193655
49189200064
49189206228
49189211294
49189217398
49189222524
49189229971
49189235586
49189239675
49189246328
49189252310
49189257436
49189263662
49189268972
49189274587
49189280508
49189285574
49189291494
49189298635
49189304556
49189309438
49189315176
49189319875
49189325674
49189329946
49189336782
49189341482
49189346792
49189352529
49189358266
49189363454
49189371206
49189375844
49189382436
49189388906
49189394460
49189400625
49189406179
49189413320
49189417653
49189423391
49189428884
49189434560
49189440053
49189445791
49189451284
49189456716
49189462392
49189466909
49189473378
49189479909
49189484914
49189489675
49189496327
49189501027
49189507314
49189510549
49189517812
49189523671
49189528615
49189534780
49189539662
49189544850
49189550343
49189555470
49189562123
49189565968
49189572011
49189577382
49189581899
49189587636
49189593068
49189598256
49189603322
49189607838
49189614064
49189619008
49189625233
49189630177
49189636586
49189642750
49189647938
49189653554
49189659169
49189665455
49189670888
49189676137
49189682118
49189687916
49189692738
49189699513
49189704579
49189709645
49189715809
49189723561
49189728383
49189734608
49189739552
49189744984
49189751637
49189757191
49189762745
49189769276
49189772816
49189779957
49189786061
49189790394
49189796315
49189801869
49189807118
49189812611
49189816944
49189822987
49189829823
49189832936
49189840809
49189843983
49189851185
49189857044
49189861195
49189869068
49189874806
49189879078
49189885914
49189888844
49189895252
49189901783
49189906178
49189913013
49189917713
49189923084
49189929371
49189934376
49189939014
49189946827
49189952442
49189957996
49189962940
49189968006
49189973560
49189980030
49189985523
49189991688
49189994556
49190002369
49190008472
49190013538
49190020374
49190025196
49190031055
49190036426
49190040393
49190048145
49190054004
49190058216
49190064380
49190070240
49190075122
49190081775
49190087818
49190092456
49190098377
49190102893
49190109302
49190114551
49190119556
49190126331
49190131275
49190137378
49190143054
49190147937
49190154224
49190158984
49190164295
49190170642
49190175647
49190181995
49190187305
49190192004
49190198840
49190204456
49190209094
49190214343
49190218921
49190225574
49190229907
49190236926
49190242419
49190248523
49190255481
49190262256
49190266711
49190273669
49190278674
49190283923
49190289599
49190295459
49190301684
49190306811
49190311328
49190319201
49190325061
49190329028
49190335315
49190341174
49190346606
49190352465
49190357470
49190362353
49190368518
49190373767
49190380786
49190385913
49190391955
49190397387
49190402331
49190408679
49190414599
49190419604
49190424914
49190430285
49190435046
49190440478
49190445666
49190452258
49190457629
49190463427
49190469225
49190474658
49190479723
49190486681
49190491381
49190498339
49190503954
49190509997
49190515490
49190521105
49190525927
49190532030
49190536730
49190542467
49190549486
49190554369
49190560473
49190563524
49190570116
49190576220
49190581408
49190587633
49190592699
49190597887
49190603258
49190609606
49190614550
49190619677
49190624071
49190631151
49190636705
49190642382
49190648668
49190652025
49190659655
49190665392
49190669725
49190675951
49190682054
49190685778
49190693529
49190699083
49190703905
49190709642
49190714647
49190722093
49190727587
49190733690
49190739366
49190744982
49190750353
49190756395
49190760973
49190767259
49190772813
49190778734
49190784227
49190788561
49190794969
49190800279
49190805772
49190811388
49190817918
49190823534
49190830003
49190833665
49190840990
49190847093
49190852952
49190858324
49190863817
49190868822
49190873826
49190879869
49190885728
49190892015
49190897325
49190902086
49190909166
49190914354
49190919603
49190924913
49190930162
49190936692
49190941819
49190948167
49190953355
49190960008
49190965074
49190970994
49190976792
49190982591
49190987657
49190993638
49190998765
49191004502
49191009568
49191015733
49191020738
49191025437
49191032273
49191038438
49191042954
49191049485
49191053208
49191060227
49191066453
49191070664
49191077866
49191083482
49191088792
49191094834
49191102097
49191106309
49191113694
49191117783
49191123704
49191129441
49191134934
49191140610
49191145066
49191151414
49191156846
49191161973
49191168564
49191174485
49191181016
49191186509
49191192124
49191197678
49191202561
49191208298
49191214280
49191219346
49191224350
49191230576
49191234543
49191241440
49191246689
49191252427
49191259079
49191265061
49191270188
49191275498
49191281784
49191287339
49191292832
49191297959
49191302780
49191306687
49191313706
49191319077
49191324875
49191329941
49191332993
49191339401
49191345566
49191351853
49191357224
49191363327
49191368637
49191373703
49191379868
49191384933
49191390976
49191396042
49191401779
49191406540
49191411789
49191417770
49191423813
49191428390
49191434677
49191440597
49191444931
49191450485
49191455490
49191461654
49191466232
49191472030
49191478134
49191483505
49191488388
49191493393
49191500656
49191505966
49191510421
49191516098
49191521591
49191526901
49191533249
49191539352
49191544540
49191550155
49191555282
49191561142
49191566757
49191571579
49191577133
49191582992
49191587753
49191592941
49191598739
49191605514
49191610519
49191615463
49191621444
49191626327
49191634506
49191639510
49191645126
49191651779
49191658309
49191661910
49191668746
49191674728
49191680038
49191685775
49191690841
49191697005
49191703536
49191707565
49191714584
49191719344
49191726058
49191731124
49191734786
49191740401
49191744674
49191751388
49191758407
49191763289
49191768905
49191773299
49191778304
49191784713
49191790084
49191795699
49191800155
49191805404
49191810531
49191815719
49191821456
49191827193
49191832442
49191836592
49191843123
49191848311
49191853560
49191860152
49191864547
49191870040
49191874068
49191879805
49191885298
49191889876
49191895552
49191900740
49191906172
49191910079
49191915938
49191921309
49191925948
49191933089
49191937300
49191942793
49191946822
49191952742
49191958724
49191963545
49191969344
49191974532
49191979109
49191983565
49191989424
49191993452
49191999617
49192005049
49192009993
49192016463
49192021529
49192026594
49192030684
49192036421
49192042403
49192048079
49192054671
49192061568
49192067732
49192073897
49192079146
49192085432
49192091536
49192097517
49192102278
49192109114
49192113691
49192119673
49192125288
49192131086
49192137251
49192142439
49192147444
49192154890
49192158003
49192165205
49192171064
49192175215
49192181562
49192188703
49192192732
49192199140
49192204511
49192209760
49192215620
49192220014
49192226728
49192232160
49192237409
49192242964
49192248151
49192253462
49192259016
49192265180
49192270857
49192276167
49192281110
49192286420
49192291059
49192298017
49192302778
49192307844
49192314008
49192318464
49192324934
49192331220
49192335432
49192341840
49192348188
49192354108
49192360029
49192365766
49192372785
49192377668
49192381635
49192387983
49192395063
49192400556
49192405744
49192411176
49192416425
49192422773
49192426923
49192433149
49192440229
49192444318
49192450788
49192455609
49192462018
49192467328
49192471601
49192478925
49192484235
49192489911
49192494794
49192501508
49192506269
49192512372
49192517560
49192523786
49192528790
49192533734
49192540509
49192545514
49192551984
49192557111
49192562726
49192567914
49192574200
49192580121
49192586102
49192592328
49192597455
49192602399
49192606427
49192612530
49192618512
49192624005
49192630536
49192634930
49192641705
49192648114
49192652753
49192659283
49192665753
49192670636
49192676861
49192682965
49192688702
49192693890
49192698895
49192703961
49192707806
49192713726
49192717144
49192724041
49192730389
49192735760
49192740338
49192744488
49192750470
49192754559
49192761151
49192766766
49192772503
49192777081
49192782208
49192787884
49192790447
49192797222
49192803021
49192808087
49192813458
49192818463
49192824078
49192827374
49192833660
49192840130
49192845318
49192852093
49192856365
49192863018
49192868084
49192873943
49192880108
49192885235
49192890667
49192896221
49192901592
49192907513
49192914349
49192920208
49192926617
49192932659
49192937786
49192943523
49192949932
49192954754
49192960857
49192966167
49192972149
49192978191
49192982342
49192989544
49192993511
49192999553
49193004802
49193009746
49193016399
49193021465
49193028118
49193033306
49193039226
49193044841
49193049968
49193054668
49193060833
49193066082
49193072307
49193078044
49193082439
49193088603
49193093303
49193100566
49193108074
49193113323
49193118938
49193123027
49193129131
49193135173
49193140605
49193146404
49193151347
49193156780
49193162761
49193169475
49193175456
49193180400
49193186626
49193192668
49193195354
49193202861
49193208781
49193213359
49193220195
49193225383
49193231120
49193236308
49193241130
49193247539
49193254985
49193259257
49193264873
49193269755
49193274577
49193281108
49193286113
49193292155
49193298381
49193304240
49193309184
49193314555
49193320109
49193325663
49193330790
49193336467
49193342814
49193349284
49193355510
49193361674
49193366618
49193372843
49193376933
49193383158
49193389140
49193394450
49193400675
49193405680
49193410502
49193416178
49193421427
49193427836
49193433512
49193437480
49193443888
49193449137
49193454630
49193459635
49193464274
49193472330
49193477213
49193481364
49193488322
49193493998
49193498453
49193505289
49193510783
49193515971
49193521952
49193528605
49193533243
49193538615
49193543375
49193549906
49193555643
49193561197
49193567118
49193572428
49193577555
49193583109
49193587137
49193593424
49193597757
49193604288
49193608439
49193615641
49193620035
49193624674
49193629984
49193636393
49193641031
49193646891
49193651712
49193658365
49193661600
49193669474
49193676676
49193681558
49193686991
49193694132
49193698221
49193704325
49193711588
49193715616
49193722208
49193728189
49193733438
49193739114
49193742410
49193749735
49193756265
49193762857
49193768167
49193773294
49193779886
49193785989
49193791177
49193796243
49193802103
49193807657
49193811502
49193817544
49193823465
49193828897
49193833841
49193838907
49193843973
49193849771
49193853982
49193860391
49193866006
49193871194
49193876138
49193880777
49193888101
49193893533
49193899514
49193904947
49193910074
49193915139
49193921548
49193925821
49193931436
49193937112
49193942422
49193947000
49193951211
49193958047
49193963418
49193968789
49193973916
49193978128
49193983743
49193990212
49193995278
49194001077
49194004800
49194011086
49194015298
49194020852
49194025369
49194031960
49194035256
49194041665
49194046365
49194051858
49194057473
49194062356
49194068642
49194074441
49194079690
49194084939
49194089822
49194094033
49194100442
49194105263
49194112099
49194116982
49194122048
49194126870
49194131814
49194137490
49194142556
49194149148
49194153603
49194158730
49194163857
49194168801
49194173012
49194179543
49194185952
49194191384
49194197670
49194203347
49194208962
49194215554
49194221047
49194224160
49194231240
49194237526
49194242653
49194247902
49194253640
49194259804
49194266274
49194271096
49194276589
49194281594
49194288368
49194292641
49194299050
49194304726
49194309914
49194316811
49194322365
49194327797
49194332192
49194340187
49194344948
49194350014
49194356667
49194362038
49194366982
49194371376
49194377785
49194380836
49194388710
49194392616
49194398659
49194403786
49194409462
49194414406
49194419594
49194425880
49194430580
49194435585
49194441078
49194446144
49194450172
49194456825
49194460060
49194467384
49194472328
49194478126
49194481727
49194487953
49194492897
49194497718
49194503639
49194507484
49194513832
49194519203
49194524025
49194529274
49194533546
49194539711
49194545997
49194549232
49194555885
49194560829
49194565650
49194568641
49194576515
49194581642
49194587379
49194592750
49194598121
49194602332
49194607520
49194612708
49194617835
49194624244
49194630164
49194634986
49194638343
49194645057
49194649879
49194655067
49194660499
49194666419
49194671607
49194675636
49194681556
49194685767
49194691383
49194696021
49194703406
49194708839
49194713843
49194718970
49194723914
49194728980
49194732703
49194739417
49194745337
49194749915
49194755164
49194759620
49194765357
49194769996
49194774939
49194781897
49194786597
49194791724
49194798438
49194803138
49194810279
49194813819
49194821326
49194826697
49194831519
49194836829
49194842261
49194847693
49194852454
49194858252
49194863379
49194869422
49194874060
49194878882
49194884192
49194890113
49194895117
49194901404
49194906226
49194911536
49194916480
49194921301
49194926184
49194932715
49194938330
49194942664
49194947913
49194953284
49194957495
49194963355
49194969336
49194975073
49194980872
49194985754
49194990515
49194995520
49195001440
49195005408
49195012915
49195017309
49195023108
49195027258
49195032629
49195038672
49195043616
49195048681
49195055090
49195060400
49195065832
49195070593
49195074682
49195080114
49195086950
49195092138
49195097570
49195102331
49195108435
49195112219
49195118200
49195123816
49195129980
49195133520
49195139685
49195145117
49195150122
49195155737
49195160864
49195166601
49195171728
49195177526
49195181310
49195187597
49195191747
49195197607
49195202001
49195207922
49195212621
49195218481
49195223303
49195229528
49195234411
49195240026
49195247533
49195251562
49195256933
49195260900
49195267248
49195272436
49195277319
49195282690
49195288000
49195293493
49195297765
49195303319
49195308507
49195313695
49195321020
49195325170
49195330907
49195335302
49195340856
49195344823
49195351171
49195357946
49195362157
49195368810
49195372838
49195378026
49195384740
49195389501
49195395726
49195400792
49195405797
49195411473
49195415502
49195420201
49195426122
49195433141
49195438085
49195444371
49195449864
49195457250
49195464269
49195470433
49195475438
49195481969
49195487584
49195493321
49195500463
49195505223
49195512303
49195518346
49195524266
49195530309
49195535558
49195539952
49195547093
49195552525
49195557835
49195564793
49195570287
49195576573
49195582982
49195587804
49195594456
49195600377
49195604893
49195609715
49195615941
49195619847
49195626195
49195632725
49195637059
49195643712
49195650364
49195655858
49195661046
49195666844
49195671788
49195678318
49195684544
49195689915
49195695469
49195700291
49195706944
49195711033
49195718724
49195723973
49195729527
49195735691
49195740086
49195747776
49195754795
49195760105
49195766697
49195771702
49195777622
49195782627
49195787327
49195793369
49195799595
49195804661
49195811558
49195818028
49195823094
49195829258
49195833714
49195839085
49195844334
49195849339
49195855442
49195861179
49195867283
49195873081
49195877598
49195883579
49195889378
49195895115
49195901523
49195907261
49195912022
49195918796
49195922703
49195928745
49195934238
49195939670
49195945957
49195952183
49195957309
49195962925
49195968418
49195973057
49195977329
49195984836
49195990635
49195996372
49196001804
49196006992
49196012058
49196017368
49196022678
49196029331
49196033847
49196039096
49196044101
49196049716
49196055271
49196061496
49196066196
49196071323
49196076450
49196081882
49196087497
49196093479
49196098789
49196104404
49196109104
49196114353
49196119785
49196125949
49196131259
49196136142
49196140109
49196146701
49196149631
49196157504
49196165927
49196170016
49196176120
49196180881
49196185458
49196190524
49196195956
49196202060
49196207492
49196212619
49196216586
49196223361
49196227817
49196232944
49196239474
49196244906
49196250522
49196254916
49196261081
49196266147
49196271090
49196277316
49196283419
49196288974
49196293856
49196299411
49196305331
49196310031
49196315829
49196322604
49196327243
49196331820
49196336825
49196342196
49196346347
49196352450
49196358432
49196363436
49196367587
49196373324
49196378939
49196384493
49196390109
49196395236
49196400485
49196405978
49196410067
49196415926
49196422030
49196426974
49196433199
49196437106
49196443453
49196448275
49196453341
49196458590
49196463961
49196469637
49196473666
49196480196
49196484957
49196489779
49196496493
49196502108
49196507601
49196512118
49196517123
49196522860
49196526461
49196534395
49196538973
49196544222
49196549898
49196555086
49196560701
49196565096
49196571138
49196576021
49196583040
49196587984
49196593233
49196597933
49196602877
49196609041
49196614229
49196620028
49196625887
49196630648
49196635164
49196640291
49196646334
49196651583
49196656404
49196661836
49196666719
49196673128
49196677828
49196683504
49196688509
49196694734
49196699007
49196707063
49196713533
49196718172
49196725435
49196731477
49196736604
49196742098
49196747713
49196752840
49196759615
49196763826
49196770052
49196776277
49196782136
49196787630
49196792879
49196799043
49196804536
49196808565
49196815584
49196820650
49196826204
49196832002
49196837007
49196842500
49196848909
49196852876
49196860383
49196866914
49196870881
49196876558
49196882600
49196887422
49196894868
49196899629
49196905305
49196911164
49196916352
49196921907
49196927766
49196932649
49196938386
49196943696
49196949678
49196956147
49196960908
49196966828
49196972444
49196979218
49196985200
49196990022
49196996186
49197003205
49197007844
49197014619
49197019685
49197025422
49197029878
49197034699
49197040559
49197046479
49197051301
49197057282
49197061860
49197066804
49197072236
49197077180
49197083039
49197088593
49197093598
49197100373
49197106293
49197111909
49197117036
49197123261
49197128205
49197134797
49197139924
49197146027
49197151459
49197157502
49197162568
49197169037
49197175690
49197180878
49197186799
49197191315
49197198761
49197204499
49197208588
49197215241
49197220429
49197225861
49197232392
49197236847
49197243866
49197249909
49197254059
49197261322
49197266876
49197271759
49197277130
49197283844
49197289276
49197294220
49197299652
49197306488
49197311615
49197316376
49197323029
49197327240
49197333466
49197338959
49197343781
49197350861
49197355316
49197362091
49197367401
49197373077
49197379486
49197385406
49197390228
49197396332
49197400421
49197408478
49197414337
49197419769
49197425201
49197430084
49197436126
49197440948
49197444488
49197452301
49197459137
49197463714
49197468658
49197473297
49197479339
49197483551
49197490020
49197496246
49197500152
49197505523
49197510528
49197515167
49197520965
49197526702
49197529937
49197536163
49197541778
49197546905
49197552459
49197557891
49197563873
49197568756
49197573638
49197578704
49197583831
49197589691
49197595428
49197601837
49197605438
49197611846
49197617217
49197622405
49197627654
49197633025
49197639312
49197644500
49197649261
49197654205
49197659209
49197664275
49197670196
49197676177
49197680511
49197687286
49197692168
49197696868
49197701995
49197707915
49197713775
49197719390
49197724456
49197730132
49197734893
49197739593
49197745513
49197751006
49197756255
49197761565
49197766692
49197771636
49197776702
49197783355
49197789763
49197795379
49197800566
49197806060
49197809600
49197815886
49197820159
49197825530
49197830779
49197837249
49197842681
49197847502
49197853240
49197858977
49197864287
49197869292
49197875578
49197880339
49197885344
49197889739
49197894255
49197900908
49197906645
49197911833
49197916472
49197920134
49197926909
49197931609
49197937468
49197943205
49197949492
49197954314
49197958586
49197963774
49197969878
49197974333
49197980986
49197986235
49197990813
49197996306
49198002775
49198009123
49198013762
49198018645
49198024565
49198029326
49198034880
49198041227
49198046415
49198052702
49198057463
49198062834
49198068998
49198073332
49198080412
49198084990
49198089994
49198094755
49198099394
49198105192
49198111235
49198116056
49198122587
49198127348
49198132414
49198137785
49198143400
49198148893
49198154631
49198161161
49198165861
49198170622
49198176054
49198181791
49198186308
49198192777
49198197782
49198202421
49198207670
49198212675
49198218595
49198222990
49198228727
49198235319
49198240202
49198245451
49198250394
49198255155
49198261198
49198267362
49198273038
49198278043
49198283109
49198287748
49198292203
49198297269
49198303617
49198309354
49198314603
49198319669
49198324674
49198330594
49198336393
49198342679
49198347562
49198352445
49198356901
49198362638
49198367765
49198373319
49198378812
49198383573
49198388211
49198394376
49198399015
49198403775
49198409879
49198415311
49198419583
49198426114
49198430997
49198435941
49198440946
49198447232
49198453519
49198458402
49198463223
49198468289
49198472806
49198478971
49198483731
49198489469
49198494962
49198499906
49198505765
49198509244
49198515836
49198520108
49198527921
49198533170
49198538052
49198543301
49198548367
49198554532
49198559293
49198565274
49198569485
49198576810
49198581509
49198587308
49198592496
49198597989
49198604275
49198609830
49198614834
49198622647
49198628750
49198634121
49198640103
49198646451
49198652188
49198658841
49198664212
49198669705
49198675503
49198681057
49198687100
49198692227
49198698147
49198704068
49198710781
49198714627
49198721768
49198726651
49198732754
49198737881
49198742092
49198749539
49198755764
49198761196
49198765774
49198769558
49198775540
49198782681
49198788357
49198793240
49198799343
49198804653
49198810330
49198815456
49198820339
49198826321
49198832546
49198837734
49198844143
49198848904
49198854580
49198860622
49198865688
49198871792
49198876369
49198882473
49198888943
49198894558
49198899624
49198905422
49198910305
49198916469
49198921169
49198928127
49198934170
49198939113
49198944179
49198950161
49198955410
49198963161
49198969143
49198975063
49198981105
49198986660
49198992214
49198997768
49199003688
49199008998
49199014064
49199020168
49199025600
49199032985
49199039333
49199044826
49199049770
49199053798
49199059535
49199065212
49199070400
49199077175
49199082301
49199088710
49199094081
49199098842
49199103969
49199110133
49199114955
49199121303
49199126735
49199132411
49199138637
49199144862
49199150111
49199154994
49199158900
49199164760
49199170253
49199175746
49199182033
49199187526
49199193446
49199198817
49199203456
49199209132
49199214992
49199219447
49199224757
49199229457
49199234767
49199240565
49199244838
49199251674
49199257167
49199262172
49199266322
49199271327
49199277247
49199282191
49199288539
49199294276
49199298793
49199304103
49199308924
49199313014
49199319178
49199322413
49199330470
49199335658
49199340602
49199345606
49199350611
49199355250
49199360133
49199367640
49199372157
49199377406
49199381373
49199387782
49199391871
49199397669
49199403407
49199408595
49199414027
49199419032
49199424097
49199428919
49199433863
49199439478
49199444239
49199449610
49199455164
49199459498
49199465296
49199469446
49199475428
49199479822
49199484888
49199490748
49199495814
49199500880
49199505762
49199510706
49199515528
49199522303
49199527979
49199533899
49199538599
49199544764
49199549097
49199555872
49199562220
49199568018
49199573267
49199578760
49199585047
49199589380
49199594385
49199601282
49199607202
49199611841
49199615930
49199623560
49199628687
49199634668
49199642725
49199645716
49199652246
49199658533
49199662439
49199669702
49199676050
49199680078
49199686914
49199691614
49199697168
49199702783
49199708276
49199714807
49199720239
49199724573
49199731897
49199738245
49199742822
49199749353
49199755395
49199760889
49199765832
49199771814
49199778039
49199784387
49199789209
49199794885
49199799707
49199805017
49199811059
49199816186
49199823205
49199828027
49199834802
49199839441
49199845422
49199851098
49199856530
49199862146
49199867212
49199873193
49199877038
49199883752
49199889062
49199894494
49199901513
49199905847
49199911279
49199917077
49199921350
49199929345
49199934167
49199939294
49199945153
49199949853
49199954797
49199960778
49199966516
49199971520
49199977746
49199982385
49199988549
49199993676
49200001000
49200006066
49200011376
49200017419
49200021935
49200026574
49200034142
49200038842
49200045495
49200051965
49200055993
49200062524
49200069604
49200074975
49200080285
49200086144
49200091027
49200097130
49200102502
49200108788
49200114342
49200119958
49200124657
49200131554
49200138024
49200142785
49200149376
49200153954
49200159691
49200164330
49200169823
49200174462
49200180443
49200186669
49200191368
49200197228
49200200829
49200207421
49200211693
49200218407
49200223412
49200228661
49200234459
49200239403
49200243614
49200247887
49200254723
49200260277
49200265160
49200270043
49200274925
49200281517
49200285851
49200291466
49200298180
49200302940
49200308128
49200312950
49200317772
49200323509
49200328819
49200335106
49200339806
49200345848
49200349510
49200355492
49200359947
49200365623
49200371910
49200376549
49200381859
49200387047
49200393028
49200397789
49200404381
49200407432
49200418602
49200432823
49200436058
49200443687
49200450584
49200455833
49200462364
49200467247
49200472923
49200478172
49200483543
49200490379
49200496299
49200500450
49200506126
49200513084
49200524864
49200534019
49200544273
49200554710
49200564842
49200575218
49200585594
49200595298
49200604453
49200614707
49200624046
49200633750
49200644065
49200652915
49200662681
49200673911
49200682700
49200693381
49200703391
49200712363
49200723288
49200733848
49200744162
49200753013
49200762778
49200773398
49200782248
49200790793
49200801780
49200812216
49200820944
49200831137
49200840354
49200850852
49200859213
49200867941
49200877036
49200884665
49200892478
49200898093
49200903891
49200909811
49200915793
49200921652
49200926840
49200932516
49200937582
49200943198
49200949179
49200953940
49200959006
49200962424
49200965903
49200970602
49200975119
49200979574
49200984518
49200988608
49200993796
49200998862
49201003195
49201007956
49201011252
49201015219
49201019858
49201025046
49201027609
49201033957
49201038290
49201042196
49201047201
49201051596
49201056418
49201060629
49201065390
49201068869
49201073568
49201077291
49201081198
49201087545
49201091879
49201096029
49201099325
49201104147
49201108541
49201112142
49201116781
49201120748
49201126364
49201131002
49201135031
49201139181
49201144430
49201148641
49201153097
49201157247
49201162252
49201167623
49201171774
49201175192
49201180380
49201184835
49201188070
49201192709
49201197042
49201200948
49201206258
49201211507
49201214864
49201217367
49201222799
49201228048
49201231649
49201236349
49201240072
49201244161
49201248434
49201252279
49201256795
49201261556
49201264974
49201268697
49201272542
49201276449
49201280782
49201285421
49201288656
49201293355
49201297994
49201300924
49201306051
49201310995
49201315572
49201321126
49201323385
49201329183
49201333516
49201336263
49201342000
49201345296
49201350667
49201354451
49201358114
49201363485
49201367940
49201372335
49201374715
49201379781
49201384664
49201387899
49201392659
49201397969
49201401570
49201406331
49201409810
49201415303
49201419881
49201423543
49201428365
49201432088
49201436116
49201439717
49201443990
49201448506
49201452413
49201456441
49201462300
49201465474
49201469808
49201474141
49201477681
49201482930
49201487142
49201491414
49201495320
49201499104
49201503804
49201508565
49201511983
49201517659
49201522237
49201525655
49201529561
49201533955
49201539998
49201543782
49201547627
49201551839
49201556172
49201560261
49201565510
49201569050
49201574055
49201578511
49201582356
49201586568
49201590901
49201596699
49201600667
49201604939
49201609639
49201613240
49201617085
49201622639
49201626729
49201630818
49201635396
49201638691
49201644246
49201648396
49201651997
49201656697
49201661274
49201664998
49201669758
49201674214
49201678669
49201684346
49201688191
49201692280
49201695759
49201700459
49201705220
49201708332
49201713032
49201718342
49201721455
49201726033
49201731282
49201736469
49201742451
49201746662
49201750874
49201754963
49201757588
49201763508
49201767231
49201771259
49201774983
49201779133
49201783405
49201787800
49201790791
49201795246
49201799824
49201803730
49201808613
49201812763
49201816975
49201821796
49201825825
49201830280
49201836140
49201841022
49201845417
49201849445
49201853352
49201857929
49201862141
49201865803
49201872333
49201876362
49201879902
49201884174
49201888141
49201891865
49201897053
49201901569
49201906513
49201910663
49201914753
49201918415
49201923908
49201929279
49201933063
49201937153
49201941791
49201946857
49201950458
49201955646
49201958576
49201962909
49201967365
49201970478
49201976459
49201980487
49201984211
49201988849
49201993610
49201998127
49202002582
49202006183
49202011493
49202015827
49202019184
49202024127
49202028278
49202031940
49202036762
49202041767
49202046222
49202050800
49202055194
49202059589
49202063617
49202068317
49202072833
49202078021
49202082172
49202086200
49202090717
49202094867
49202099933
49202103778
49202107806
49202111591
49202115924
49202121417
49202125507
49202130939
49202134906
49202138446
49202142535
49202147113
49202151569
49202156573
49202161212
49202164996
49202168964
49202172931
49202177325
49202183246
49202187701
49202192340
49202196490
49202200824
49202204913
49202209247
49202213092
49202217425
49202221270
49202225116
49202229144
49202234637
49202238238
49202243182
49202246295
49202250872
49202255328
49202259417
49202264605
49202268451
49202272479
49202277606
49202281756
49202286151
49202290606
49202295611
49202299456
49202302752
49202307513
49202311724
49202316912
49202321856
49202326983
49202331866
49202334551
49202338458
49202342120
49202347369
49202352374
49202355975
49202360674
49202365862
49202368853
49202373614
49202378008
49202381976
49202386492
49202389422
49202394244
49202398089
49202401934
49202406084
49202409991
49202413226
49202416399
49202421404
49202426531
49202430315
49202434222
49202438921
49202442644
49202446490
49202451311
49202455279
49202459429
49202463213
49202467913
49202471026
49202475420
49202480669
49202484698
49202489580
49202493609
49202496660
49202501055
49202504046
49202510332
49202515398
49202518877
49202522844
49202526018
49202531206
49202536394
49202540178
49202543718
49202549395
49202554155
49202559771
49202564837
49202567461
49202572588
49202577166
49202579851
49202584795
49202588274
49202594500
49202599321
49202603411
49202607683
49202612749
49202616716
49202622515
49202626238
49202631059
49202634966
49202639055
49202643205
49202647356
49202652361
49202657182
49202661516
49202666704
49202671221
49202674883
49202679582
49202682634
49202687883
49202691728
49202695635
49202698808
49202702776
49202708147
49202712968
49202717241
49202720537
49202724077
49202729448
49202733415
49202736772
49202740678
49202744585
49202749284
49202752763
49202755937
49202761430
49202765642
49202769243
49202773271
49202777543
49202781694
49202785417
49202789689
49202794877
49202798417
49202803056
49202807084
49202810930
49202815385
49202819536
49202823930
49202829179
49202833268
49202837663
49202841813
49202846208
49202850602
49202856279
49202859575
49202863969
49202868913
49202874101
49202878312
49202881730
49202887284
49202891923
49202895341
49202901078
49202905412
49202909440
49202912553
49202915727
49202919755
49202922990
49202927812
49202931657
49202934892
49202937394
49202941239
49202945451
49202948686
49202952043
49202955033
49202959184
49202963090
49202965959
49202969926
49202972855
49202976884
49202980424
49202983415
49202986588
49202989030
49202992936
49202995805
49202998795
49203001908
49203005509
49203009354
49203012467
49203015641
49203018815
49203022843
49203026322
49203029496
49203032548
49203036698
49203039262
49203042985
49203046525
49203049332
49203053239
49203056657
49203060319
49203064713
49203067277
49203071244
49203073746
49203077164
49203080704
49203084489
49203087540
49203091385
49203095231
49203099930
49203103837
49203106705
49203109879
49203113236
49203117203
49203120438
49203123490
49203126969
49203130265
49203134171
49203137040
49203139298
49203142655
49203146805
49203150834
49203153397
49203156571
49203160477
49203163529
49203167618
49203171769
49203174637
49203178482
49203181961
49203185562
49203189408
49203193070
49203195694
49203198624
49203202164
49203206375
49203210037
49203214066
49203216690
49203219925
49203224198
49203227860
49203231034
49203234146
49203237015
49203240982
49203244156
49203248184
49203250809
49203254532
49203257950
49203261734
49203265213
49203269486
49203272904
49203276138
49203279556
49203282913
49203286026
49203288956
49203292618
49203295853
49203298965
49203302017
49203304276
49203306900
49203309647
49203312515
49203314957
49203316849
49203319229
49203321426
49203323746
49203326492
49203328873
49203330765
49203332901
49203334793
49203336807
49203338760
49203340774
49203342789
49203345230
49203346756
49203348831
49203350845
49203352554
49203354568
49203356216
49203357925
49203359512
49203361587
49203363846
49203365799
49203367386
49203368973
49203370865
49203372696
49203374649
49203376236
49203377884
49203379776
49203381729
49203383621
49203385452
49203387405
49203388992
49203391434
49203393142
49203395035
49203396988
49203398575
49203400589
49203402603
49203404739
49203406631
49203408462
49203410415
49203412307
49203414383
49203416275
49203417862
49203419388
49203421280
49203423050
49203425064
49203426773
49203428726
49203430618
49203432266
49203434219
49203435989
49203438308
49203439956
49203441909
49203443802
49203445816
49203447586
49203449417
49203451553
49203453323
49203455215
49203456924
49203458938
49203460830
49203462661
49203464248
49203466079
49203467666
49203469619
49203471572
49203473404
49203475174
49203476821
49203478591
49203480545
49203482559
49203484512
49203486160
49203488174
49203490188
49203492019
49203493667
49203495254
49203497390
49203499343
49203501113
49203502883
49203504776
49203506484
49203508316
49203510147
49203511978
49203513687
49203515335
49203517044
49203519180
49203521011
49203523025
49203524856
49203526931
49203528823
49203530960
49203532791
49203534622
49203536636
49203538528
49203540481
49203542617
49203544509
49203546279
49203548293
49203550063
49203551895
49203553542
49203555557
49203557266
49203558975
49203561111
49203562759
49203565017
49203566665
49203568801
49203570693
49203572402
49203574539
49203576370
49203578323
49203580154
49203582046
49203583755
49203585952
49203587722
49203589614
49203591445
49203593337
49203595779
49203597488
49203599136
49203601089
49203602798
49203604507
49203606338
49203608230
49203610122
49203611648
49203613418
49203615554
49203617446
49203619277
49203621230
49203623000
49203624953
49203626784
49203628554
49203630141
49203632095
49203634109
49203635696
49203637466
49203639480
49203641250
49203643142
49203645888
49203649184
49203650893
49203652724
49203654677
49203656447
49203658401
49203660110
49203661941
49203663833
49203666030
49203667800
49203669936
49203671767
49203674026
49203675612
49203677627
49203679336
49203681594
49203683303
49203685012
49203686843
49203688735
49203690749
49203692458
49203694289
49203695998
49203697890
49203699660
49203701613
49203703567
49203705581
49203707412
49203709548
49203711257
49203713271
49203714858
49203717238
49203719130
49203720961
49203722915
49203724685
49203726638
49203728408
49203729995
49203731948
49203733779
49203735610
49203737441
49203739333
49203741408
49203742873
49203744582
49203746779
49203748549
49203750441
49203752150
49203754287
49203756179
49203757827
49203759475
49203761000
49203763259
49203765090
49203766921
49203768813
49203770461
49203772353
49203774184
49203776137
49203777785
49203779433
49203781142
49203783339
49203785170
49203787001
49203788771
49203790602
49203792678
49203794814
49203797194
49203798903
49203801223
49203802870
49203805007
49203806960
49203808730
49203810439
49203812331
49203814467
49203816298
49203818129
49203819838
49203821913
49203824172
49203826186
49203827956
49203829360
49203831374
49203833022
49203835036
49203836867
49203838637
49203840712
49203842543
49203844679
49203846633
49203848464
49203850234
49203852553
49203854750
49203856642
49203858412
49203860243
49203861952
49203863722
49203865614
49203867507
49203869032
49203870741
49203873122
49203874587
49203876479
49203878188
49203880202
49203881850
49203883803
49203885695
49203887770
49203889723
49203891371
49203893019
49203894667
49203896681
49203898451
49203900343
49203901991
49203903822
49203905653
49203907484
49203909621
49203911330
49203912917
49203914626
49203916701
49203918959
49203920790
49203922743
49203924330
49203926405
49203927870
49203930312
49203932082
49203933974
49203935927
49203937880
49203939650
49203941481
49203943251
49203944960
49203947157
49203948805
49203950697
49203952467
49203954115
49203956129
49203958143
49203960097
49203962111
49203964430
49203966017
49203967787
49203969801
49203971632
49203973707
49203975600
49203977553
49203979201
49203981032
49203982802
49203984694
49203986891
49203988722
49203990675
49203992628
49203994764
49203996412
49203998243
49204000197
49204001967
49204003798
49204005629
49204007338
49204008986
49204010878
49204012587
49204014357
49204016615
49204018507
49204020155
49204022047
49204024122
49204025709
49204027662
49204029371
49204031569
49204033156
49204035353
49204037306
49204038893
49204040724
49204042372
49204044325
49204046095
49204048048
49204050184
49204051954
49204053907
49204055799
49204057753
49204059523
49204061720
49204063551
49204065565
49204067701
49204069532
49204071424
49204073378
49204075148
49204076857
49204078749
49204080580
49204082289
49204084486
49204086317
49204087843
49204089796
49204091749
49204093519
49204095411
49204097425
49204099378
49204101454
49204103163
49204105360
49204107069
49204109388
49204111219
49204113417
49204115370
49204117140
49204118971
49204120863
49204123060
49204124891
49204126661
49204128431
49204130323
49204132459
49204134229
49204136183
49204137892
49204139601
49204141432
49204143324
49204145094
49204146925
49204148939
49204150892
49204152845
49204154676
49204156507
49204158338
49204160047
49204162733
49204164686
49204166456
49204168043
49204170118
49204171888
49204173902
49204175489
49204177137
49204178846
49204180738
49204182630
49204184522
49204186353
49204188123
49204190138
49204192152
49204194044
49204195692
49204197645
49204199598
49204201185
49204203260
49204204847
49204206739
49204208448
49204210218
49204211988
49204213758
49204215650
49204217298
49204219190
49204221021
49204222791
49204224500
49204226331
49204228284
49204230299
49204232252
49204234144
49204236219
49204238050
49204240369
49204242322
49204244031
49204245801
49204247755
49204249891
49204251722
49204253553
49204255262
49204257276
49204259107
49204261060
49204263013
49204264844
49204266675
49204268384
49204270215
49204272230
49204273817
49204276258
49204278028
49204279920
49204281507
49204283643
49204285352
49204287244
49204289258
49204290845
49204292920
49204294629
49204296705
49204298597
49204300489
49204302381
49204304273
49204306409
49204308057
49204310010
49204311597
49204313611
49204315381
49204317457
49204319166
49204321119
49204322767
49204324476
49204326429
49204328199
49204330335
49204332227
49204334546
49204336377
49204338025
49204339978
49204341810
49204343518
49204345411
49204347059
49204348890
49204350599
49204352430
49204354139
49204356153
49204358045
49204359754
49204361585
49204363843
49204365613
49204367383
49204369336
49204371228
49204373243
49204374768
49204376966
49204378492
49204380567
49204382703
49204384717
49204386731
49204388562
49204390210
49204391980
49204394178
49204396009
49204397779
49204399610
49204401258
49204403455
49204405286
49204407056
49204409070
49204411267
49204412854
49204414868
49204416699
49204418530
49204420728
49204422376
49204424634
49204426709
49204428662
49204430737
49204432569
49204434644
49204436536
49204438550
49204440503
49204442456
49204444348
49204446179
49204448255
49204450208
49204452100
49204453870
49204455823
49204458020
49204460034
49204462109
49204463941
49204465955
49204468091
49204469983
49204471692
49204473645
49204475720
49204477918
49204479810
49204481580
49204483594
49204486035
49204487866
49204489758
49204491528
49204493481
49204495435
49204497388
49204499463
49204501355
49204503369
49204505444
49204507153
49204509290
49204511731
49204513379
49204515576
49204517407
49204519788
49204521985
49204523938
49204526318
49204527966
49204530041
49204531995
49204533887
49204535779
49204537854
49204539868
49204541821
49204543530
49204545483
49204547436
49204549390
49204551282
49204553113
49204555310
49204557080
49204559094
49204560925
49204562695
49204565137
49204566968
49204569226
49204571240
49204573132
49204575329
49204577221
49204579297
49204581372
49204583020
49204585217
49204587170
49204589245
49204591260
49204593152
49204594800
49204596753
49204598889
49204600964
49204602917
49204604687
49204606579
49204608655
49204610669
49204612866
49204614758
49204616528
49204618542
49204620556
49204622693
49204624402
49204626477
49204628308
49204630139
49204632336
49204634167
49204636059
49204637951
49204639599
49204642102
49204643933
49204645642
49204647595
49204649426
49204651318
49204653027
49204655041
49204657177
49204658947
49204660900
49204662732
49204664685
49204666699
49204668835
49204670910
49204672680
49204675000
49204676892
49204679211
49204681164
49204683056
49204685131
49204687084
49204689343
49204691174
49204692944
49204694958
49204696972
49204699047
49204701062
49204703137
49204705029
49204707104
49204709240
49204711010
49204712963
49204714794
49204717236
49204719006
49204720898
49204722851
49204724743
49204727001
49204729016
49204730969
49204733166
49204734997
49204737011
49204738903
49204740856
49204743115
49204744824
49204746777
49204748669
49204750378
49204752575
49204754467
49204756298
49204758251
49204760021
49204762097
49204763867
49204766186
49204768078
49204769970
49204771862
49204773815
49204776074
49204778149
49204780285
49204782238
49204784435
49204786449
49204788403
49204790539
49204792614
49204794811
49204796459
49204798412
49204800304
49204802258
49204803783
49204805859
49204807873
49204809826
49204811840
49204813732
49204815380
49204817333
49204819653
49204821423
49204823681
49204825695
49204827587
49204829845
49204831615
49204833874
49204835705
49204838024
49204839977
49204841808
49204843944
49204845959
49204847790
49204849621
49204851391
49204853466
49204855358
49204857250
49204859142
49204861095
49204863232
49204865124
49204866833
49204868603
49204870678
49204872448
49204874401
49204876598
49204878551
49204880504
49204882396
49204884472
49204886608
49204888683
49204890453
49204892345
49204894481
49204896862
49204898693
49204900646
49204902721
49204904735
49204906444
49204908581
49204910167
49204912243
49204913952
49204915783
49204917675
49204919811
49204921703
49204923473
49204925365
49204927257
49204929210
49204931041
49204933300
49204935192
49204936901
49204939220
49204941173
49204943248
49204945263
49204947521
49204949352
49204951366
49204953258
49204955272
49204957225
49204959117
49204961071
49204963085
49204965160
49204966930
49204968761
49204970897
49204972789
49204974559
49204976451
49204978466
49204980541
49204982555
49204984508
49204986522
49204988475
49204990734
49204992687
49204994518
49204996837
49204998668
49205000865
49205002819
49205004711
49205007091
49205008922
49205010875
49205012828
49205014659
49205016735
49205018566
49205020397
49205022350
49205024242
49205026012
49205028026
49205029857
49205032237
49205033946
49205035838
49205037670
49205039928
49205041820
49205043956
49205045848
49205047862
49205050182
49205052074
49205054210
49205056285
49205058544
49205060375
49205062206
49205064098
49205065868
49205067821
49205069469
49205071544
49205073497
49205075145
49205077037
49205078929
49205080943
49205082896
49205084911
49205086681
49205088573
49205090587
49205092845
49205094737
49205096873
49205098766
49205101085
49205102794
49205104869
49205106700
49205108836
49205111217
49205113109
49205115123
49205117137
49205119151
49205121104
49205123058
49205125194
49205127208
49205129100
49205130870
49205132640
49205134532
49205136607
49205138438
49205140391
49205142528
49205144359
49205146190
49205148143
49205150279
49205152293
49205154063
49205155772
49205157603
49205159984
49205161815
49205163585
49205165599
49205167613
49205169627
49205171580
49205173594
49205175364
49205177012
49205179210
49205180919
49205182811
49205184703
49205186778
49205188670
49205190501
49205192576
49205194346
49205196177
49205198008
49205199901
49205202098
49205203990
49205205943
49205207652
49205209666
49205212047
49205213878
49205216075
49205217967
49205220042
49205222056
49205224009
49205226268
49205228160
49205230113
49205232005
49205233897
49205235667
49205237803
49205239817
49205241832
49205243724
49205245799
49205247813
49205249644
49205251658
49205254222
49205255931
49205257701
49205259898
49205261851
49205263987
49205265757
49205267833
49205270030
49205272166
49205274119
49205275889
49205277903
49205280162
49205281871
49205283824
49205285716
49205287852
49205289683
49205291514
49205293223
49205295115
49205297007
49205298838
49205300975
49205303111
49205305064
49205306834
49205308543
49205310618
49205312693
49205314585
49205316599
49205318370
49205320262
49205322764
49205324473
49205326426
49205328562
49205330332
49205332774
49205334605
49205336558
49205338572
49205340464
49205342356
49205344309
49205346324
49205348521
49205350413
49205352122
49205354197
49205356516
49205358469
49205360362
49205362132
49205364268
49205366831
49205368723
49205370676
49205372569
49205374339
49205376536
49205378306
49205380381
49205382212
49205384470
49205386240
49205388377
49205390330
49205392283
49205394053
49205396128
49205398020
49205399973
49205401865
49205403941
49205405894
49205407725
49205409739
49205411509
49205413645
49205415598
49205417857
49205419566
49205421336
49205423472
49205425364
49205427317
49205429026
49205430979
49205433359
49205435190
49205437205
49205439158
49205441172
49205443003
49205444834
49205446787
49205448862
49205450571
49205452341
49205454111
49205456187
49205458201
49205460093
49205462046
49205463816
49205466135
49205467966
49205470164
49205472178
49205474070
49205476389
49205478281
49205480417
49205482615
49205484568
49205486582
49205488657
49205490854
49205492563
49205494394
49205496225
49205498667
49205500559
49205502512
49205504526
49205506418
49205508310
49205510325
49205512217
49205514353
49205516245
49205518503
49205520517
49205522287
49205524485
49205526133
49205528513
49205530466
49205532175
49205534433
49205536448
49205538340
49205540354
49205542185
49205544687
49205546518
49205548227
49205550180
49205551950
49205554026
49205555735
49205557505
49205559458
49205561167
49205562998
49205564707
49205566965
49205568918
49205570688
49205572580
49205574472
49205576670
49205578623
49205580393
49205582468
49205584604
49205586679
49205588632
49205590341
49205592356
49205594736
49205596567
49205598520
49205600412
49205602548
49205604196
49205605966
49205607675
49205609629
49205611460
49205613474
49205615549
49205617624
49205619516
49205621408
49205623422
49205625192
49205627329
49205629343
49205631357
49205633554
49205635446
49205637705
49205639475
49205641306
49205643442
49205645273
49205647043
49205648691
49205650888
49205653208
49205655161
49205656931
49205658945
49205661020
49205662851
49205664621
49205666208
49205668222
49205670480
49205672434
49205674265
49205676279
49205678110
49205680429
49205682382
49205684152
49205686472
49205688547
49205690866
49205692758
49205694894
49205697031
49205698984
49205700815
49205702585
49205704721
49205706369
49205708444
49205710397
49205712228
49205714304
49205715951
49205717966
49205719858
49205721933
49205723886
49205726022
49205728036
49205729745
49205731699
49205733530
49205735666
49205737985
49205740060
49205742013
49205744333
49205746103
49205748300
49205749948
49205752145
49205754037
49205755929
49205757944
49205759897
49205761850
49205763559
49205765695
49205767465
49205769113
49205771310
49205773202
49205775155
49205776742
49205778940
49205781198
49205783273
49205785287
49205787362
49205788949
49205791269
49205793039
49205795297
49205797311
49205799142
49205801217
49205803354
49205805673
49205807626
49205809518
49205811349
49205813302
49205815622
49205817575
49205819528
49205821298
49205823312
49205825204
49205827157
49205828988
49205831186
49205833139
49205834848
49205836923
49205838937
49205840829
49205843026
49205845041
49205846872
49205849069
49205850900
49205853097
49205854989
49205857003
49205859018
49205861032
49205862680
49205864694
49205866647
49205868661
49205870614
49205872262
49205874154
49205875863
49205877877
49205879953
49205881906
49205883859
49205885507
49205887338
49205889230
49205891305
49205892953
49205895211
49205897286
49205899179
49205901193
49205903146
49205905648
49205907662
49205909432
49205911386
49205913156
49205915353
49205917428
49205919259
49205921090
49205922921
49205924996
49205926583
49205928597
49205930978
49205932931
49205935006
49205937264
49205939095
49205941049
49205943002
49205945443
49205947335
49205949288
49205951241
49205953256
49205955270
49205957040
49205959237
49205961129
49205963265
49205964913
49205967049
49205969186
49205970956
49205972848
49205974862
49205976510
49205978768
49205980843
49205982613
49205984505
49205986276
49205988229
49205990304
49205992013
49205994027
49205995736
49205997628
49205999581
49206001717
49206003609
49206005502
49206007760
49206009591
49206012032
49206013985
49206016061
49206017647
49206019601
49206021859
49206023629
49206025521
49206027474
49206029305
49206031014
49206032845
49206034920
49206037057
49206038888
49206040841
49206042672
49206044442
49206046761
49206048287
49206050606
49206052437
49206054268
49206056771
49206058541
49206060799
49206062752
49206064828
49206066475
49206068429
49206070626
49206072640
49206074593
49206076546
49206078499
49206080453
49206082650
49206084359
49206086007
49206088265
49206089791
49206091866
49206093697
49206095406
49206097847
49206099495
49206101388
49206103585
49206105599
49206107674
49206109688
49206111825
49206113961
49206115731
49206117623
49206120003
49206121834
49206123970
49206126046
49206127816
49206129708
49206131539
49206133187
49206135384
49206137276
49206138924
49206140816
49206142647
49206144478
49206146553
49206148446
49206150216
49206151924
49206153633
49206155648
49206157601
49206159432
49206161324
49206163216
49206165352
49206167427
49206169381
49206171822
49206173653
49206175545
49206177559
49206180123
49206181832
49206183907
49206185982
49206187874
49206189827
49206191902
49206193795
49206195809
49206197945
49206199532
49206201668
49206203621
49206205391
49206207466
49206209603
49206211373
49206213509
49206215401
49206217293
49206219734
49206221749
49206224129
49206226021
49206228218
49206230416
49206232308
49206234383
49206236336
49206238228
49206239998
49206242012
49206244148
49206245979
49206247872
49206249764
49206251473
49206253426
49206255379
49206257515
49206259407
49206261238
49206262947
49206264778
49206266792
49206268562
49206270454
49206272408
49206274544
49206276741
49206278511
49206280769
