48982532990
48982544343
48982553254
48982557465
48982568879
48982577424
48982584443
48982595307
48982602082
48982611603
48982619843
48982626252
48982636078
48982645661
48982654084
48982660797
48982669892
48982679718
48982687409
48982693939
48982702362
48982709137
48982717926
48982725678
48982734223
48982742096
48982750275
48982757355
48982766388
48982773041
48982782867
48982788238
48982798065
48982804962
48982812286
48982820099
48982827972
48982836639
48982845428
48982854767
48982863189
48982871551
48982879608
48982888336
48982897857
48982905731
48982914337
48982921722
48982929962
48982939178
48982948455
48982955291
48982964386
48982972625
48982981231
48982987579
48982998565
48983008026
48983015655
48983023589
48983029632
48983039703
48983045562
48983055877
48983066497
48983074432
48983082854
48983091521
48983098601
48983105620
48983114959
48983124358
48983132781
48983142241
48983149077
48983158721
48983165923
48983177215
48983185393
48983194548
48983203826
48983212615
48983222319
48983229338
48983239959
48983249053
48983258269
48983266387
48983275115
48983284087
48983288481
48983299956
48983309783
48983319975
48983327361
48983336943
48983346465
48983356596
48983364775
48983374174
48983384062
48983394316
48983403654
48983413664
48983420317
48983431242
48983441191
48983450224
48983459257
48983467619
48983475493
48983484648
48983492888
48983501921
48983511564
48983518217
48983528654
48983536955
48983544157
48983550444
48983558988
48983565946
48983577604
48983585172
48983592497
48983601835
48983609281
48983616667
48983624174
48983633878
48983644071
48983653410
48983662504
48983670744
48983679594
48983690092
48983700040
48983708463
48983720975
48983729642
48983739225
48983745878
48983757352
48983764676
48983774564
48983784269
48983793058
48983802518
48983811246
48983816556
48983826932
48983836820
48983843534
48983853116
48983859708
48983868375
48983876676
48983883206
48983892606
48983901761
48983909268
48983919644
48983925992
48983934354
48983942899
48983950284
48983957669
48983969022
48983977628
48983985074
48983991482
48984000516
48984010098
48984017483
48984025418
48984035123
48984042935
48984053799
48984061307
48984068631
48984077969
48984085171
48984090420
48984102017
48984110989
48984120144
48984130215
48984134793
48984145840
48984154690
48984164456
48984174771
48984183621
48984191799
48984200588
48984208645
48984217739
48984225735
48984234097
48984240322
48984248257
48984256252
48984264736
48984271755
48984280483
48984290676
48984297207
48984307033
48984313564
48984322536
48984328945
48984337002
48984344387
48984354213
48984363857
48984372524
48984378811
48984387722
48984396999
48984405544
48984414089
48984423671
48984432399
48984439601
48984446682
48984452785
48984463039
48984470912
48984477931
48984488552
48984497890
48984508754
48984512904
48984523586
48984534267
48984544704
48984552333
48984561244
48984572841
48984581630
48984589137
48984598842
48984608485
48984617641
48984625697
48984637050
48984641994
48984650477
48984660121
48984667750
48984675807
48984685023
48984692042
48984701320
48984709132
48984716700
48984725489
48984732814
48984741664
48984749171
48984759486
48984768214
48984775965
48984784449
48984792201
48984802699
48984811732
48984819605
48984828822
48984836329
48984844325
48984852320
48984860621
48984869227
48984876917
48984886683
48984894923
48984903528
48984912012
48984920191
48984928065
48984936121
48984942957
48984950953
48984958521
48984967066
48984974817
48984982874
48984990442
48984996607
48985004847
48985012720
48985020716
48985028528
48985035242
48985043116
48985049341
48985061182
48985068994
48985074732
48985083154
48985087976
48985095056
48985099756
48985105860
48985112451
48985118738
48985123865
48985130029
48985137720
48985142175
48985148828
48985154199
48985161707
48985167261
48985172388
48985179529
48985184289
48985192712
48985200098
48985204065
48985212182
48985217126
48985223230
48985229150
48985235864
48985242151
48985247705
48985252893
48985259363
48985264978
48985270776
48985277185
48985282312
48985287988
48985292260
48985298425
48985304467
48985308496
48985316308
48985321740
48985326928
48985331445
48985336206
48985342248
48985347497
48985351586
48985357873
48985363610
48985367150
48985372705
48985378076
48985383264
48985390832
48985395043
48985400353
48985403893
48985410302
48985415185
48985420312
48985426476
48985431420
48985435571
48985440209
48985445824
48985449181
48985456322
48985461999
48985467370
48985472802
48985478539
48985482995
48985488183
48985493798
48985499779
48985503686
48985509240
48985514489
48985518883
48985524804
48985530114
48985535607
48985541161
48985546227
48985551781
48985556603
48985562157
48985567589
48985573998
48985579552
48985585045
48985589562
48985595055
48985599999
48985605370
48985610436
48985614586
48985621239
48985625939
48985629479
48985636498
48985641991
48985647911
48985654686
48985659813
48985667137
48985672325
48985676354
48985683190
48985688744
48985694908
48985700340
48985706444
48985711754
48985718834
48985722679
48985729942
48985736717
48985742332
48985748802
48985754478
48985759300
48985767357
48985771080
48985777733
48985783043
48985789024
48985794151
48985800804
48985806175
48985811424
48985818626
48985823387
48985828880
48985834739
48985839622
48985845604
48985850975
48985856529
48985863243
48985868431
48985875267
48985881248
48985885032
48985891075
48985896080
48985902671
48985909019
48985913169
48985921775
48985926658
48985932273
48985938743
48985943565
48985948509
48985955101
48985960594
48985966392
48985971885
48985978904
48985984275
48985989646
48985994468
48985999839
48986004844
48986011253
48986016380
48986021690
48986027122
48986032188
48986037254
48986041465
48986048118
48986053245
48986058555
48986063255
48986068198
48986072959
48986079063
48986085044
48986090293
48986095725
48986100181
48986105674
48986110923
48986116172
48986122336
48986125999
48986131736
48986135276
48986141746
48986145347
48986151755
48986157065
48986163901
48986169455
48986174521
48986179709
48986184775
48986190390
48986194236
48986200278
48986206076
48986211386
48986216086
48986220969
48986225058
48986232444
48986238486
48986242514
48986247946
48986252646
48986257712
48986262229
48986268942
48986273703
48986280234
48986285056
48986289877
48986296347
48986300192
48986307578
48986312216
48986318747
48986324057
48986329001
48986333945
48986339377
48986344687
48986349448
48986355124
48986361472
48986367026
48986373068
48986377280
48986384299
48986389914
48986396017
48986402121
48986407248
48986412680
48986417746
48986422751
48986428183
48986434103
48986440512
48986444784
48986449972
48986455404
48986460775
48986465963
48986470114
48986475607
48986479574
48986486227
48986491110
48986495932
48986500448
48986506186
48986512167
48986517660
48986521810
48986527426
48986532797
48986536276
48986541708
48986546408
48986551779
48986557943
48986562765
48986568197
48986573202
48986577841
48986583273
48986589620
48986595297
48986599569
48986603842
48986609152
48986613851
48986619344
48986624654
48986629903
48986635458
48986640340
48986645467
48986650411
48986655294
48986660665
48986667501
48986672872
48986677145
48986681478
48986688009
48986692770
48986697652
48986701803
48986707235
48986711507
48986716817
48986721700
48986727743
48986732137
48986737386
48986743429
48986747640
48986754293
48986759176
48986764608
48986768087
48986774801
48986779073
48986784627
48986789510
48986794210
48986799398
48986804219
48986809285
48986814473
48986820943
48986826009
48986830281
48986835836
48986841329
48986846395
48986851155
48986855794
48986861165
48986865132
48986870503
48986876424
48986881307
48986886434
48986891377
48986897237
48986901326
48986907613
48986913106
48986918599
48986923543
48986927876
48986934163
48986938435
48986944356
48986949117
48986954366
48986959248
48986964558
48986968343
48986975789
48986980794
48986986165
48986988484
48986995259
48986999776
48987005208
48987010823
48987016316
48987022114
48987026875
48987032368
48987037251
48987041707
48987047017
48987054707
48987057393
48987064290
48987068928
48987073872
48987079304
48987084797
48987091389
48987096394
48987100972
48987105671
48987111103
48987115925
48987120747
48987126179
48987132588
48987137287
48987142597
48987147419
48987152790
48987158650
48987163777
48987168904
48987173786
48987178852
48987183552
48987187824
48987192707
48987198567
48987202412
48987209675
48987214924
48987220234
48987224751
48987229572
48987234821
48987239887
48987244953
48987249897
48987255939
48987260700
48987265461
48987269184
48987274982
48987281208
48987287006
48987291035
48987296284
48987300678
48987307270
48987312275
48987317341
48987322223
48987327045
48987331745
48987336567
48987341816
48987346699
48987352802
48987357990
48987363544
48987369159
48987374286
48987379718
48987385761
48987389972
48987395832
48987401630
48987405414
48987410846
48987416095
48987421283
48987426044
48987431049
48987436969
48987441181
48987447223
48987450824
48987458209
48987462177
48987467426
48987473346
48987479144
48987484027
48987489948
48987494037
48987500079
48987505145
48987509052
48987515460
48987519611
48987525653
48987529926
48987535236
48987541400
48987546466
48987551349
48987557391
48987563617
48987567401
48987573199
48987578143
48987584003
48987588275
48987593829
48987598956
48987604327
48987608478
48987615069
48987619098
48987624591
48987630267
48987635638
48987640582
48987645404
48987651507
48987655047
48987661090
48987665667
48987672198
48987676349
48987683429
48987687640
48987693866
48987699481
48987703448
48987710040
48987715228
48987720294
48987725177
48987731951
48987736590
48987741961
48987747210
48987752642
48987757647
48987763751
48987767779
48987773577
48987778521
48987783953
48987789324
48987793292
48987796954
48987804034
48987809649
48987814654
48987821001
48987826495
48987831072
48987834734
48987841082
48987845538
48987851214
48987856707
48987861346
48987866228
48987871355
48987877215
48987881487
48987886736
48987894121
48987899920
48987904742
48987908098
48987914629
48987917437
48987924334
48987930315
48987935015
48987940264
48987945269
48987950274
48987955462
48987960405
48987966997
48987971819
48987977617
48987983782
48987988787
48987994890
48987999773
48988005510
48988011980
48988017473
48988022905
48988028459
48988034197
48988040972
48988047197
48988051897
48988057573
48988062029
48988067583
48988074053
48988079790
48988084917
48988089433
48988094621
48988100664
48988106645
48988112871
48988117815
48988124162
48988128984
48988134538
48988140215
48988145647
48988150652
48988155656
48988161577
48988167436
48988173051
48988177751
48988182878
48988189043
48988193925
48988200883
48988205949
48988211259
48988216875
48988222307
48988227373
48988233232
48988238420
48988243852
48988248857
48988253496
48988259721
48988264665
48988269975
48988276017
48988281083
48988287126
48988292497
48988297441
48988303910
48988308854
48988314408
48988320756
48988324601
48988331376
48988337297
48988342668
48988347673
48988352555
48988359269
48988364457
48988369462
48988376237
48988380692
48988387589
48988393510
48988398454
48988403886
48988408952
48988414811
48988418839
48988425309
48988430741
48988436356
48988441850
48988446915
48988452836
48988456620
48988462968
48988469498
48988475114
48988480424
48988483903
48988489945
48988495560
48988500687
48988507157
48988510880
48988516556
48988522111
48988527665
48988532609
48988536576
48988543046
48988548478
48988554459
48988558121
48988564103
48988568253
48988573746
48988578568
48988584671
48988589493
48988592850
48988598893
48988602433
48988609024
48988614762
48988620560
48988626541
48988630326
48988638077
48988644242
48988648514
48988655777
48988659867
48988665848
48988674515
48988679703
48988683731
48988692215
48988697586
48988703568
48988708878
48988714066
48988719559
48988726578
48988731461
48988738052
48988744095
48988748306
48988755875
48988761185
48988766067
48988772659
48988779312
48988784561
48988790665
48988795853
48988801773
48988807937
48988811661
48988819107
48988823929
48988829239
48988835586
48988840286
48988847427
48988852615
48988857376
48988862808
48988866836
48988873428
48988878738
48988883865
48988888992
48988894363
48988900222
48988908218
48988911758
48988917800
48988922744
48988929519
48988934402
48988940200
48988946304
48988952102
48988958145
48988964187
48988969680
48988976150
48988982009
48988985488
48988991226
48988996291
48989001418
48989006118
48989012283
48989017165
48989021011
48989027419
48989032302
48989037490
48989043655
48989048232
48989055007
48989059524
48989064712
48989069961
48989074905
48989080398
48989084609
48989091018
48989096206
48989102492
48989107375
48989110976
48989117751
48989124526
48989129348
48989134353
48989138930
48989144484
48989148208
48989154555
48989160781
48989167373
48989172133
48989176711
48989181166
48989187392
48989191481
48989197524
48989203749
48989208449
48989212294
48989218825
48989223586
48989228835
48989235488
48989240798
48989246413
48989249892
48989255751
48989260146
48989265334
48989270217
48989275771
48989281508
48989286635
48989292250
48989295851
48989301955
48989307326
48989313551
48989319594
48989324416
48989331129
48989337111
48989342055
48989348402
48989354445
48989360609
48989366530
48989371352
48989375685
48989383314
48989388197
48989393507
48989399916
48989405348
48989410414
48989415968
48989421827
48989427382
48989432814
48989438124
48989443434
48989449904
48989454725
48989460829
48989466261
48989470961
48989477552
48989482313
48989488295
48989493849
48989498487
48989504469
48989509962
48989515577
48989521437
48989525404
48989532118
48989537916
48989543043
48989549024
48989553175
48989560621
48989566114
48989570997
48989577406
48989582472
48989587843
48989592970
48989596632
48989602735
48989609754
48989615675
48989620802
48989626295
48989631178
48989637220
48989642896
48989648084
48989654737
48989659437
48989666395
48989672010
48989675916
48989683423
48989690015
48989695386
48989701673
48989706739
48989712293
48989718397
48989722181
48989728467
48989735120
48989739881
48989746717
48989750013
48989757764
48989762403
48989766492
48989773999
48989778394
48989784375
48989790967
48989795728
48989800977
48989807569
48989813184
48989818860
48989824842
48989829541
48989835645
48989841077
48989845716
48989851758
48989855603
48989862683
48989868970
48989874219
48989880567
48989886304
48989891187
48989897107
48989902722
48989908032
48989914197
48989917798
48989925427
48989930859
48989934460
48989941418
48989949658
48989955456
48989960705
48989966199
48989970959
48989976269
48989982190
48989988049
48989993909
48989998608
48990004590
48990009411
48990015332
48990021313
48990026806
48990032666
48990037304
48990042553
48990047925
48990053784
48990059399
48990065625
48990071057
48990074780
48990081128
48990085278
48990090405
48990095349
48990099987
48990105603
48990110974
48990115917
48990121472
48990126416
48990133496
48990137158
48990143688
48990148266
48990153332
48990159558
48990163464
48990168957
48990173901
48990179821
48990184765
48990188915
48990194409
48990199596
48990205212
48990210583
48990215221
48990220898
48990226452
48990231091
48990236401
48990241650
48990246899
48990252026
48990257030
48990262646
48990266979
48990272716
48990278271
48990283703
48990288952
48990294079
48990299450
48990304760
48990309826
48990315868
48990320812
48990325939
48990331493
48990336376
48990341442
48990346447
48990353038
48990357128
48990363598
48990367260
48990372509
48990378978
48990385021
48990389537
48990395214
48990400402
48990405345
48990410167
48990415355
48990420360
48990426647
48990431652
48990437206
48990442150
48990446849
48990452770
48990458690
48990463939
48990469493
48990474071
48990479076
48990484142
48990489269
48990494640
48990501231
48990506053
48990510997
48990517833
48990523448
48990529247
48990534923
48990539745
48990545543
48990551707
48990556712
48990561961
48990568309
48990572459
48990579967
48990585399
48990591441
48990598582
48990604686
48990609691
48990615855
48990622630
48990627330
48990633006
48990639110
48990643687
48990651194
48990657725
48990662364
48990668223
48990673472
48990679820
48990685191
48990688914
48990695018
48990701792
48990707286
48990713938
48990718089
48990725291
48990729502
48990734995
48990741343
48990748362
48990752940
48990758616
48990763316
48990768870
48990775157
48990780406
48990787058
48990792490
48990797984
48990803355
48990808848
48990814097
48990820506
48990825999
48990832041
48990837412
48990840891
48990848215
48990854685
48990859751
48990866160
48990870981
48990876230
48990882517
48990888621
48990894053
48990900339
48990906260
48990912119
48990918162
48990923350
48990928232
48990933909
48990938242
48990944223
48990948435
48990953623
48990959055
48990965891
48990969675
48990976816
48990979380
48990986216
48990991770
48990996958
48991001902
48991007090
48991012705
48991017221
48991022348
48991028513
48991033579
48991039011
48991044565
48991050241
48991055307
48991060373
48991065744
48991071298
48991076486
48991079904
48991086679
48991092233
48991097482
48991101633
48991107187
48991114084
48991119150
48991124277
48991129282
48991134409
48991138620
48991143869
48991148691
48991153451
48991159128
48991164438
48991169504
48991173837
48991178537
48991184762
48991189584
48991193918
48991198984
48991204294
48991209482
48991214731
48991221628
48991226205
48991231027
48991235666
48991240304
48991246652
48991251779
48991257150
48991262582
48991267892
48991272470
48991277902
48991281686
48991287606
48991295053
48991299691
48991305673
48991309274
48991315377
48991319589
48991324960
48991330087
48991334970
48991340951
48991345773
48991350533
48991355599
48991361276
48991366647
48991371835
48991376351
48991381783
48991386910
48991390511
48991396371
48991402474
48991408273
48991414071
48991418526
48991425240
48991430489
48991435677
48991440865
48991445870
48991451180
48991455331
48991460641
48991467171
48991471993
48991477852
48991481759
48991488351
48991494271
48991498849
48991503975
48991509163
48991514351
48991519845
48991524666
48991529793
48991534615
48991539681
48991543892
48991551522
48991556466
48991560921
48991566964
48991570687
48991577401
48991583260
48991589974
48991595345
48991601631
48991606453
48991613228
48991618172
48991625130
48991631722
48991635567
48991642586
48991649422
48991653450
48991662117
48991667610
48991672615
48991678658
48991683418
48991688728
48991696114
48991701973
48991707527
48991713203
48991717964
48991724983
48991729622
48991735847
48991740730
48991746956
48991752205
48991757759
48991762703
48991769905
48991775459
48991780891
48991786751
48991791694
48991797920
48991805427
48991810310
48991816536
48991820808
48991826606
48991832466
48991838264
48991843879
48991848335
48991853767
48991860603
48991865303
48991871101
48991877571
48991881538
48991889045
48991894294
48991899726
48991906379
48991911201
48991918037
48991922859
48991928718
48991934028
48991938667
48991943733
48991950019
48991953803
48991961799
48991966926
48991971687
48991978767
48991983588
48991990302
48991995734
48992000190
48992006538
48992011665
48992017585
48992023750
48992028815
48992033942
48992039680
48992044257
48992051765
48992057502
48992063666
48992068122
48992074897
48992080268
48992085029
48992090156
48992096259
48992100593
48992105964
48992112067
48992116950
48992123481
48992130256
48992135077
48992141059
48992146064
48992151923
48992157782
48992161689
48992167853
48992173346
48992178168
48992184088
48992189643
48992194525
48992202155
48992205756
48992211981
48992217475
48992222418
48992229010
48992234442
48992240119
48992245246
48992248969
48992255866
48992260016
48992267035
48992273261
48992276862
48992283331
48992289923
48992294623
48992301337
48992306708
48992311835
48992317084
48992322699
48992328436
48992333441
48992338568
48992345160
48992348883
48992355841
48992361090
48992366217
48992371832
48992376166
48992383429
48992388495
48992393133
48992400335
48992407477
48992413519
48992417303
48992424566
48992429449
48992434637
48992440069
48992444647
48992450323
48992454412
48992460699
48992466558
48992471197
48992476568
48992482244
48992487799
48992494512
48992499151
48992504461
48992510076
48992515142
48992519049
48992524603
48992531683
48992537603
48992542242
48992546453
48992551641
48992558233
48992563970
48992569891
48992575872
48992581121
48992586248
48992591131
48992595647
48992600591
48992607488
48992611272
48992617254
48992622930
48992627080
48992632696
48992637640
48992645208
48992650152
48992655218
48992660161
48992665899
48992670598
48992676031
48992681463
48992685857
48992692510
48992697332
48992701909
48992707342
48992712407
48992718206
48992724126
48992728765
48992733770
48992738958
48992744329
48992748174
48992755498
48992761541
48992767827
48992773076
48992779546
48992782109
48992791692
48992796453
48992801702
48992808232
48992812932
48992818486
48992824773
48992830937
48992836308
48992841374
48992846196
48992852605
48992859441
48992864812
48992870366
48992875981
48992882695
48992887639
48992893010
48992899052
48992905217
48992910832
48992917546
48992921941
48992928166
48992934880
48992939152
48992947087
48992953557
48992958317
48992965214
48992970830
48992975712
48992981572
48992987736
48992993107
48992998967
48993002995
48993009465
48993014958
48993019719
48993026433
48993031498
48993037175
48993044011
48993047551
48993055180
48993060429
48993065190
48993070439
48993075627
48993082585
48993087712
48993091557
48993098210
48993103886
48993108952
48993114933
48993120976
48993125981
48993132633
48993136296
48993142704
48993148319
48993152958
48993159245
48993164921
48993170536
48993177189
48993182682
48993187870
48993193729
48993199955
48993205509
48993210880
48993216129
48993222355
48993229191
48993233829
48993239445
48993243168
48993249027
48993254276
48993259586
48993266056
48993271305
48993277042
48993282413
48993287906
48993293583
48993297733
48993303348
48993307804
48993313175
48993317630
48993323185
48993329410
48993335025
48993340641
48993345829
48993350528
48993356022
48993359928
48993366336
48993371769
48993376895
48993381778
48993387332
48993392154
48993397708
48993402957
48993406742
48993414188
48993419315
48993423892
48993429202
48993433170
48993440860
48993445438
48993450748
48993454959
48993461734
48993466617
48993472598
48993478946
48993483585
48993488895
48993493045
48993498172
48993504153
48993509097
48993514102
48993519473
48993524722
48993529239
48993534610
48993539615
48993544986
48993552371
48993557925
48993563724
48993568484
48993573184
48993579226
48993583133
48993589114
48993592715
48993598819
48993602481
48993608951
48993613467
48993618960
48993625491
48993631472
48993635501
48993641177
48993646121
48993652163
48993657595
48993662417
48993666018
48993672244
48993676028
48993682070
48993687014
48993692691
48993698733
48993703494
48993708621
48993714175
48993719363
48993723818
48993729251
48993733279
48993738955
48993744265
48993748904
48993754214
48993759036
48993764590
48993771060
48993776125
48993781680
48993786990
48993791018
48993796145
48993801943
48993806704
48993812075
48993817629
48993821352
48993827761
48993833376
48993838381
48993844485
48993849978
48993855227
48993860842
48993866213
48993870302
48993875490
48993881350
48993886965
48993892336
48993895998
48993902285
48993905703
48993911379
48993916384
48993923403
48993929323
48993933352
48993940554
48993945864
48993951235
48993957766
48993962282
48993969667
48993975832
48993982180
48993987307
48993992861
48993997316
48994005739
48994011965
48994016786
48994022035
48994029787
48994034181
48994041872
48994047304
48994052065
48994057863
48994063905
48994068910
48994075624
48994080385
48994086794
48994091127
48994097047
48994102907
48994107423
48994113222
48994118532
48994124208
48994130006
48994135499
48994140260
48994146486
48994152284
48994157472
48994163881
48994169496
48994175050
48994180055
48994185487
48994191163
48994196107
48994201845
48994208070
48994213868
48994219240
48994224489
48994231202
48994237428
48994243226
48994248475
48994254823
48994260987
48994265870
48994273133
48994278993
48994284303
48994290101
48994295655
48994301637
48994306642
48994312684
48994318727
48994324891
48994330567
48994335877
48994341004
48994347901
48994353639
48994359864
48994364625
48994370606
48994376160
48994381959
48994385804
48994392518
48994397340
48994403382
48994409852
48994414918
48994420838
48994426697
48994432557
48994438233
48994443726
48994449341
48994456177
48994461304
48994467896
48994474061
48994477845
48994485596
48994492737
48994498475
48994503480
48994507081
48994513916
48994519043
48994524292
48994530213
48994534119
48994540345
48994544007
48994551087
48994556458
48994560547
48994567383
48994571472
48994578003
48994583008
48994587097
48994593201
48994598084
48994603150
48994608032
48994613831
48994618714
48994623779
48994629090
48994634155
48994638855
48994644409
48994649536
48994654114
48994658692
48994664917
48994670044
48994673523
48994679016
48994685669
48994690857
48994696594
48994700073
48994708618
48994714294
48994719482
48994725342
48994731201
48994735474
48994743286
48994748718
48994754455
48994760559
48994764709
48994771179
48994777527
48994783874
48994789123
48994794800
48994799438
48994805786
48994811340
48994816101
48994821411
48994827453
48994832580
48994838562
48994844909
48994849914
48994856079
48994860900
48994866149
48994872619
48994877685
48994883972
48994889099
48994895629
48994901123
48994905151
48994911621
48994916809
48994922668
48994927123
48994934020
48994938598
48994943664
48994949645
48994954589
48994959472
48994966064
48994971740
48994977355
48994982116
48994988525
48994993468
48994999084
48995003905
48995009582
48995015563
48995021850
48995027282
48995033630
48995039672
48995044311
48995050780
48995055846
48995061400
48995066527
48995070251
48995076781
48995081725
48995087645
48995094298
48995098815
48995104369
48995110900
48995116088
48995122252
48995126830
48995133544
48995139891
48995145812
48995153075
48995157408
48995164305
48995169188
48995174926
48995180175
48995186034
48995191344
48995197692
48995201232
48995208007
48995212828
48995218688
48995224242
48995228758
48995234740
48995240294
48995244139
48995249877
48995256835
48995261534
48995266600
48995273131
48995277953
48995283385
48995287413
48995294127
48995301146
48995307005
48995312193
48995316283
48995323363
48995327940
48995333739
48995337828
48995343260
48995347594
48995354124
48995359129
48995364500
48995370115
48995376402
48995380491
48995385679
48995391173
48995396116
48995401610
48995405455
48995412047
48995416685
48995422056
48995427671
48995432554
48995439512
48995443480
48995449705
48995454710
48995460630
48995466001
48995471128
48995477232
48995480833
48995486814
48995490721
48995497007
48995501890
48995506834
48995512876
48995518858
48995523313
48995527769
48995534117
48995539243
48995543150
48995549680
48995555967
48995561094
48995566160
48995571470
48995576963
48995581358
48995587339
48995591856
48995598081
48995603757
48995608945
48995614622
48995618650
48995624753
48995630430
48995634519
48995640073
48995645200
48995650266
48995655210
48995661924
48995666807
48995672361
48995677366
48995682615
48995687192
48995692197
48995697507
48995702512
48995707395
48995712400
48995717832
48995723142
48995728330
48995734372
48995739560
48995745115
48995749143
48995755551
48995760190
48995765805
48995769956
48995775632
48995781125
48995785703
48995790769
48995796567
48995801877
48995807126
48995812985
48995818051
48995824155
48995829526
48995835019
48995838986
48995845761
48995850888
48995855954
48995863400
48995868527
48995874020
48995880246
48995885434
48995891660
48995896542
48995900327
48995907346
48995913144
48995918698
48995926449
48995932248
48995937009
48995943356
48995948117
48995954770
48995960263
48995965207
48995971310
48995976559
48995982480
48995988217
48995993954
48995999997
48996006344
48996012143
48996017331
48996024044
48996029293
48996036251
48996042416
48996048397
48996054501
48996059933
48996065731
48996071835
48996075741
48996082455
48996088192
48996092221
48996099789
48996104489
48996110287
48996115414
48996120846
48996126278
48996132260
48996136898
48996143429
48996148495
48996153317
48996160153
48996165096
48996171871
48996176876
48996182308
48996188412
48996194088
48996200130
48996206661
48996212765
48996218014
48996223385
48996228207
48996233822
48996239315
48996245907
48996252559
48996258968
48996263912
48996270748
48996277218
48996281917
48996288692
48996293514
48996298397
48996304683
48996309383
48996316463
48996321651
48996326534
48996332821
48996338802
48996342708
48996350521
48996355648
48996361263
48996366695
48996371517
48996377071
48996381710
48996389034
48996393733
48996399043
48996404293
48996408565
48996414668
48996419734
48996425655
48996429866
48996435848
48996439510
48996446285
48996449947
48996455745
48996462398
48996467830
48996473506
48996479793
48996485957
48996491939
48996496577
48996501521
48996507991
48996513362
48996518123
48996523128
48996527949
48996533259
48996537105
48996544917
48996549190
48996554561
48996560481
48996565364
48996570186
48996575252
48996581599
48996585750
48996592341
48996595942
48996602473
48996606685
48996611934
48996617854
48996623469
48996629268
48996634333
48996640864
48996644831
48996652522
48996658015
48996662776
48996668269
48996674311
48996678889
48996683528
48996688227
48996695063
48996700923
48996705317
48996710749
48996715632
48996721125
48996726313
48996731318
48996737238
48996742365
48996747187
48996752070
48996758234
48996762995
48996767329
48996773982
48996780329
48996785639
48996790339
48996795832
48996800776
48996805842
48996809626
48996817377
48996822138
48996827387
48996832026
48996837458
48996842890
48996848566
48996854304
48996859492
48996864252
48996869196
48996875361
48996881586
48996886896
48996892634
48996897638
48996903437
48996908625
48996915278
48996920282
48996926142
48996933100
48996938288
48996943537
48996948786
48996954096
48996959467
48996965204
48996969171
48996975885
48996981867
48996986383
48996992792
48996997553
48997004083
48997009393
48997014398
48997019586
48997025934
48997031305
48997036493
48997041864
48997047601
48997052972
48997058344
48997062250
48997069086
48997073175
48997080011
48997083795
48997090753
48997096246
48997102289
48997107416
48997112665
48997117670
48997123041
48997128778
48997134393
48997140314
48997145685
48997151361
48997156366
48997163385
48997166803
48997174615
48997180719
48997184564
48997190728
48997195550
48997201165
48997205804
48997211358
48997218683
48997224420
48997230340
48997234674
48997240289
48997245050
48997252374
48997258477
48997264581
48997268975
48997275079
48997280755
48997285638
48997291009
48997296197
48997301263
48997306573
48997312798
48997318353
48997322015
48997329278
48997334527
48997338982
48997344232
48997349969
48997356377
48997361382
48997366753
48997372063
48997378655
48997383904
48997387872
48997394463
48997398309
48997405450
48997411309
48997416680
48997422051
48997427117
48997432793
48997438103
48997443963
48997449700
48997455498
48997461114
48997465142
48997471306
48997477105
48997483025
48997488335
48997493828
48997499932
48997504937
48997510064
48997513787
48997520501
48997527153
48997532891
48997538506
48997543511
48997549675
48997553398
48997559563
48997565300
48997570854
48997575554
48997582573
48997587700
48997591484
48997598442
48997604424
48997610222
48997616265
48997621391
48997627617
48997631340
48997638115
48997643913
48997649407
48997654594
48997660576
48997665215
48997670158
48997675713
48997679619
48997687553
48997692192
48997697624
48997701958
48997707207
48997712028
48997717583
48997723564
48997729973
48997735405
48997739067
48997744499
48997749931
48997755302
48997760917
48997765617
48997770378
48997777397
48997783317
48997790397
48997794975
48997801628
48997806633
48997812004
48997817070
48997822441
48997828910
48997833244
48997839714
48997845085
48997850334
48997856071
48997861564
48997866569
48997872245
48997878654
48997884086
48997889701
48997893485
48997900382
48997905326
48997910941
48997916801
48997921928
48997928336
48997932182
48997938651
48997943168
48997949027
48997955924
48997961173
48997966544
48997970451
48997976676
48997981620
48997987296
48997992728
48997998771
48998004264
48998009269
48998015922
48998020316
48998025931
48998032828
48998038199
48998044547
48998048270
48998054862
48998059134
48998064750
48998072135
48998077140
48998082084
48998087088
48998092704
48998098563
48998104239
48998110099
48998115287
48998121634
48998125357
48998131888
48998136100
48998142997
48998149466
48998154654
48998159293
48998164359
48998170096
48998174002
48998181571
48998187308
48998192435
48998196951
48998201895
48998207877
48998211844
48998218375
48998223136
48998230277
48998234549
48998239615
48998246451
48998250418
48998256888
48998262320
48998268240
48998273489
48998278616
48998285147
48998287711
48998295035
48998301627
48998306937
48998312552
48998317435
48998322928
48998326834
48998333487
48998338858
48998344778
48998350393
48998355581
48998362417
48998367178
48998373099
48998378531
48998384085
48998390371
48998395132
48998400442
48998405264
48998410391
48998414358
48998420645
48998426260
48998431692
48998436087
48998441397
48998446341
48998451345
48998456961
48998462149
48998467520
48998472219
48998476919
48998481802
48998486990
48998493643
48998499380
48998503774
48998509268
48998513906
48998519399
48998524526
48998529531
48998536367
48998542104
48998546377
48998551809
48998557180
48998561636
48998567007
48998572683
48998577871
48998582937
48998587820
48998592214
48998597707
48998602529
48998607961
48998615224
48998619985
48998625478
48998629812
48998635366
48998639699
48998645254
48998650014
48998657033
48998661855
48998666616
48998671743
48998676687
48998681814
48998687795
48998693349
48998697744
48998703359
48998708120
48998713491
48998718129
48998723500
48998729177
48998734304
48998739858
48998744802
48998750661
48998754201
48998759511
48998765615
48998771108
48998775380
48998780751
48998785085
48998790517
48998795766
48998800771
48998807485
48998811513
48998818044
48998822743
48998828114
48998832143
48998837453
48998844472
48998849538
48998854726
48998859670
48998864674
48998869618
48998874745
48998880055
48998886037
48998890431
48998895863
48998900014
48998905446
48998911305
48998916066
48998923207
48998928151
48998933339
48998938161
48998943287
48998947072
48998953480
48998957814
48998965382
48998969716
48998975209
48998980214
48998985646
48998990712
48998995778
48999001088
48999006276
48999011219
48999016591
48999020924
48999026417
48999032215
48999038258
48999043812
48999050282
48999055287
48999061268
48999064747
48999072499
48999079579
48999083424
48999089833
48999093922
48999101185
48999106373
48999112049
48999118458
48999123829
48999130665
48999135426
48999141407
48999146351
48999151539
48999157398
48999162525
48999167835
48999173511
48999179127
48999183948
48999189625
48999195606
48999200672
48999206165
48999211048
48999217335
48999222278
48999227894
48999233631
48999238636
48999243641
48999248829
48999255543
48999260547
48999266285
48999271473
48999276600
48999283130
48999286976
48999293811
48999298938
48999304615
48999311267
48999316333
48999320911
48999326038
48999331470
48999337146
48999342762
48999347644
48999354602
48999359485
48999364368
48999369678
48999373645
48999381030
48999386341
48999392078
48999397815
48999402942
48999408069
48999413074
48999419238
48999424732
48999431873
48999437183
48999442127
48999447315
48999452319
48999458362
48999462878
48999469836
48999475330
48999480334
48999485522
48999490649
48999496631
48999500598
48999507495
48999512439
48999517993
48999523486
48999528552
48999534595
48999538623
48999545642
48999550647
48999556384
48999562793
48999567798
48999572680
48999578906
48999584826
48999590014
48999595630
48999601123
48999606189
48999611377
48999617236
48999622973
48999627673
48999633288
48999638476
48999644885
48999650012
48999654162
48999661364
48999666674
48999672290
48999675891
48999682910
48999687365
48999692614
48999699267
48999704760
48999710681
48999714526
48999721362
48999726916
48999732775
48999737841
48999743639
48999749255
48999753832
48999759509
48999764574
48999770007
48999775988
48999780260
48999786486
48999789965
48999793932
48999797350
48999802904
48999807787
48999812609
48999816454
48999820116
48999823839
48999828234
48999831591
48999836596
48999841540
48999845263
48999849291
48999853319
48999856371
48999861315
48999865343
48999869555
48999873400
48999878222
48999882494
48999886339
48999891466
48999895372
48999900316
48999904223
48999909594
48999912951
48999917101
48999922411
48999926622
48999931200
48999935289
48999939745
48999942858
48999947557
48999953600
48999957140
48999962816
48999966478
48999970934
48999975023
48999979112
48999983629
48999986864
48999992540
48999996385
49000000597
49000004747
49000008837
49000013963
49000017565
49000023058
49000027269
49000031175
49000035753
49000038866
49000044298
49000047655
49000052599
49000056261
49000061632
49000065416
49000069688
49000074510
49000079149
49000083604
49000087572
49000091905
49000094774
49000099473
49000104967
49000108446
49000114122
49000116380
49000122484
49000125963
49000130784
49000136583
49000140855
49000145372
49000149217
49000154832
49000157091
49000162706
49000168321
49000173753
49000178819
49000183702
49000190416
49000196763
49000202562
49000207322
49000211900
49000215562
49000221116
49000225084
49000230577
49000236009
49000240159
49000248216
49000252488
49000258775
49000265122
49000269578
49000273484
49000279832
49000282762
49000289720
49000294480
49000300706
49000305161
49000311021
49000315598
49000320115
49000326219
49000331773
49000337205
49000342149
49000347337
49000352952
49000356858
49000363206
49000368333
49000374802
49000381516
49000386094
49000393784
49000398911
49000404526
49000410142
49000418442
49000423630
49000431138
49000437241
49000442917
49000451035
49000457688
49000464585
49000469590
49000479905
49000488144
49000495530
49000500595
49000510727
49000515488
49000525315
49000531967
49000540879
49000548508
49000555588
49000561569
49000568283
49000575424
49000579697
49000589523
49000594101
49000605332
49000612656
49000620285
49000625900
49000633469
49000639694
49000645920
49000652817
49000658066
49000670273
49000672531
49000683029
49000689316
49000697494
49000703598
49000710556
49000717209
49000725754
49000733261
49000737472
49000747787
49000752243
49000761459
49000767624
49000774093
49000780441
49000788070
49000798874
49000802047
49000813400
49000817916
49000827499
49000832199
49000841598
49000848983
49000856918
49000863327
49000871749
49000877731
49000881637
49000890121
49000896346
49000904525
49000912032
49000922042
49000928756
49000936385
49000943649
49000950973
49000958114
49000961654
49000969955
49000976852
49000985397
49000991927
49001000350
49001006332
49001013534
49001019759
49001022262
49001034163
49001040938
49001048507
49001057845
49001064376
49001071700
49001078414
49001086226
49001092757
49001097457
49001105086
49001114241
49001120101
49001126448
49001134810
49001141402
49001147139
49001154769
49001161299
49001169783
49001176802
49001184920
49001191268
49001199873
49001205672
49001212080
49001218611
49001227705
49001229842
49001241438
49001248335
49001256026
49001263350
49001270796
49001278365
49001282759
49001293379
49001300703
49001305647
49001313154
49001318648
49001331282
49001335859
49001344343
49001350447
49001358931
49001366743
49001371687
49001382246
49001387739
49001397444
49001404646
49001412458
49001419966
49001424421
49001433699
49001440229
49001447309
49001454817
49001464826
49001470625
49001477278
49001486311
49001492780
49001495039
49001506208
49001510542
49001521406
49001528547
49001538435
49001545576
49001547651
49001559309
49001565900
49001572919
49001579572
49001587018
49001592512
49001599531
49001608869
49001615888
49001623151
49001631391
49001635724
49001644330
49001651227
49001658429
49001666242
49001671552
49001683454
49001688153
49001697187
49001707441
49001712995
49001721479
49001731610
49001737592
49001745221
49001754132
49001761823
49001765180
49001775311
49001779645
49001789655
49001796308
49001801618
49001811505
49001818402
49001826276
49001831525
49001839703
49001846173
49001852948
49001860333
49001864728
49001873517
49001882733
49001890729
49001898053
49001904767
49001910504
49001916974
49001924847
49001931378
49001938397
49001946026
49001950970
49001960125
49001967389
49001975262
49001982098
49001988263
49001995892
49002002667
49002008465
49002016583
49002023297
49002033917
49002038250
49002047100
49002053509
49002059124
49002066937
49002073834
49002082623
49002089642
49002098553
49002105877
49002112347
49002117901
49002124676
49002131878
49002140911
49002147137
49002152813
49002160564
49002172466
49002179363
49002184002
49002191570
49002199993
49002205669
49002212139
49002218365
49002225933
49002236065
49002242534
49002249004
49002256267
49002263286
49002269634
49002277752
49002284221
49002292278
49002301982
49002312297
49002319927
49002322063
49002333171
49002337871
49002348125
49002354900
49002361736
49002369243
49002375163
49002384258
49002391216
49002400005
49002408000
49002416362
49002424297
49002432048
49002440288
49002445232
49002457317
49002464824
49002473491
49002479900
49002486003
49002493449
49002499980
49002505839
49002513469
49002520610
49002529216
49002533427
49002543437
49002551738
49002569560
49002580363
49002598857
49002611613
49002632731
49002644572
49002662760
49002676249
49002691874
49002709635
49002724772
49002737772
49002751871
49002771220
49002791544
49002803263
49002818705
49002831156
49002844217
49002863871
49002880960
49002895121
49002909525
49002924906
49002934488
49002957437
49002965616
49002986856
49002999185
49003021036
49003033548
49003050943
49003064615
49003081094
49003100320
49003115945
49003130655
49003149209
49003164224
49003177652
49003194497
49003214456
49003230020
49003238381
49003257791
49003267861
49003289529
49003304177
49003321145
49003336465
49003352944
49003371133
49003384377
49003404030
49003421242
49003435708
49003448830
49003469399
49003483315
49003500283
49003513039
49003533181
49003550148
49003566811
49003578102
49003595924
49003605080
49003626686
49003641090
49003662758
49003671120
49003693031
49003705971
49003720375
49003733864
49003752601
49003766029
49003781898
49003793190
49003807838
49003825355
49003842323
49003855750
49003870948
49003888404
49003899452
49003918128
49003929359
49003948829
49003960670
49003980567
49003993140
49004007789
49004021766
49004039954
49004057166
49004071753
49004090064
49004105506
49004114661
49004136511
49004144568
49004163123
49004175086
49004198035
49004212195
49004228613
49004242102
49004259558
49004273962
49004288916
49004308447
49004323950
49004342260
49004354529
49004373571
49004389196
49004402868
49004419653
49004433996
49004444921
49004462499
49004476476
49004491796
49004499426
49004517126
49004522131
49004530248
49004540258
49004547155
49004555883
49004564184
49004572790
49004577184
49004586095
49004593297
49004601598
49004610143
49004615880
49004628759
49004633886
49004643895
49004651037
49004659765
49004668248
49004673131
49004684240
49004691320
49004698339
49004706395
49004711278
49004722509
49004727269
49004737157
49004744054
49004751073
49004759007
49004763646
49004773045
49004783238
49004788304
49004796910
49004801366
49004811803
49004817906
49004824803
49004831273
49004840977
49004849705
49004854893
49004865514
49004871617
49004878514
49004884679
49004891453
49004898839
49004908421
49004914036
49004923619
49004933629
49004940587
49004946446
49004954319
49004961033
49004968052
49004975010
49004985447
49005000767
49005011998
49005019993
49005025914
49005035618
49005040684
49005050266
49005054783
49005065525
49005072056
49005079991
49005086826
49005094883
49005100742
49005105747
49005116062
49005129856
49005136143
49005142918
49005150791
49005157322
49005164646
49005172214
49005181553
49005187229
49005197361
49005203892
49005210422
49005217502
49005225498
49005230076
49005238865
49005246067
49005253818
49005261020
49005267307
49005274082
49005279941
49005287815
49005293796
49005296665
49005306369
49005312290
49005334079
49005344333
49005358554
49005369113
49005385471
49005393222
49005410190
49005422275
49005431308
49005444308
49005455173
49005470065
49005473666
49005492099
49005501498
49005515964
49005525973
49005539889
49005549106
49005560519
49005568881
49005580355
49005588412
49005599704
49005606295
49005615512
49005624972
49005631869
49005640841
49005644930
49005657443
49005662814
49005671969
49005680758
49005690707
49005697115
49005706332
49005712801
49005721896
49005726168
49005737215
49005748080
49005755648
49005762545
49005769198
49005775301
49005781100
49005787752
49005792879
49005801241
49005805758
49005813448
49005819979
49005825838
49005832674
49005839327
49005847933
49005854830
49005861483
49005868135
49005874605
49005881502
49005888643
49005896700
49005903780
49005911592
49005919283
49005927645
49005935030
49005943575
49005950655
49005957918
49005963655
49005971346
49005976351
49005985567
49005990450
49005998811
49006005220
49006013155
49006022371
49006030183
49006038484
49006043977
49006053377
49006059053
49006070039
49006075410
49006083040
49006090425
49006097993
49006104829
49006110628
49006118928
49006125276
49006131929
49006136506
49006144929
49006150972
49006156160
49006162141
49006171724
49006178437
49006184114
49006191133
49006197358
49006202363
49006207490
49006212068
49006217073
49006222322
49006226533
49006230622
49006235017
49006240144
49006244355
49006249604
49006253449
49006258088
49006262483
49006267610
49006271516
49006276582
49006280000
49006284089
49006289460
49006293549
49006297822
49006303376
49006306306
49006311921
49006316254
49006318452
49006324677
49006329682
49006332368
49006337495
49006341645
49006346528
49006350617
49006355195
49006359162
49006362336
49006366975
49006372101
49006377228
49006381318
49006385651
49006390778
49006395051
49006398591
49006402375
49006408051
49006412934
49006415803
49006420136
49006424469
49006428132
49006432892
49006437409
49006441193
49006445710
49006449616
49006453827
49006458649
49006462189
49006467011
49006471161
49006475983
49006481415
49006485016
49006490143
49006494782
49006499237
49006502289
49006507721
49006511750
49006516938
49006520478
49006525421
49006529328
49006533112
49006538483
49006543488
49006546845
49006551911
49006556000
49006560517
49006565521
49006568695
49006574677
49006578278
49006582977
49006586762
49006590912
49006594818
49006600494
49006605194
49006608795
49006612701
49006616974
49006622040
49006627045
49006631195
49006636139
49006639374
49006644867
49006649383
49006653717
49006658050
49006663971
49006668548
49006673126
49006677521
49006682037
49006686188
49006690460
49006694671
49006699981
49006702484
49006707611
49006711761
49006717682
49006722687
49006726654
49006730560
49006735016
49006739410
49006743805
49006749176
49006753021
49006756805
49006760711
49006767303
49006772003
49006777130
49006781097
49006785675
49006790008
49006793426
49006797576
49006801666
49006806732
49006811676
49006815948
49006821990
49006827728
49006831634
49006835479
49006840545
49006844818
49006849578
49006854888
49006860870
49006865386
49006870513
49006874114
49006879363
49006883819
49006887969
49006892486
49006895538
49006901031
49006904815
49006909454
49006914581
49006918609
49006922149
49006927276
49006931182
49006936065
49006941436
49006946136
49006950286
49006954314
49006957732
49006962371
49006966521
49006971526
49006976836
49006979949
49006985137
49006989898
49006993377
49007000030
49007003997
49007008574
49007014373
49007018279
49007023101
49007027434
49007031768
49007035491
49007040252
49007045012
49007049224
49007052642
49007056487
49007060210
49007063933
49007066924
49007070403
49007075103
49007078460
49007082122
49007085784
49007088897
49007091887
49007096465
49007100859
49007104033
49007108489
49007111907
49007115874
49007119414
49007123503
49007126067
49007129668
49007134429
49007138457
49007143096
49007147063
49007150115
49007154082
49007157256
49007161711
49007165312
49007169219
49007172392
49007175871
49007179900
49007182280
49007187224
49007190581
49007194548
49007198027
49007202238
49007205595
49007208830
49007213103
49007217558
49007221587
49007225981
49007229277
49007233488
49007237334
49007241728
49007245512
49007248930
49007252531
49007256377
49007260161
49007263823
49007269072
49007272002
49007274077
49007279204
49007284209
49007287443
49007291105
49007295439
49007299467
49007302580
49007305754
49007309111
49007312346
49007315458
49007318632
49007322722
49007326811
49007329680
49007333403
49007336454
49007339933
49007342558
49007345915
49007349028
49007352201
49007355558
49007359037
49007361845
49007365446
49007368315
49007372221
49007375761
49007378752
49007381803
49007384550
49007388029
49007391508
49007393766
49007396940
49007399321
49007403044
49007406584
49007409269
49007411894
49007414274
49007417326
49007419401
49007421659
49007425443
49007428251
49007430693
49007433256
49007436064
49007438688
49007441435
49007443876
49007446623
49007449125
49007451566
49007453336
49007456205
49007458585
49007461271
49007463468
49007466520
49007469877
49007472624
49007475797
49007478483
49007480680
49007483732
49007486051
49007489225
49007491605
49007494352
49007496977
49007500333
49007503202
49007506254
49007508817
49007511808
49007514249
49007516691
49007519498
49007522672
49007524992
49007527250
49007529813
49007532560
49007534879
49007537199
49007540067
49007543241
49007545682
49007548551
49007550443
49007553251
49007555448
49007557706
49007560941
49007563505
49007566007
49007568448
49007571378
49007574064
49007576383
49007579069
49007581815
49007584379
49007587308
49007589750
49007592374
49007595670
49007598234
49007601102
49007603788
49007606107
49007609281
49007611783
49007614408
49007616666
49007620450
49007623319
49007625943
49007628507
49007631315
49007633390
49007636380
49007639249
49007642850
49007645169
49007647672
49007649991
49007652555
49007655179
49007658353
49007661039
49007664029
49007666654
49007669339
49007672086
49007674894
49007677213
49007679776
49007682096
49007684598
49007687162
49007690030
49007692777
49007695584
49007698148
49007700894
49007703580
49007706327
49007708890
49007711576
49007714139
49007716641
49007719815
49007722562
49007724942
49007727994
49007730374
49007732877
49007735379
49007738431
49007740689
49007742887
49007745328
49007747708
49007750028
49007752042
49007754239
49007756192
49007758756
49007760587
49007762235
49007764432
49007766507
49007768399
49007770535
49007772550
49007774442
49007776456
49007778409
49007780301
49007782071
49007784085
49007786771
49007788663
49007790616
49007792630
49007794522
49007796780
49007798611
49007800443
49007802518
49007804837
49007806973
49007808926
49007810880
49007813077
49007814725
49007816739
49007818265
49007820462
49007822842
49007824795
49007826566
49007828397
49007830289
49007832242
49007834073
49007835965
49007837796
49007839688
49007841702
49007843777
49007845914
49007847867
49007849820
49007851712
49007853665
49007855801
49007857754
49007859646
49007861478
49007863492
49007865506
49007867459
49007869839
49007871487
49007873562
49007876004
49007877896
49007879727
49007881619
49007883633
49007885525
49007887417
49007889676
49007891629
49007893460
49007895352
49007897183
49007899380
49007901333
49007903348
49007905118
49007907193
49007909207
49007911160
49007913418
49007915310
49007917202
49007919400
49007921170
49007923611
49007925564
49007927395
49007929471
49007931180
49007933438
49007935391
49007937466
49007939175
49007941067
49007942654
49007944851
49007946560
49007948513
49007950528
49007952420
49007954251
49007956387
49007958218
49007960293
49007962246
49007964260
49007966458
49007968472
49007970547
49007972561
49007974331
49007978237
49007981411
49007984768
49007988552
49007992153
49007994961
49007998623
49008002224
49008005154
49008009182
49008012417
49008016262
49008020230
49008023770
49008026577
49008028652
49008030483
49008032925
49008034817
49008036648
49008038479
49008040554
49008042446
49008044399
49008046719
49008048550
49008050503
49008052883
49008054836
49008057095
49008059048
49008061123
49008063015
49008064785
49008066860
49008068569
49008070889
49008072781
49008074429
49008076504
49008078274
49008080166
49008082058
49008084133
49008085842
49008087734
49008089565
49008091579
49008093533
49008095486
49008097256
49008099453
49008101284
49008103054
49008105007
49008107021
49008109280
49008111294
49008113064
49008115139
49008116848
49008119167
49008120937
49008122829
49008124477
49008126247
49008128384
49008130215
49008132168
49008134121
49008135952
49008137661
49008139675
49008141811
49008143703
49008145718
49008147488
49008149746
49008151882
49008153835
49008155727
49008157986
49008160061
49008162502
49008164333
49008166286
49008168667
49008170315
49008172390
49008174465
49008176418
49008178737
49008180691
49008182705
49008184780
49008186611
49008188625
49008190517
49008192409
49008194362
49008196377
49008198330
49008200222
49008202480
49008204128
49008206753
49008208584
49008210476
49008212917
49008214870
49008217006
49008218837
49008220485
49008223049
49008224941
49008226894
49008228664
49008230800
49008232753
49008234890
49008236660
49008238613
49008240566
49008242397
49008244472
49008246486
49008248195
49008250148
49008251918
49008253933
49008256191
49008257961
49008259853
49008261745
49008263637
49008266079
49008267849
49008270168
49008272121
49008274257
49008276088
49008278102
49008280361
49008282253
49008284267
49008286098
49008287929
49008290004
49008292202
49008294277
49008296108
49008298122
49008300136
49008301906
49008304042
49008305873
49008307643
49008310085
49008312099
49008314235
49008316310
49008318569
49008320766
49008322658
49008324977
49008326991
49008329128
49008331020
49008333095
49008335353
49008337123
49008339260
49008341152
49008342800
49008345424
49008347194
49008349086
49008351100
49008352931
49008354946
49008356654
49008358791
49008360805
49008362758
49008364406
49008366603
49008368739
49008370632
49008372463
49008374416
49008376430
49008378688
49008380641
49008382594
49008384670
49008386989
49008388698
49008390712
49008392604
49008394618
49008396693
49008398463
49008400539
49008402492
49008404445
49008406337
49008408290
49008410304
49008412379
49008414333
49008416164
49008417995
49008419826
49008422389
49008424281
49008426234
49008428126
49008430507
49008432338
49008434413
49008436488
49008438319
49008440578
49008442531
49008444484
49008446803
49008448512
49008450648
49008452418
49008454738
49008456569
49008458400
49008460353
49008462367
49008464381
49008466151
49008468165
49008470119
49008472011
49008473903
49008475673
49008477504
49008479396
49008481166
49008483180
49008485011
49008487575
49008489589
49008491542
49008493495
49008495570
49008497951
49008499965
49008501796
49008503871
49008505580
49008507533
49008509486
49008511317
49008513392
49008515284
49008517116
49008519069
49008520961
49008522670
49008524562
49008526393
49008528468
49008530421
49008532374
49008534388
49008536525
49008538417
49008540614
49008542628
49008544764
49008546717
49008548610
49008550502
49008552638
49008555018
49008556849
49008559047
49008560817
49008562709
49008564784
49008566493
49008568446
49008570460
49008572352
49008574366
49008576197
49008578089
49008579921
49008581935
49008584010
49008586024
49008588221
49008589930
49008591944
49008594020
49008595668
49008597926
49008599757
49008601710
49008603907
49008605799
49008608241
49008609889
49008612025
49008613856
49008615626
49008617518
49008619593
49008621424
49008623500
49008625392
49008626917
49008629176
49008631251
49008633082
49008635035
49008636988
49008638941
49008641139
49008642970
49008644862
49008646815
49008648829
49008650965
49008652979
49008655360
49008657069
49008659022
49008661280
49008663050
49008665492
49008667262
49008669032
49008670985
49008673182
49008675257
49008677088
49008678919
49008681056
49008683070
49008685084
49008687159
49008689051
49008690882
49008692835
49008695277
49008697291
49008699305
49008701258
49008703394
49008705225
49008707240
49008709315
49008711390
49008713465
49008715418
49008717493
49008719630
49008721522
49008723475
49008725367
49008727137
49008729334
49008731165
49008733363
49008735194
49008736842
49008738917
49008740748
49008742762
49008744837
49008746729
49008748499
49008750330
49008752405
49008754542
49008756495
49008758326
49008760279
49008762659
49008764429
49008766382
49008768275
49008770228
49008772425
49008774134
49008776392
49008778406
49008780420
49008782313
49008784388
49008786341
49008788294
49008790186
49008792200
49008794336
49008796106
49008797999
49008800013
49008802027
49008804346
49008806299
49008808008
49008809778
49008811915
49008814417
49008816126
49008817957
49008820215
49008822107
49008823938
49008825953
49008828150
49008830408
49008832361
49008834253
49008836329
49008838587
49008840540
49008842676
49008844385
49008846277
49008848475
49008850550
49008852442
49008854334
49008856348
49008858728
49008860498
49008862452
49008864405
49008866419
49008868555
49008870569
49008873011
49008874903
49008877039
49008879053
49008880945
49008883020
49008884729
49008886743
49008888880
49008890650
49008892847
49008894617
49008896509
49008898401
49008900171
49008902063
49008903894
49008906153
49008908289
49008909754
49008911829
49008913843
49008916406
49008918360
49008920313
49008922266
49008924463
49008926843
49008928613
49008930445
49008932520
49008934412
49008936426
49008938623
49008940271
49008942163
49008944116
49008945947
49008947778
49008950159
49008951990
49008953760
49008955713
49008957971
49008960046
49008962000
49008963892
49008966150
49008968469
49008970239
49008972559
49008974817
49008976648
49008978601
49008980493
49008983057
49008984888
49008986841
49008989099
49008990991
49008993189
49008995203
49008997156
49008999170
49009001184
49009003259
49009005090
49009006982
49009008874
49009010767
49009012476
49009014551
49009016382
49009018762
49009020593
49009022546
49009024560
49009026636
49009028650
49009030664
49009032739
49009035120
49009037317
49009039270
49009041223
49009043237
49009045007
49009046960
49009048974
49009050928
49009052820
49009054773
49009056787
49009058557
49009061120
49009063196
49009065027
49009067163
49009069116
49009071252
49009073205
49009075220
49009077173
49009078943
49009081201
49009083154
49009085351
49009087366
49009089380
49009091455
49009093469
49009095605
49009097619
49009099267
49009101404
49009103418
49009105371
49009107507
49009109460
49009111291
49009113366
49009115259
49009117273
49009119226
49009121057
49009122827
49009125390
49009127160
49009129236
49009131250
49009133630
49009135339
49009137353
49009139550
49009141504
49009143579
49009145349
49009147363
49009149499
49009151452
49009153283
49009155114
49009157556
49009159570
49009161401
49009163476
49009165307
49009167199
49009169152
49009171044
49009173181
49009175073
49009177148
49009179162
49009181237
49009183374
49009185083
49009186975
49009189050
49009191247
49009193505
49009195397
49009196923
49009199060
49009201196
49009203027
49009204736
49009206567
49009208337
49009210290
49009211999
49009213769
49009215783
49009217858
49009219689
49009221581
49009223718
49009225732
49009227624
49009229577
49009231469
49009233850
49009235620
49009237634
49009239648
49009241723
49009243798
49009245690
49009247949
49009249719
49009251794
49009253686
49009255639
49009257897
49009260156
49009262170
49009264245
49009266076
49009267907
49009269982
49009271996
49009273950
49009275964
49009277917
49009279809
49009281701
49009283654
49009285485
49009287377
49009289269
49009291528
49009293298
49009295556
49009297265
49009299157
49009301293
49009303551
49009305566
49009307580
49009309594
49009311730
49009313744
49009315758
49009317834
49009319421
49009321496
49009323510
49009325219
49009327172
49009328942
49009330712
49009332726
49009334618
49009336510
49009338402
49009340111
49009342065
49009344018
49009345971
49009348046
49009349999
49009351891
49009354211
49009356286
49009358544
49009360497
49009362572
49009364525
49009366479
49009368249
49009370324
49009372277
49009374169
49009376000
49009378258
49009380028
49009382165
49009383874
49009386376
49009388024
49009389977
49009391808
49009393761
49009396264
49009398339
49009400170
49009402306
49009404259
