49130478961
49130484272
49130489948
49130496173
49130501117
49130507892
49130513935
49130519794
49130525958
49130529743
49130536762
49130543964
49130550495
49130557086
49130563373
49130568683
49130576984
49130585040
49130591327
49130599017
49130605426
49130611285
49130619708
49130627765
49130633746
49130641315
49130646136
49130652423
49130658282
49130666888
49130673480
49130681170
49130687640
49130693072
49130699725
49130707049
49130714557
49130721515
49130730243
49130737689
49130745257
49130751971
49130758319
49130765216
49130772479
49130779864
49130787310
49130792620
49130802203
49130809771
49130817156
49130825884
49130833087
49130839922
49130849993
49130855853
49130864764
49130872576
49130878375
49130886126
49130893877
49130900713
49130907976
49130915423
49130923601
49130930498
49130937151
49130946306
49130951922
49130961382
49130967730
49130974322
49130983294
49130990679
49130998308
49131006609
49131013018
49131021074
49131028704
49131036150
49131043535
49131050371
49131057817
49131066240
49131071672
49131079851
49131087786
49131094744
49131101580
49131108354
49131115373
49131121782
49131128557
49131137468
49131145342
49131151628
49131158098
49131165544
49131174577
49131179399
49131189714
49131195512
49131204240
49131211137
49131217546
49131225481
49131231401
49131241106
49131246843
49131253862
49131261735
49131268327
49131275285
49131283952
49131291215
49131297563
49131305681
49131311662
49131319536
49131327226
49131334245
49131343278
49131350541
49131358659
49131366593
49131374284
49131380448
49131387712
49131394120
49131403214
49131412736
49131418229
49131426591
49131433305
49131443253
49131451249
49131458878
49131467606
49131477311
49131487199
49131494462
49131502396
49131510941
49131518204
49131527787
49131536088
49131547013
49131555131
49131563798
49131572709
49131580338
49131589982
49131597672
49131605729
49131614090
49131623063
49131631974
49131640580
49131649674
49131659134
49131665726
49131677384
49131685379
49131693680
49131703812
49131710404
49131719986
49131727432
49131735611
49131745438
49131753983
49131762589
49131769302
49131779495
49131786270
49131795609
49131803726
49131813919
49131819473
49131830521
49131839249
49131847977
49131856033
49131863479
49131875808
49131883072
49131892837
49131898025
49131908828
49131918106
49131926895
49131936599
49131943985
49131952713
49131963028
49131970962
49131979324
49131988784
49131997329
49132005996
49132014846
49132024124
49132032241
49132039565
49132049270
49132055251
49132066848
49132076675
49132085708
49132093093
49132100356
49132109023
49132114455
49132127334
49132136306
49132144607
49132153457
49132162307
49132172378
49132177321
49132190627
49132197219
49132205642
49132217177
49132221938
49132233107
49132242263
49132250441
49132259902
49132268752
49132276503
49132283461
49132291274
49132298476
49132309645
49132320632
49132328688
49132336379
49132344985
49132353957
49132359999
49132370619
49132377394
49132386916
49132394606
49132401259
49132408644
49132415785
49132424147
49132431105
49132439467
49132446913
49132454664
49132462172
49132470656
49132478590
49132487501
49132495131
49132502882
49132510695
49132518080
49132526075
49132537428
49132547560
49132555616
49132563490
49132571241
49132579298
49132585829
49132594801
49132600538
49132609754
49132617384
49132626295
49132633009
49132643141
49132649183
49132660230
49132668348
49132676099
49132684888
49132693494
49132700513
49132708997
49132717969
49132727430
49132735181
49132744031
49132752942
49132761609
49132769483
49132780408
49132786512
49132793836
49132800428
49132808973
49132814649
49132820020
49132826978
49132832593
49132838208
49132845044
49132849744
49132857434
49132862500
49132868116
49132874402
49132881055
49132886121
49132892285
49132897840
49132903699
49132908093
49132915723
49132922254
49132927991
49132933606
49132936963
49132946118
49132952588
49132955640
49132964307
49132969861
49132975781
49132982312
49132987378
49132992505
49132999707
49133003735
49133009961
49133016309
49133020703
49133026929
49133031567
49133038647
49133044018
49133050854
49133055798
49133060803
49133065137
49133075451
49133083447
49133091321
49133098767
49133104687
49133110791
49133117077
49133122509
49133129467
49133134411
49133141308
49133146252
49133152844
49133157849
49133164563
49133168713
49133175793
49133180554
49133185742
49133192333
49133197888
49133202526
49133208569
49133213696
49133218823
49133225292
49133230724
49133236584
49133241100
49133247570
49133253124
49133257763
49133263561
49133267529
49133273388
49133279369
49133284496
49133291759
49133296764
49133301647
49133308605
49133313000
49133319897
49133323437
49133330517
49133335949
49133341015
49133347606
49133352062
49133357128
49133363354
49133369823
49133375255
49133380871
49133386303
49133391918
49133399242
49133404430
49133409679
49133415477
49133421337
49133427196
49133430187
49133438610
49133444957
49133449535
49133455883
49133460643
49133465404
49133472362
49133478649
49133483715
49133488964
49133494090
49133499767
49133506481
49133512584
49133518749
49133524181
49133530223
49133536022
49133541332
49133546764
49133553172
49133559276
49133563976
49133570018
49133574046
49133580089
49133586681
49133591624
49133596324
49133602428
49133607432
49133612254
49133617747
49133623302
49133629222
49133634959
49133640391
49133644481
49133650340
49133655650
49133661326
49133667430
49133672496
49133677745
49133682811
49133686168
49133693492
49133699351
49133705760
49133710704
49133714854
49133720042
49133727000
49133732493
49133738169
49133743418
49133747630
49133753184
49133757884
49133764109
49133769419
49133774790
49133780528
49133785533
49133790232
49133795115
49133803416
49133807749
49133812876
49133818736
49133823679
49133826609
49133832774
49133838450
49133844004
49133850169
49133855662
49133862009
49133866282
49133873362
49133876536
49133883982
49133889841
49133895151
49133900156
49133905344
49133911692
49133915659
49133923472
49133927805
49133934458
49133940134
49133944895
49133949228
49133954172
49133960642
49133964243
49133969858
49133975840
49133980662
49133985911
49133990671
49133994516
49134001780
49134005747
49134011972
49134014963
49134022165
49134027292
49134032297
49134037241
49134042185
49134048716
49134054331
49134060190
49134066965
49134072519
49134076975
49134084116
49134088571
49134093942
49134099069
49134103159
49134109201
49134114145
49134119699
49134124887
49134130869
49134135935
49134140817
49134145273
49134150400
49134156625
49134161325
49134167612
49134170786
49134177560
49134181650
49134187448
49134192209
49134198984
49134203561
49134208505
49134214487
49134219308
49134223703
49134228769
49134234628
49134239267
49134244882
49134249154
49134255441
49134259469
49134265451
49134272409
49134277353
49134282846
49134287729
49134293405
49134298776
49134303537
49134307321
49134315194
49134320749
49134325509
49134328439
49134335275
49134340829
49134345834
49134352426
49134356698
49134362313
49134367990
49134373117
49134377206
49134383126
49134387338
49134393563
49134399240
49134404183
49134409432
49134414376
49134418832
49134423776
49134430062
49134435922
49134441415
49134445626
49134450753
49134454842
49134461190
49134464242
49134471871
49134476205
49134481332
49134487252
49134492867
49134498543
49134504342
49134509591
49134515877
49134519723
49134525887
49134530648
49134536812
49134540597
49134548165
49134551522
49134557564
49134562386
49134567940
49134573433
49134578316
49134583626
49134589058
49134594979
49134598824
49134604927
49134610238
49134614571
49134618294
49134626412
49134629891
49134635628
49134639717
49134646187
49134652047
49134656990
49134662911
49134667794
49134673348
49134677132
49134683174
49134687203
49134693184
49134697884
49134704781
49134710274
49134715462
49134719978
49134724922
49134730049
49134735054
49134741463
49134745857
49134751289
49134755318
49134761726
49134766731
49134772224
49134775642
49134783821
49134788887
49134794014
49134801826
49134805061
49134813057
49134818550
49134823860
49134829964
49134835762
49134841194
49134845711
49134852241
49134856697
49134862861
49134868171
49134873115
49134878242
49134883125
49134889229
49134892891
49134900886
49134905403
49134909980
49134913643
49134920784
49134924873
49134930793
49134935737
49134942207
49134947212
49134951911
49134956977
49134961250
49134967475
49134971321
49134978523
49134982917
49134988105
49134992134
49134998176
49135003974
49135008918
49135013069
49135019843
49135025703
49135029609
49135035346
49135040595
49135045417
49135049690
49135055976
49135060554
49135067268
49135072272
49135077216
49135081245
49135088020
49135093940
49135098151
49135104011
49135108039
49135114387
49135118415
49135123908
49135129462
49135136298
49135141486
49135146369
49135151557
49135155707
49135161750
49135165473
49135173713
49135178046
49135183844
49135188849
49135193793
49135196845
49135203376
49135208747
49135214972
49135220221
49135225165
49135230719
49135234381
49135239936
49135245795
49135251532
49135256293
49135262946
49135265753
49135273383
49135277472
49135282294
49135289008
49135293036
49135298529
49135303839
49135308661
49135313971
49135319281
49135323615
49135330512
49135334723
49135339667
49135344855
49135350104
49135355475
49135360541
49135366888
49135371405
49135376349
49135381720
49135387701
49135390753
49135396735
49135401007
49135408453
49135413946
49135419440
49135425665
49135430304
49135436773
49135442023
49135449591
49135454230
49135459417
49135465887
49135471686
49135476935
49135481329
49135488287
49135493109
49135498724
49135501532
49135508368
49135513189
49135518133
49135525274
49135528997
49135534246
49135539190
49135545111
49135549566
49135554632
49135558416
49135565618
49135570745
49135576116
49135581610
49135586553
49135591436
49135596441
49135602789
49135608404
49135613653
49135617681
49135623602
49135627569
49135633367
49135637640
49135645269
49135649786
49135654729
49135660650
49135665472
49135670843
49135674444
49135681585
49135686040
49135692083
49135696294
49135702398
49135707036
49135711858
49135717718
49135722722
49135728460
49135733282
49135737920
49135742742
49135748601
49135754217
49135759649
49135764104
49135770574
49135776006
49135780950
49135785527
49135791814
49135796819
49135802678
49135808233
49135811467
49135818975
49135823919
49135828862
49135833867
49135839666
49135845708
49135848455
49135856023
49135859685
49135866399
49135872502
49135878118
49135883367
49135886968
49135893498
49135897710
49135903813
49135908513
49135914067
49135920232
49135925237
49135929387
49135935429
49135939580
49135944402
49135951848
49135955754
49135962407
49135966374
49135972478
49135975407
49135982732
49135986088
49135992985
49135999150
49136004094
49136008244
49136013005
49136018864
49136024418
49136030095
49136034245
49136040532
49136045353
49136050236
49136055668
49136060429
49136067387
49136072453
49136077031
49136081852
49136089604
49136097660
49136104741
49136111088
49136121525
49136129277
49136136967
49136144718
49136151249
49136160465
49136168461
49136176823
49136184025
49136192326
49136199711
49136208134
49136217289
49136227482
49136234135
49136240299
49136246037
49136252018
49136258366
49136264896
49136270939
49136278995
49136284733
49136289799
49136295658
49136301029
49136306583
49136311588
49136315800
49136322147
49136325077
49136332401
49136338871
49136342960
49136349003
49136355167
49136359379
49136364872
49136368107
49136375736
49136381229
49136386539
49136391056
49136396244
49136401310
49136405643
49136413028
49136418644
49136423709
49136429019
49136433902
49136438236
49136443058
49136450138
49136454593
49136460391
49136464298
49136470279
49136474307
49136480655
49136486209
49136492435
49136497074
49136501956
49136506900
49136511783
49136518070
49136522708
49136530582
49136535403
49136540225
49136544009
49136550601
49136555606
49136559756
49136566714
49136571353
49136577518
49136581729
49136586673
49136590762
49136597415
49136603702
49136608707
49136614200
49136620120
49136626224
49136630862
49136637088
49136643069
49136648074
49136653750
49136660037
49136665591
49136669680
49136676089
49136681765
49136686709
49136691531
49136697696
49136704593
49136709353
49136714968
49136718203
49136725772
49136731204
49136735171
49136741641
49136745669
49136750796
49136755496
49136762454
49136767886
49136773257
49136777957
49136783084
49136788760
49136791873
49136799624
49136805422
49136810061
49136814822
49136820376
49136826357
49136829592
49136836062
49136841738
49136846499
49136852969
49136856936
49136862185
49136865542
49136873232
49136878420
49136883913
49136889529
49136894656
49136900637
49136905703
49136910952
49136917483
49136922426
49136927126
49136932558
49136936709
49136943667
49136950564
49136956179
49136961977
49136966616
49136971499
49136976748
49136981630
49136988955
49136994387
49136999453
49137005983
49137012697
49137018251
49137024721
49137029909
49137035219
49137042238
49137047487
49137052431
49137059145
49137063051
49137070253
49137075197
49137080568
49137086489
49137092653
49137097231
49137103517
49137107485
49137113893
49137117433
49137125490
49137131410
49137135561
49137142397
49137147890
49137151552
49137158693
49137163881
49137169008
49137174318
49137179079
49137184206
49137190309
49137196535
49137202028
49137207704
49137212343
49137217164
49137222536
49137228212
49137234498
49137239686
49137244203
49137247255
49137255006
49137260011
49137263856
49137271302
49137276124
49137281434
49137286134
49137292115
49137296510
49137302980
49137308473
49137315004
49137319581
49137325013
49137329774
49137334901
49137338929
49137346315
49137352174
49137356751
49137362611
49137366151
49137372804
49137378968
49137385377
49137390504
49137395143
49137400392
49137405885
49137411378
49137417237
49137422059
49137428773
49137433656
49137441773
49137447999
49137452882
49137459290
49137464356
49137470887
49137476380
49137481385
49137486695
49137492432
49137499207
49137504578
49137510499
49137516419
49137521912
49137528809
49137534363
49137539551
49137545594
49137550782
49137557129
49137562684
49137568299
49137574280
49137580018
49137585450
49137591370
49137596009
49137602662
49137608033
49137614075
49137620423
49137625977
49137630982
49137638489
49137644959
49137649842
49137654785
49137658936
49137666260
49137671692
49137676880
49137682984
49137689148
49137694275
49137700501
49137706299
49137711609
49137717163
49137721314
49137726868
49137731995
49137736939
49137743958
49137750305
49137755615
49137761108
49137764221
49137770447
49137777283
49137783386
49137788330
49137794678
49137798584
49137805542
49137808716
49137816223
49137821594
49137825744
49137831116
49137836975
49137842712
49137849243
49137854431
49137859375
49137865356
49137870605
49137875671
49137881897
49137886108
49137892578
49137896179
49137902954
49137907104
49137913452
49137916503
49137924194
49137929565
49137934509
49137939331
49137944335
49137949523
49137955200
49137960449
49137964172
49137970825
49137974792
49137980834
49137985412
49137990844
49137996093
49138001098
49138006530
49138011352
49138017333
49138021117
49138027038
49138032897
49138038879
49138043700
49138049194
49138054504
49138059570
49138064574
49138069518
49138076049
49138081176
49138085448
49138090331
49138095458
49138100463
49138106811
49138111327
49138118346
49138121764
49138128295
49138134032
49138138976
49138144896
49138149596
49138155883
49138161681
49138166015
49138171447
49138176329
49138181578
49138186766
49138191100
49138198546
49138202513
49138208007
49138214110
49138218932
49138223815
49138229369
49138235045
49138239501
49138245299
49138249388
49138254820
49138258849
49138264647
49138270384
49138275572
49138281066
49138285948
49138290953
49138295958
49138302184
49138306212
49138312254
49138316771
49138322264
49138328124
49138332884
49138338194
49138343626
49138347289
49138354063
49138358702
49138363646
49138369749
49138375182
49138379515
49138383787
49138391295
49138396300
49138401366
49138406553
49138411619
49138416502
49138421507
49138427611
49138433470
49138438353
49138443602
49138448301
49138453611
49138458372
49138462889
49138471006
49138476194
49138480894
49138485594
49138490599
49138496214
49138501280
49138507811
49138512327
49138517454
49138522947
49138527098
49138532713
49138537046
49138541502
49138549497
49138554930
49138559873
49138564573
49138569334
49138574583
49138580442
49138586668
49138591367
49138596983
49138601194
49138607176
49138612119
49138618223
49138623838
49138627988
49138634458
49138638609
49138644468
49138649839
49138654539
49138658445
49138666807
49138672300
49138677183
49138682188
49138687192
49138692197
49138696958
49138702024
49138707273
49138712949
49138718259
49138722776
49138728025
49138732419
49138736997
49138743284
49138749021
49138754026
49138759458
49138764402
49138769712
49138774717
49138780088
49138786069
49138791013
49138796323
49138801328
49138805417
49138811155
49138815610
49138822446
49138827024
49138832944
49138838010
49138842893
49138848203
49138853208
49138859067
49138864987
49138870358
49138874509
49138880063
49138884091
49138890622
49138894406
49138902158
49138908017
49138913205
49138918820
49138922910
49138929501
49138932797
49138940854
49138945737
49138950681
49138955563
49138960324
49138966672
49138971371
49138978818
49138982297
49138989377
49138992306
49138998349
49139003964
49139008786
49139016110
49139019955
49139026059
49139031613
49139036191
49139040463
49139046322
49139050656
49139057492
49139060666
49139067257
49139072812
49139077816
49139083126
49139086789
49139093441
49139099362
49139104000
49139109433
49139115048
49139119992
49139124813
49139130184
49139135433
49139141598
49139145382
49139151303
49139156552
49139160702
49139166317
49139172360
49139177548
49139182919
49139187863
49139192806
49139197628
49139202511
49139209225
49139213497
49139219601
49139223202
49139229916
49139234127
49139240231
49139243404
49139250851
49139255245
49139260799
49139266476
49139271358
49139276241
49139281063
49139288265
49139292599
49139298092
49139302242
49139307979
49139311947
49139318599
49139324459
49139329647
49139335750
49139339596
49139345821
49139351192
49139356197
49139360653
49139367183
49139372493
49139377987
49139383602
49139388363
49139393489
49139398433
49139404415
49139410152
49139414852
49139420223
49139425594
49139429744
49139435787
49139438777
49139446407
49139451839
49139456722
49139461727
49139466670
49139471675
49139477290
49139482784
49139486873
49139493648
49139497676
49139503047
49139507076
49139513118
49139519161
49139524410
49139530391
49139536617
49139543391
49139549739
49139555415
49139561031
49139566280
49139572200
49139576289
49139582088
49139586909
49139592403
49139598323
49139603328
49139609859
49139615474
49139621272
49139625667
49139632747
49139638057
49139642878
49139649348
49139654597
49139660029
49139665767
49139670771
49139676692
49139682124
49139687861
49139692683
49139698115
49139703120
49139707881
49139715022
49139720271
49139725154
49139730525
49139735591
49139740779
49139745600
49139750239
49139758174
49139762385
49139768550
49139773737
49139778742
49139784052
49139787837
49139794978
49139799677
49139804804
49139808466
49139815608
49139820673
49139825129
49139830744
49139837519
49139842402
49139847407
49139853510
49139857233
49139863520
49139867121
49139874934
49139879328
49139885248
49139888361
49139894587
49139900934
49139905939
49139911127
49139916132
49139921442
49139926935
49139932917
49139938349
49139943354
49139946589
49139954462
49139960260
49139964106
49139969782
49139975092
49139979792
49139985712
49139991083
49139995905
49140002314
49140007807
49140013239
49140017939
49140022821
49140028986
49140033197
49140039423
49140044672
49140049677
49140053888
49140058832
49140063165
49140070429
49140076288
49140081293
49140085932
49140090692
49140095392
49140100336
49140107233
49140111993
49140117548
49140121759
49140127557
49140131525
49140137445
49140144220
49140149164
49140154352
49140158014
49140163934
49140169244
49140174005
49140179864
49140185724
49140191522
49140196405
49140199212
49140205560
49140211358
49140216241
49140221979
49140227838
49140232965
49140238275
49140242669
49140248468
49140252740
49140257440
49140264276
49140269830
49140274652
49140279596
49140284539
49140290155
49140295404
49140301812
49140306207
49140312677
49140316766
49140322625
49140326654
49140332635
49140335992
49140344415
49140348931
49140353814
49140358697
49140363641
49140369500
49140375054
49140380364
49140384759
49140390496
49140394647
49140401055
49140407342
49140412225
49140417840
49140423272
49140428216
49140433587
49140438165
49140443352
49140448235
49140454034
49140459832
49140465447
49140470330
49140475762
49140480645
49140485345
49140490105
49140496453
49140500481
49140506341
49140512383
49140517083
49140521050
49140526848
49140531487
49140539055
49140543267
49140549248
49140553154
49140558159
49140564080
49140569756
49140574883
49140579644
49140585198
49140589470
49140596306
49140601250
49140606133
49140611992
49140618218
49140623284
49140628655
49140633293
49140638481
49140643730
49140648308
49140654289
49140658989
49140665642
49140668511
49140674919
49140680168
49140684929
49140691948
49140695854
49140702141
49140705864
49140711906
49140717217
49140722404
49140727226
49140733025
49140738823
49140743767
49140748405
49140753227
49140759087
49140764152
49140770256
49140775017
49140779961
49140785393
49140790581
49140794670
49140800712
49140806267
49140812004
49140817497
49140822441
49140827263
49140832206
49140838066
49140841728
49140848564
49140854362
49140859916
49140862907
49140869560
49140875908
49140880790
49140885856
49140891044
49140896537
49140902275
49140907768
49140912040
49140916923
49140921257
49140927909
49140931327
49140939323
49140943839
49140948661
49140954521
49140958183
49140964347
49140970268
49140975761
49140979850
49140985221
49140989250
49140995536
49141001334
49141006583
49141011894
49141016654
49141022941
49141027274
49141033561
49141036796
49141044303
49141049552
49141054496
49141059745
49141064933
49141069572
49141074454
49141082755
49141087211
49141093009
49141096061
49141102469
49141106742
49141113578
49141117850
49141124991
49141129142
49141133964
49141139274
49141144156
49141150016
49141153922
49141161246
49141165885
49141171805
49141177298
49141182181
49141187735
49141192679
49141197806
49141202994
49141208243
49141213614
49141218070
49141223502
49141228751
49141233145
49141239432
49141244620
49141250235
49141255850
49141260794
49141265250
49141270194
49141277030
49141281302
49141287405
49141291739
49141296439
49141301871
49141307486
49141311819
49141318716
49141324393
49141329398
49141333609
49141339712
49141343924
49141348807
49141354483
49141360342
49141365164
49141369009
49141375723
49141379874
49141385977
49141389029
49141396902
49141401480
49141406485
49141412222
49141416983
49141421560
49141426565
49141432547
49141438101
49141442801
49141446890
49141453116
49141457266
49141463430
49141468740
49141473928
49141479544
49141485342
49141489675
49141494497
49141499685
49141504751
49141511465
49141517446
49141522756
49141526785
49141533193
49141536184
49141543447
49141546865
49141554556
49141560049
49141565664
49141571829
49141576406
49141583547
49141589712
49141594961
49141600820
49141606130
49141612112
49141616018
49141622610
49141628835
49141634389
49141638540
49141644582
49141649831
49141654287
49141658559
49141665029
49141670400
49141675405
49141680959
49141685842
49141691274
49141696584
49141702505
49141708120
49141713857
49141719167
49141723989
49141729970
49141734975
49141739431
49141744497
49141750905
49141755544
49141761159
49141765249
49141770742
49141777028
49141781911
49141787221
49141792287
49141797841
49141802846
49141807729
49141812795
49141818105
49141823659
49141829763
49141834279
49141840199
49141844289
49141850514
49141855824
49141860646
49141864125
49141872487
49141878346
49141883901
49141889394
49141894093
49141902028
49141907338
49141912648
49141918690
49141923940
49141929189
49141934743
49141940175
49141944325
49141951100
49141956715
49141962331
49141966542
49141972706
49141975697
49141981801
49141989369
49141994496
49141999562
49142005604
49142012257
49142015736
49142023732
49142028798
49142033986
49142040028
49142043629
49142049977
49142054127
49142060109
49142066151
49142071827
49142077626
49142082692
49142087513
49142093251
49142098255
49142103321
49142109486
49142114308
49142120106
49142124195
49142130726
49142136036
49142140980
49142148060
49142153248
49142159352
49142163685
49142169666
49142175465
49142180348
49142186268
49142191700
49142197559
49142203541
49142208729
49142214222
49142219410
49142224720
49142230640
49142236317
49142240528
49142246265
49142251514
49142256458
49142263294
49142267506
49142274036
49142277943
49142283192
49142288746
49142294605
49142297474
49142304737
49142308094
49142316150
49142320972
49142326038
49142330677
49142335621
49142342334
49142348194
49142352893
49142358142
49142362842
49142368579
49142372852
49142377369
49142384143
49142389270
49142394336
49142399768
49142404651
49142410388
49142414173
49142421253
49142427051
49142432727
49142437000
49142442371
49142447437
49142452381
49142457996
49142463306
49142469226
49142474658
49142482044
49142486438
49142492725
49142498218
49142504932
49142509326
49142514758
49142520007
49142524097
49142530566
49142533679
49142541247
49142546313
49142551257
49142556872
49142561938
49142567126
49142570788
49142578174
49142582995
49142587878
49142593371
49142598071
49142602160
49142608447
49142613513
49142619189
49142624621
49142629687
49142635730
49142639575
49142644946
49142650012
49142656360
49142660998
49142666613
49142670764
49142676196
49142680590
49142686328
49142692919
49142697985
49142702990
49142708056
49142713122
49142718188
49142723437
49142729052
49142734851
49142739550
49142744982
49142749438
49142755114
49142759936
49142764819
49142771838
49142777148
49142782031
49142786852
49142791796
49142796740
49142802660
49142807238
49142813280
49142817858
49142825060
49142829882
49142834887
49142840075
49142845202
49142851977
49142856676
49142862658
49142866808
49142872484
49142877184
49142882860
49142888659
49142895067
49142899462
49142904406
49142910509
49142914171
49142919298
49142924791
49142930773
49142935289
49142941454
49142944262
49142950548
49142954638
49142960924
49142967089
49142972033
49142978380
49142982164
49142987535
49142992357
49142997545
49143003221
49143009569
49143012804
49143019823
49143024462
49143029283
49143034532
49143039537
49143045702
49143049669
49143055650
49143061022
49143066148
49143069750
49143076097
49143082018
49143087999
49143093004
49143097826
49143100755
49143107713
49143112779
49143117662
49143124437
49143128282
49143133775
49143139024
49143144151
49143148363
49143153856
49143160570
49143165636
49143169054
49143176378
49143181932
49143186937
49143191575
49143196519
49143203599
49143208238
49143212999
49143218675
49143224290
49143227342
49143233323
49143240220
49143245286
49143250535
49143255540
49143260606
49143265489
49143271409
49143275193
49143282212
49143286607
49143293138
49143297471
49143302964
49143307542
49143313096
49143319200
49143325425
49143329820
49143334702
49143339768
49143344651
49143350022
49143355515
49143361741
49143366868
49143371934
49143376939
49143381822
49143384873
49143392197
49143397752
49143403062
49143408250
49143413682
49143418259
49143423508
49143428086
49143433640
49143439500
49143444871
49143450303
49143455125
49143460007
49143465562
49143470750
49143476365
49143482163
49143487168
49143491196
49143496079
49143501328
49143507126
49143512192
49143517930
49143521286
49143528000
49143530930
49143538865
49143543015
49143547898
49143553696
49143557480
49143563462
49143569138
49143573838
49143579270
49143583786
49143587571
49143594528
49143598618
49143604660
49143609299
49143614853
49143620102
49143624924
49143629318
49143636337
49143641525
49143647263
49143653977
49143659897
49143665085
49143671311
49143676193
49143683456
49143687912
49143694016
49143698349
49143704208
49143709213
49143716782
49143721420
49143727463
49143731735
49143736679
49143742111
49143745712
49143753586
49143757980
49143763473
49143767563
49143773178
49143777267
49143783188
49143789413
49143796127
49143801071
49143806503
49143811813
49143817917
49143822799
49143828354
49143833481
49143839340
49143844894
49143850265
49143855270
49143860763
49143863998
49143871688
49143878402
49143882186
49143889083
49143893417
49143901657
49143906967
49143912155
49143917892
49143923568
49143929000
49143934616
49143939865
49143944442
49143951339
49143956832
49143962997
49143968124
49143973007
49143977645
49143982772
49143988754
49143992599
49143998153
49144003402
49144008346
49144012496
49144018783
49144024520
49144031356
49144036544
49144041427
49144046676
49144050338
49144055648
49144060653
49144067916
49144072127
49144077865
49144081954
49144087813
49144092330
49144097945
49144105208
49144110152
49144116012
49144121627
49144126632
49144133223
49144139022
49144145247
49144150679
49144156417
49144161300
49144165938
49144170821
49144175826
49144181319
49144188338
49144193404
49144197615
49144201705
49144207808
49144213729
49144218489
49144224349
49144229659
49144234480
49144239302
49144244490
49144250960
49144256270
49144260787
49144267867
49144270918
49144278120
49144281111
49144288191
49144291670
49144298323
49144303938
49144309187
49144314558
49144319868
49144324690
49144328291
49144334822
49144339217
49144345381
49144350386
49144355330
49144360762
49144366194
49144371443
49144376204
49144382918
49144386824
49144392683
49144396284
49144402327
49144406538
49144412459
49144416975
49144423811
49144429304
49144434858
49144440290
49144445112
49144449629
49144454573
49144461287
49144465498
49144471235
49144475447
49144481245
49144485395
49144491865
49144497419
49144503828
49144507978
49144512861
49144518415
49144523664
49144528547
49144532209
49144539106
49144543867
49144550031
49144555219
49144560835
49144566084
49144571027
49144577253
49144582319
49144587751
49144592695
49144598310
49144601911
49144607526
49144613020
49144619062
49144622114
49144628950
49144633161
49144639326
49144644453
49144649274
49144656293
49144660749
49144666303
49144671125
49144676618
49144681867
49144686750
49144691266
49144697492
49144701581
49144707685
49144710676
49144717939
49144720929
49144728071
49144732465
49144738630
49144743634
49144748822
49144753339
49144758954
49144764020
49144768354
49144775312
49144778302
49144786115
49144789167
49144795880
49144798749
49144805646
49144811261
49144816144
49144820966
49144825971
49144831952
49144835797
49144841901
49144845807
49144851849
49144856183
49144863812
49144869367
49144874616
49144879254
49144884076
49144889752
49144893475
49144899335
49144904401
49144910138
49144915448
49144920087
49144924603
49144930646
49144934857
49144940777
49144944989
49144950909
49144956402
49144961590
49144967389
49144972394
49144978741
49144984295
49144991376
49144994427
49145001996
49145007977
49145013287
49145018780
49145022870
49145029156
49145033246
49145039837
49145046429
49145050457
49145057049
49145061444
49145068341
49145073040
49145080853
49145085308
49145090740
49145096478
49145101361
49145106732
49145112042
49145116070
49145122235
49145129009
49145132305
49145138226
49145142498
49145148541
49145154217
49145159588
49145166363
49145170330
49145176251
49145181500
49145186626
49145190289
49145196392
49145200909
49145207989
49145213299
49145218182
49145223003
49145227947
49145233074
49145237957
49145244427
49145249920
49145254253
49145259624
49145265179
49145269329
49145275554
49145281231
49145287700
49145291729
49145297710
49145302715
49145306560
49145313030
49145316875
49145323528
49145328167
49145334270
49145338421
49145344524
49145349651
49145354717
49145361370
49145366680
49145372051
49145375835
49145381328
49145386333
49145392009
49145397869
49145403118
49145407817
49145414531
49145417705
49145423625
49145428569
49145433879
49145440044
49145445537
49145450969
49145455669
49145461528
49145466838
49145472270
49145477153
49145483623
49145486858
49145493999
49145498882
49145503703
49145508281
49145513164
49145519084
49145529643
49145534160
49145538982
49145545451
49145550090
49145556499
49145560649
49145567485
49145572307
49145577189
49145582316
49145587260
49145592753
49145598369
49145603801
49145607951
49145613139
49145617106
49145624003
49145627299
49145634135
49145640300
49145644206
49145649211
49145654094
49145659404
49145664469
49145671305
49145676005
49145681437
49145685771
49145691386
49145695475
49145701518
49145704753
49145712870
49145717570
49145722697
49145729350
49145733622
49145740458
49145745158
49145751139
49145756632
49145761454
49145766825
49145771952
49145777323
49145781596
49145788371
49145793803
49145798685
49145804118
49145808939
49145814310
49145820353
49145826639
49145831888
49145836222
49145840494
49145847147
49145852640
49145857584
49145863444
49145868509
49145872782
49145877726
49145884012
49145887858
49145893534
49145899454
49145905680
49145911234
49145916300
49145921305
49145926127
49145931315
49145936258
49145943277
49145947428
49145953775
49145957987
49145963541
49145967569
49145973429
49145977762
49145985086
49145990152
49145995035
49145999918
49146004740
49146009622
49146014566
49146020853
49146025492
49146031107
49146037271
49146042093
49146047159
49146052103
49146058328
49146063760
49146069070
49146074197
49146079019
49146084451
49146089029
49146094583
49146100565
49146103860
49146110330
49146114603
49146120828
49146126077
49146131021
49146137613
49146143228
49146147500
49146152749
49146158182
49146162271
49146167825
49146172464
49146179117
49146182351
49146190042
49146195169
49146199991
49146204690
49146209695
49146215310
49146220987
49146225076
49146230447
49146235452
49146239053
49146245584
49146250283
49146257486
49146262857
49146267739
49146273782
49146278665
49146283547
49146289163
49146294900
49146299417
49146305093
49146309243
49146315225
49146319436
49146325967
49146332803
49146338052
49146343057
49146348367
49146354226
49146358865
49146364236
49146370522
49146375649
49146381692
49146387185
49146391885
49146397195
49146402505
49146407021
49146413430
49146419167
49146424111
49146429177
49146433999
49146439614
49146444680
49146451211
49146457070
49146461770
49146467141
49146472695
49146476784
49146482949
49146488137
49146493142
49146498269
49146503151
49146508400
49146513222
49146519509
49146523232
49146530251
49146534645
49146540200
49146544350
49146550454
49146554543
49146560219
49146565285
49146571083
49146577126
49146582680
49146588173
49146592201
49146597939
49146602333
49146608193
49146613503
49146619118
49146624062
49146630287
49146635292
49146638893
49146646828
49146651100
49146656593
49146660805
49146666420
49146672463
49146677284
49146682289
49146687477
49146692726
49146697487
49146703651
49146707375
49146714027
49146718483
49146724464
49146729652
49146735817
49146740639
49146746132
49146750892
49146755775
49146762062
49146767128
49146771766
49146776710
49146782142
49146787513
49146792885
49146797523
49146803993
49146809608
49146814613
49146819557
49146825050
49146829933
49146834938
49146842628
49146847328
49146852760
49146856971
49146863014
49146867042
49146872840
49146878028
49146883827
49146889198
49146894081
49146899330
49146904151
49146909522
49146914527
49146919654
49146925269
49146931068
49146935218
49146940894
49146944984
49146950416
49146957008
49146962074
49146967750
49146972755
49146978797
49146982703
49146988563
49146992164
49146999671
49147003150
49147009193
49147013221
49147019202
49147023353
49147029395
49147036170
49147041175
49147047462
49147051734
49147058082
49147063209
49147068152
49147074622
49147080054
49147085792
49147102210
49147107276
49147112708
49147118872
49147124183
49147129676
49147134925
49147139014
49147144873
49147149390
49147156226
49147161841
49147166785
49147171668
49147176551
49147181433
49147186377
49147193335
49147197913
49147203711
49147207923
49147213843
49147218482
49147223120
49147227454
49147235632
49147238806
49147245032
49147250952
49147255774
49147261084
49147264746
49147272742
49147277258
49147283362
49147287573
49147293066
49147297095
49147302832
49147307471
49147313269
49147318762
49147323584
49147329138
49147334021
49147339453
49147345129
49147351233
49147355688
49147361731
49147366369
49147371374
49147375586
49147382361
49147387732
49147393103
49147399389
49147405066
49147410620
49147415075
49147421972
49147428991
49147434546
49147439978
49147444189
49147450293
49147454809
49147460302
49147463354
49147470678
49147476110
49147480932
49147485571
49147490393
49147495886
49147501623
49147508337
49147513220
49147519018
49147524023
49147528845
49147533666
49147538549
49147543676
49147550207
49147554723
49147559545
49147564672
49147570043
49147574682
49147580419
49147586279
49147590978
49147597143
49147602026
49147606908
49147612402
49147617712
49147624425
49147629613
49147634557
49147638708
49147646215
49147651403
49147656530
49147663000
49147667577
49147673437
49147677526
49147682409
49147688268
49147693212
49147699437
49147704992
49147710607
49147715612
49147720739
49147725682
49147731969
49147735692
49147742345
49147746862
49147752599
49147756627
49147762670
49147767186
49147773839
49147779821
49147784032
49147789586
49147794591
49147799718
49147804906
49147809606
49147815282
49147821568
49147826878
49147831700
49147836522
49147841466
49147846288
49147851109
49147857884
49147861974
49147868382
49147872350
49147878331
49147882481
49147887791
49147892308
49147899144
49147904698
49147909703
49147914525
49147919591
49147924901
49147931676
49147937352
49147940404
49147947240
49147951390
49147957249
49147961705
49147967076
49147973668
49147978612
49147984349
49147988133
49147992894
49147995030
49148000279
49148004307
49148008763
49148012791
49148017186
49148020543
49148025242
49148027806
49148033604
49148037815
49148041844
49148045811
49148049473
49148053135
49148056797
49148061558
49148064793
49148069615
49148073216
49148076756
49148080784
49148084568
49148090245
49148094944
49148098057
49148102085
49148106297
49148109043
49148112889
49148117222
49148121983
49148126316
49148130283
49148134129
49148137852
49148141636
49148145481
49148149998
49148153721
49148158604
49148162632
49148166966
49148170078
49148175205
49148179478
49148183140
49148187778
49148192112
49148196629
49148199070
49148204319
49148208530
49148212498
49148217380
49148221104
49148225254
49148229099
49148233433
49148236301
49148242710
49148245518
49148251499
49148255161
49148259067
49148263340
49148267246
49148271213
49148274936
49148279880
49148282993
49148287632
49148290989
49148295810
49148301304
49148305149
49148310276
49148314670
49148318393
49148322910
49148327304
49148331089
49148335422
49148340732
49148344944
49148349460
49148353672
49148357395
49148361911
49148367893
49148373081
49148377658
49148382236
49148386630
49148391269
49148395786
49148399387
49148406650
49148411655
49148416110
49148419528
49148424106
49148428684
49148432956
49148437839
49148443515
49148449069
49148453586
49148459018
49148464145
49148467868
49148473178
49148477023
49148483310
49148488376
49148493869
49148499240
49148503818
49148509555
49148514316
49148519992
49148525790
49148530124
49148536166
49148540683
49148544955
49148550021
49148554965
49148559360
49148562472
49148572299
49148577304
49148586032
49148589938
49148596774
49148602145
49148609835
49148615512
49148620639
49148628634
49148636264
49148641940
49148648288
49148650851
49148662326
49148666842
49148673861
49148679965
49148686862
49148695590
49148698458
49148707736
49148714144
49148721468
49148727694
49148730258
49148739535
49148743624
49148753451
49148759982
49148767916
49148773898
49148780245
49148786044
49148792574
49148798373
49148806002
49148810641
49148823580
49148826449
49148835665
49148842257
49148847567
49148855379
49148858126
49148869478
49148877291
49148883394
49148890169
49148899141
49148905001
49148911654
49148917452
49148924044
49148928865
49148936617
49148945101
49148951326
49148956392
49148963716
49148970552
49148976473
49148982332
49148986910
49148996675
49149000582
49149012911
49149019624
49149028108
49149034334
49149038912
49149046846
49149053865
49149058626
49149064668
49149069856
49149081270
49149086458
49149096040
49149103853
49149110078
49149116426
49149124238
49149130952
49149139436
49149147371
49149152131
49149158662
49149164583
49149172456
49149178193
49149182649
49149189668
49149195466
49149203828
49149212678
49149217622
49149224641
49149228547
49149236360
49149244844
49149247712
49149257234
49149262605
49149271394
49149279145
49149285737
49149291963
49149298249
49149304292
49149310700
49149316132
49149324311
49149328523
49149337983
49149344941
49149351716
49149355622
49149362214
49149370087
49149372712
49149382355
49149386994
49149394257
49149401093
49149409516
49149415253
49149419831
49149427399
49149433259
49149440400
49149446198
49149451752
49149460602
49149469330
49149475251
49149481171
49149488678
49149495026
49149499360
49149506867
49149513153
49149521393
49149528534
49149531464
49149542694
49149547150
49149554047
49149561005
49149568207
49149574311
49149580536
49149589691
49149596832
49149604828
49149612091
49149617340
49149623932
49149630463
49149636017
49149641937
49149651520
49149657684
49149664032
49149671478
49149678802
49149686066
49149692047
49149698517
49149704498
49149710052
49149719574
49149727081
49149735870
49149741607
49149747833
49149754242
49149760711
49149767059
49149773163
49149780487
49149789032
49149792205
49149801849
49149808441
49149814666
49149820587
49149827850
49149832367
49149839813
49149848602
49149852874
49149861480
49149867523
49149872222
49149879180
49149885650
49149892974
49149898773
49149904083
49149911590
49149919586
49149926910
49149933990
49149943633
49149949493
49149957183
49149964324
49149971832
49149979339
49149984649
49149993987
49150001128
49150006927
49150013763
49150021392
49150028106
49150032683
49150043914
49150051604
49150057769
49150063628
49150070037
49150076201
49150082732
49150088836
49150094634
49150102691
49150111235
49150114287
49150123626
49150128508
49150135710
49150141631
49150148223
49150154204
49150158599
49150169951
49150178496
49150184172
49150192229
49150198699
49150204802
49150209624
49150217497
49150224028
49150231902
49150238310
49150245940
49150250822
49150257475
49150264861
49150271147
49150277007
49150282805
49150290739
49150298613
49150305937
49150313078
49150321440
49150327238
49150333403
49150339995
49150345915
49150351957
49150361906
49150369047
49150374479
49150383268
49150391020
49150398588
49150403654
49150411222
49150418119
49150427275
49150434111
49150439238
49150447416
49150455168
49150460295
49150469328
49150472074
49150481779
49150486234
49150498991
49150506620
49150513883
49150519804
49150522489
49150532804
49150538725
49150546720
49150551115
49150560819
49150566862
49150573392
49150578947
49150583585
49150592374
49150596952
49150603788
49150610319
49150621427
49150628324
49150637113
49150642850
49150648221
49150654630
49150660917
49150667508
49150675931
49150680875
49150689603
49150692411
49150702604
49150708768
49150715604
49150722257
49150727567
49150733182
49150742581
49150749539
49150754605
49150763516
49150767972
49150774991
49150780667
49150783597
49150794766
49150801908
49150808621
49150813077
49150825345
49150830411
49150840115
49150845364
49150853421
49150860623
49150869168
49150875577
49150883939
49150889615
49150898343
49150905240
49150912320
49150918301
49150926541
49150934537
49150943875
49150949612
49150956021
49150965542
49150971219
49150977688
49150987210
49150993496
49151002041
49151008572
49151016568
49151022427
49151027371
49151036526
49151042874
49151053128
49151060025
49151067776
49151074307
49151080471
49151086941
49151094570
49151100674
49151109768
49151116238
49151123196
49151130215
49151135037
49151144985
49151152248
49151158413
49151164761
49151173122
49151181789
49151189236
49151196804
49151203152
49151209438
49151214565
49151223781
49151230678
49151238186
49151245632
49151253322
49151259548
49151267727
49151273952
49151280727
49151289211
49151296169
49151303859
49151308986
49151318019
49151325161
49151331325
49151337062
49151344509
49151353176
49151360927
49151368007
49151373622
49151382228
49151389125
49151396510
49151403713
49151410426
49151415798
49151423183
49151432643
49151436000
49151445888
49151453761
49151459377
49151466579
49151471828
49151478664
49151488429
49151495265
49151503200
49151508449
49151515529
49151521571
49151528041
49151536708
49151543117
49151551234
49151560634
49151567836
49151574244
49151579432
49151587123
49151594081
49151601405
49151607997
49151618190
49151625697
49151633448
49151640589
49151646022
49151652613
49151659815
49151667750
49151675501
49151681605
49151689234
49151697169
49151703578
49151712183
49151718104
49151725001
49151731471
49151737452
49151746363
49151755274
49151762049
49151769007
49151777247
49151783778
49151789149
49151797266
49151807581
49151815150
49151822108
49151831263
49151837977
49151843348
49151851038
49151857691
49151865748
49151872461
49151878321
49151885889
49151892847
49151901880
49151908655
49151914026
49151922327
49151929468
49151936487
49151945276
49151949243
49151960108
49151967554
49151974939
49151982080
49151989282
49151995996
49152000513
49152010401
49152017358
49152026514
49152033838
49152041589
49152048669
49152053064
49152062830
49152069665
49152077661
49152084497
49152090478
49152100671
49152105554
49152114526
49152121301
49152129968
49152136926
49152141748
49152149499
49152156274
49152167566
49152175256
49152180505
49152189904
49152196374
49152202661
49152211450
49152216821
49152224328
49152230798
49152242761
49152250085
49152253259
49152265466
49152270654
49152279016
49152285974
49152293725
49152300683
49152306603
49152315392
49152323449
49152329614
49152336205
49152345239
49152352197
49152356469
49152364526
49152371361
49152377526
49152390954
49152397118
49152404626
49152411339
49152419701
49152426049
49152430871
49152440270
49152447228
49152456933
49152464196
49152467309
49152476159
49152482750
49152489037
49152494774
49152499474
49152508202
49152512352
49152524193
49152528954
49152537010
49152542931
49152547631
49152556603
49152560753
49152568199
49152575951
49152581017
49152591271
49152595848
49152605553
49152611778
49152614342
49152624962
49152629906
49152636681
49152643150
49152652184
49152659325
49152666283
49152672386
49152679100
49152686790
49152692650
49152696739
49152706077
49152712242
49152721031
49152725975
49152735069
49152740989
49152743614
49152754478
49152759056
49152766502
49152772789
49152780784
49152787254
49152792808
49152800621
49152807273
49152813133
49152819114
49152823875
49152831810
49152839134
49152847496
49152854331
49152857505
49152868614
49152873313
49152880699
49152886497
49152893638
49152899619
49152904868
49152915366
49152920066
49152928184
49152934654
49152940574
49152948020
49152955100
49152961021
49152967185
49152979697
49152986228
49152993369
49152998374
49153005149
49153011191
49153019065
49153021934
49153030662
49153038718
49153045432
49153052329
49153060080
49153066001
49153070639
49153079306
49153086020
49153091269
49153097495
49153106040
49153113608
49153120261
49153125937
49153132224
49153139975
49153146018
49153151084
49153158957
49153165244
49153174948
49153183920
49153187216
49153196799
49153201499
49153209372
49153215537
49153222250
49153227988
49153233237
49153243246
49153251059
49153258627
49153264609
49153271139
49153277304
49153281454
49153289450
49153295553
49153305807
49153313009
49153318136
49153325705
49153331686
49153339987
49153347616
49153350241
49153358053
49153364828
49153372213
49153379232
49153388083
49153394003
49153398642
49153406759
49153411093
49153417562
49153425558
49153428183
49153439962
49153444906
49153456381
49153460897
49153469442
49153478536
49153483663
49153493063
49153496847
49153507772
49153515279
49153522970
49153530233
49153536214
49153542623
49153548116
49153556722
49153563863
49153572347
49153579854
49153582845
49153591878
49153598714
49153606222
49153612020
49153617086
49153624166
49153629659
49153638265
49153645528
49153652364
49153658284
49153664937
49153671102
49153678243
49153685567
49153691915
49153697286
49153706868
49153710042
49153719625
49153724568
49153730367
49153738240
49153741109
49153750203
49153759297
49153765767
49153773152
49153781026
49153787435
49153791951
49153800496
49153804707
49153812276
49153818318
49153823811
49153834981
49153840840
49153847554
49153855000
49153863667
49153872151
49153875752
49153885823
49153891865
49153902669
49153907857
49153915547
49153921650
49153925984
49153934834
49153941304
49153946675
49153952900
49153961934
49153969014
49153971272
49153981587
49153987996
49153994770
49154001179
49154005207
49154014302
49154021504
49154028950
49154035359
49154043354
49154049580
49154054463
49154061177
49154067097
49154074360
49154080219
49154085468
49154093952
49154100971
49154108662
49154115742
49154123859
49154130329
49154138935
49154145527
49154151325
49154161579
49154167622
49154177509
49154184589
49154192280
49154199299
49154202534
49154212116
49154217914
49154229084
49154234272
49154243427
49154250263
49154253010
49154263996
49154270954
49154278949
49154285297
49154288776
49154299091
49154304340
49154312458
49154318256
49154326252
49154332233
49154338886
49154345661
49154349811
49154359394
49154366718
49154373676
49154381915
49154388019
49154394733
49154398761
49154406818
49154412860
49154421039
49154426837
49154435443
49154442584
49154449664
49154456378
49154463458
49154471515
49154477923
49154484271
49154493976
49154498614
49154509845
49154517108
49154524249
49154531024
49154538409
49154545062
49154551227
49154559649
49154566363
49154575213
49154581195
49154583819
49154592486
49154598468
49154606646
49154612506
49154621173
49154627642
49154633258
49154641314
49154647479
49154654132
49154660174
49154664813
49154673113
49154679278
49154690142
49154696734
49154704974
49154711016
49154716021
49154723833
49154729815
49154732439
49154741412
49154745379
49154756304
49154763567
49154771380
49154777727
49154784258
49154791216
49154795550
49154803606
49154809527
49154817339
49154824785
49154830584
49154837725
49154843889
49154851580
49154857683
49154862566
49154869951
49154876299
49154884417
49154891680
49154899187
49154905596
49154910234
49154918474
49154924395
49154928850
49154937883
49154947527
49154960649
49154973406
49154984270
49154995073
49155004411
49155013567
49155018633
49155027238
49155033403
49155040605
49155047380
49155053117
49155061967
49155067094
49155076005
49155082841
49155089860
49155098222
49155103898
49155112504
49155120805
49155128740
49155135148
49155141923
49155148210
49155152849
49155160783
49155167131
49155176164
49155183671
49155191911
49155199052
49155203630
49155211076
49155217485
49155224687
49155230912
49155236405
49155246171
49155253373
49155261430
49155267289
49155273820
49155280045
49155284562
49155293046
49155299699
49155309464
49155316300
49155323869
49155329728
49155336381
49155342728
49155348771
49155355912
49155362504
49155367692
49155376847
49155384965
49155391923
49155398087
49155404130
49155409989
49155416703
49155423234
49155429154
49155440506
49155446976
49155452164
49155460770
49155465043
49155472855
49155478897
49155483902
49155492874
49155497025
49155506058
49155513443
49155520523
49155527787
49155533219
49155539566
49155545609
49155553665
49155559708
49155565506
49155573685
49155581619
49155587967
49155595841
49155602310
49155608719
49155612625
49155621475
49155627823
49155631180
49155643326
49155646622
49155655716
49155662552
49155668594
49155674637
49155681045
49155687332
49155695206
49155701675
49155708328
49155715591
49155721512
49155726455
49155733719
49155739578
49155747085
49155753494
49155758926
49155767776
49155775100
49155782302
49155788345
49155794509
49155800491
49155804519
49155813003
49155818985
49155826309
49155835098
49155838516
49155847732
49155854751
49155860977
49155867080
49155869766
49155878860
49155887222
49155896804
49155904311
49155911758
49155917678
49155924209
49155930373
49155934341
49155942641
49155948745
49155956802
49155964248
49155969375
49155978713
49155982680
49155990554
49155996718
49156001296
49156009292
49156015944
49156025588
49156032058
49156034743
49156044570
49156051406
49156057326
49156063308
49156067946
49156076552
49156084731
49156093764
49156101210
49156108535
49156114516
49156117507
49156126235
49156133193
49156140151
49156146193
49156149977
49156160597
49156165724
49156174758
49156181838
49156189101
49156195448
49156201918
49156208876
49156213637
49156222914
49156231032
49156237624
49156244093
49156248793
49156256300
49156263319
49156270155
49156276503
49156283522
49156290541
49156294996
49156305128
49156309218
49156318312
49156324232
49156328932
49156336256
49156342299
49156352247
49156358961
49156365492
49156371473
49156378248
49156385450
49156391371
49156398085
49156404493
49156409620
49156418775
49156426039
49156431776
49156437818
49156442762
49156450819
49156457899
49156463453
49156471510
49156480543
49156487928
49156493116
49156500929
49156507276
49156514356
49156520338
49156525220
49156534010
49156541517
49156548170
49156555250
49156563062
49156569105
49156573804
49156581006
49156586805
49156593580
49156600049
49156613904
49156620313
49156625501
49156634107
49156640943
49156646802
49156652723
49156657422
49156664930
49156670911
49156681714
49156688489
49156691541
49156702344
49156707410
49156713697
49156719739
49156727185
49156733350
49156737805
49156750989
49156758801
49156765515
49156771375
49156776624
49156785535
49156790540
49156797742
49156803723
49156815137
49156821912
49156828931
49156834790
49156841443
49156847424
49156855420
49156859814
49156866650
49156870923
49156882336
49156890393
49156896618
49156903027
49156905713
49156916150
49156921032
49156928051
49156936352
49156943554
49156953869
49156956799
49156966076
49156972790
49156978527
49156986645
49156992871
49156999279
49157003491
49157011730
49157018383
49157026318
49157032543
49157037487
49157046520
49157050549
49157059765
49157066113
49157069592
49157081432
49157087170
49157096081
49157104076
49157112560
49157119579
49157125011
49157133800
49157137341
49157147777
49157152294
49157162243
49157168712
49157173717
49157180370
49157184826
49157194408
49157198437
49157206493
49157215893
49157219005
49157229015
49157233715
49157239818
49157247631
49157252330
49157259533
49157264660
49157274547
49157281871
49157288524
49157294628
49157301097
49157306957
49157313854
49157320568
49157326915
49157337291
49157344066
49157351573
49157356822
49157363719
49157370738
49157376720
49157379588
49157388683
49157397228
49157405650
49157412852
49157420726
49157426768
49157431407
49157438975
49157444835
49157451976
49157458446
49157465098
49157475474
49157480479
49157487132
49157492991
49157500010
49157506663
49157512828
49157520274
49157526622
49157536876
49157543712
49157551890
49157557933
49157562754
49157570933
49157575145
49157582286
49157588267
49157593760
49157603221
49157608164
49157615672
49157621714
49157629893
49157636607
49157643260
49157650218
49157656321
49157660838
49157671946
49157677378
49157685801
49157691905
49157697642
49157705943
49157711985
49157716807
49157722788
49157731943
49157738779
49157744883
49157750986
49157757639
49157763865
49157770029
49157777659
49157783518
49157788706
49157797861
49157805491
49157811472
49157818796
49157825876
49157831919
49157836313
49157845530
49157851755
49157859201
49157867441
49157872751
49157880686
49157886606
49157894113
49157900400
49157905466
49157913339
49157917368
49157926279
49157935800
49157938913
49157948068
49157952646
49157960153
49157966379
49157972421
49157980844
49157986948
49157997141
49158002939
49158011057
49158017160
49158020029
49158028757
49158035471
49158042551
49158048654
49158056589
49158063119
49158070260
49158077280
49158084115
49158089853
49158095895
49158103341
49158109201
49158114511
49158126352
49158134164
49158140023
49158145883
49158153512
49158159860
49158163705
49158173959
49158180734
49158189950
49158196359
49158199533
49158210092
49158215341
49158224252
49158228463
49158235421
49158243661
49158247140
49158257577
49158264535
49158271920
49158277902
49158284615
49158290719
49158295602
49158304757
49158308785
49158320626
49158327340
49158330331
49158340951
49158347665
49158353341
49158361336
49158365914
49158372689
49158376778
49158386544
49158394478
49158402779
49158408700
49158415047
49158422371
49158428841
49158435555
49158441475
49158449837
49158459298
49158465523
49158471871
49158478402
49158485421
49158491768
49158498543
49158504769
49158509102
49158518685
49158526314
49158532112
49158538155
49158546333
49158552559
49158559456
49158564827
49158570870
49158579048
49158586372
49158592049
49158600594
49158607430
49158613960
49158620003
49158625130
49158632454
49158639595
49158645210
49158652656
49158660103
49158667000
49158671516
49158679451
49158685432
49158692451
49158698799
49158704292
49158715767
49158723091
49158730964
49158737068
49158745796
49158752998
49158761177
49158767585
49158773689
49158783027
49158791206
49158797004
49158803596
49158810066
49158817695
49158825324
49158833015
49158841071
49158847968
49158857551
49158863715
49158869636
49158876350
49158882026
49158887885
49158892463
49158901252
49158905097
49158916145
49158924873
49158931403
49158937385
49158942512
49158950996
49158955146
49158962897
49158968879
49158974250
49158982978
49158990912
49158997992
49159004279
49159011298
49159017463
49159022468
49159029792
49159035773
49159046088
49159055243
49159058234
49159067450
49159073249
49159080390
49159086737
49159091193
49159100226
49159104621
49159113837
49159120246
49159127692
49159133917
49159138739
49159147467
49159151434
49159159857
49159167670
49159170905
49159179755
49159186713
49159194098
49159201117
49159210944
49159217230
49159226019
49159233038
49159241522
49159248602
49159253668
49159260931
49159267523
49159272711
49159280401
49159283026
49159291510
49159298102
49159305609
49159312506
49159320807
49159326788
49159331610
49159339666
49159345770
49159352728
49159358404
49159363958
49159372076
49159380133
49159388678
49159395758
49159403570
49159409979
49159417852
49159424505
49159431829
49159439581
49159444525
49159453192
49159460943
49159463690
49159474554
49159481573
49159488958
49159496343
49159502264
49159512090
49159515203
49159523809
49159530584
49159537359
49159543340
49159551031
49159558294
49159563726
49159572515
49159576909
49159585210
49159591314
49159599676
49159605596
49159612249
49159617620
49159623601
49159633794
49159642888
49159647954
49159655034
49159661443
49159668218
49159674199
49159679143
49159687383
49159691411
49159702031
49159708379
49159713140
49159721013
49159727605
49159735234
49159741155
49159747868
49159754033
49159758305
49159768987
49159775823
49159784245
49159790532
49159795537
49159803288
49159809270
49159816411
49159822331
49159827641
49159835881
49159843938
49159851201
49159857426
49159860295
49159868657
49159875310
49159882145
49159888249
49159897709
49159903874
49159908879
49159916142
49159922184
49159929692
49159935612
49159942082
49159948979
49159953312
49159961491
49159968327
49159976506
49159982853
49159988163
49159995732
49160001713
49160007817
49160013859
49160019230
49160028019
49160036259
49160044560
49160050724
49160053410
49160063114
49160069584
49160076603
49160083134
49160092655
49160099186
49160105717
49160112553
49160119266
49160125431
49160131657
49160138676
49160144657
49160150272
49160158878
49160165226
49160169559
49160178898
49160183597
49160191044
49160197086
49160202030
49160209415
49160214786
49160228641
49160233951
49160242862
49160247013
49160255252
49160261112
49160265934
49160273868
49160280033
49160288517
49160295230
49160300174
49160308658
49160315250
49160321964
49160328128
49160330753
49160340640
49160349796
49160357730
49160362613
49160370853
49160377078
49160381717
49160389713
49160396793
49160402774
49160408694
49160415836
49160426700
49160432803
49160441287
49160445621
49160452640
49160458682
49160465762
49160472964
49160480411
49160487857
49160494327
49160501040
49160507449
49160514163
49160520327
49160526309
49160532107
49160540530
49160546695
49160554812
49160561709
49160569155
49160575198
49160579959
49160587710
49160594729
49160600161
49160606143
49160614993
49160621890
49160628604
49160636538
49160644290
49160651797
49160658877
49160667239
