49009977317
49009984031
49009989280
49009994346
49009999412
49010005271
49010010947
49010018332
49010024497
49010029990
49010036155
49010042014
49010047751
49010056540
49010062033
49010068930
49010075583
49010083152
49010089804
49010096396
49010103171
49010110190
49010117453
49010124106
49010132224
49010137961
49010147177
49010152792
49010160910
49010168173
49010175681
49010183615
49010189597
49010196249
49010203757
49010211996
49010218771
49010228781
49010234701
49010240500
49010247031
49010255270
49010260946
49010269064
49010275290
49010283713
49010291098
49010297140
49010304220
49010311667
49010319113
49010327230
49010333334
49010342916
49010349081
49010355551
49010364767
49010370993
49010378439
49010385458
49010391867
49010397299
49010404440
49010409994
49010418173
49010426168
49010432577
49010440328
49010446005
49010452169
49010459615
49010466451
49010474569
49010482320
49010488241
49010496358
49010505758
49010511556
49010520040
49010523763
49010533834
49010541097
49010546834
49010554159
49010559652
49010566610
49010574605
49010580587
49010587911
49010595968
49010601278
49010608968
49010616536
49010623067
49010629903
49010636312
49010642537
49010650594
49010656148
49010663961
49010670797
49010679158
49010684529
49010691670
49010698934
49010703633
49010711751
49010716512
49010727193
49010734151
49010740621
49010747945
49010755391
49010761189
49010768575
49010777608
49010782796
49010791890
49010797688
49010805684
49010811116
49010818867
49010825032
49010835408
49010841939
49010848530
49010853535
49010861531
49010868062
49010876179
49010884846
49010893147
49010900105
49010905537
49010914143
49010921772
49010929585
49010936726
49010944722
49010952656
49010960041
49010967182
49010974263
49010981037
49010987751
49010994953
49011002094
49011009663
49011018696
49011026325
49011034626
49011041340
49011050617
49011060566
49011067219
49011076496
49011085224
49011092487
49011098347
49011107746
49011113605
49011122578
49011131489
49011139606
49011145161
49011154377
49011160419
49011168781
49011176533
49011184528
49011194172
49011201984
49011210407
49011217853
49011223957
49011232135
49011240070
49011248188
49011256855
49011265033
49011270832
49011279376
49011285236
49011294940
49011301410
49011308978
49011317890
49011326190
49011334674
49011339557
49011348224
49011354450
49011362994
49011370380
49011380328
49011388629
49011394550
49011404132
49011410358
49011417743
49011426532
49011434833
49011441485
49011451373
49011460406
49011468036
49011472003
49011481585
49011488727
49011496783
49011504596
49011512286
49011518329
49011527240
49011533038
49011542071
49011550189
49011560382
49011566729
49011575701
49011583819
49011592486
49011598590
49011607440
49011613299
49011624102
49011633563
49011640215
49011646990
49011655718
49011661944
49011670977
49011678667
49011686419
49011696368
49011702776
49011710894
49011720415
49011728228
49011737749
49011745867
49011754473
49011762407
49011769304
49011777239
49011783342
49011791460
49011801653
49011807940
49011816423
49011824968
49011832415
49011840837
49011850420
49011856218
49011865557
49011871843
49011880632
49011889543
49011898393
49011906084
49011912615
49011919206
49011924822
49011931963
49011940569
49011949419
49011956865
49011963701
49011970293
49011977617
49011985979
49011993242
49011999773
49012006670
49012012712
49012019975
49012028886
49012038469
49012046342
49012052873
49012060197
49012067644
49012075090
49012082841
49012090349
49012098283
49012104936
49012113176
49012120927
49012127031
49012134843
49012141862
49012150773
49012157609
49012163896
49012170854
49012179582
49012189836
49012196733
49012204484
49012213090
49012219315
49012227738
49012236772
49012246537
49012252519
49012261369
49012267899
49012274552
49012283036
49012293046
49012302445
49012310563
49012319291
49012326127
49012333817
49012339921
49012343766
49012350114
49012356705
49012361527
49012367753
49012373856
49012379532
49012386246
49012390702
49012396988
49012402665
49012410294
49012415360
49012420487
49012427628
49012432572
49012440079
49012445206
49012451432
49012457047
49012463394
49012469315
49012474808
49012480789
49012487320
49012493302
49012499283
49012504837
49012510025
49012515457
49012521988
49012526261
49012531693
49012538284
49012543472
49012549515
49012554031
49012561173
49012565811
49012572220
49012578201
49012583145
49012588333
49012592545
49012598343
49012605362
49012610062
49012616348
49012621353
49012626541
49012631729
49012636673
49012642044
49012648269
49012653885
49012658157
49012664444
49012669204
49012672928
49012679703
49012684341
49012688980
49012694473
49012700271
49012704727
49012709854
49012715469
49012720962
49012727188
49012731643
49012737259
49012741592
49012746719
49012753555
49012758987
49012764480
49012768203
49012773269
49012777725
49012783767
49012789688
49012794570
49012800369
49012805435
49012810684
49012815200
49012821182
49012825942
49012831069
49012836685
49012841140
49012847549
49012851638
49012858169
49012863052
49012867629
49012873367
49012879043
49012883987
49012888808
49012893569
49012900954
49012905959
49012911269
49012916823
49012921462
49012925735
49012930800
49012936416
49012942153
49012946120
49012952407
49012956374
49012961745
49012966750
49012973220
49012979018
49012984145
49012988967
49012994277
49012998610
49013003310
49013010573
49013016005
49013021193
49013025649
49013031386
49013036086
49013041335
49013047988
49013052687
49013058303
49013063491
49013068801
49013074477
49013078566
49013085951
49013091384
49013095961
49013100966
49013106093
49013110793
49013115065
49013122389
49013127272
49013131056
49013136794
49013142165
49013146559
49013152297
49013158522
49013164198
49013169264
49013173598
49013178786
49013184401
49013189711
49013195387
49013200941
49013205885
49013210036
49013215590
49013220717
49013226088
49013231764
49013237623
49013241896
49013247145
49013253432
49013258558
49013264845
49013270704
49013276137
49013280775
49013286635
49013293104
49013298964
49013303907
49013309584
49013316603
49013323500
49013327589
49013333204
49013339979
49013344740
49013350477
49013355909
49013361708
49013367140
49013373304
49013378736
49013384352
49013390211
49013394422
49013400953
49013405958
49013411573
49013417677
49013423475
49013428419
49013434095
49013439222
49013446363
49013452345
49013458021
49013463575
49013469617
49013475111
49013482862
49013488660
49013493848
49013499647
49013504835
49013510755
49013515516
49013520704
49013525953
49013531934
49013537733
49013543165
49013549146
49013556043
49013562208
49013566541
49013572645
49013578199
49013583387
49013589124
49013594068
49013599500
49013605420
49013610791
49013617383
49013622632
49013628247
49013634595
49013639356
49013644605
49013649732
49013654676
49013660779
49013667981
49013673352
49013679151
49013685376
49013690930
49013696240
49013703259
49013706738
49013714124
49013718823
49013725049
49013732861
49013738538
49013743909
49013749890
49013756421
49013761914
49013767224
49013773389
49013778516
49013784192
49013789563
49013795361
49013799939
49013806348
49013811902
49013817273
49013822888
49013827710
49013834424
49013839734
49013844678
49013852429
49013857007
49013862622
49013868664
49013874768
49013879712
49013885693
49013891186
49013896313
49013901440
49013905041
49013912304
49013916943
49013923718
49013928906
49013934460
49013939648
49013944104
49013950268
49013956555
49013961315
49013966931
49013971203
49013976391
49013982373
49013987988
49013996227
49014000805
49014006359
49014013073
49014019787
49014025280
49014030773
49014036572
49014042736
49014047985
49014054638
49014059765
49014064526
49014072155
49014077404
49014082958
49014088024
49014094006
49014099804
49014106213
49014112133
49014117626
49014123424
49014130260
49014134655
49014140148
49014146618
49014151928
49014157970
49014164013
49014169933
49014174450
49014179943
49014185192
49014191051
49014195385
49014201671
49014207470
49014212352
49014217968
49014222728
49014228405
49014235179
49014239574
49014245677
49014250621
49014256053
49014261302
49014266979
49014272655
49014278026
49014283153
49014289012
49014294933
49014299449
49014307079
49014312877
49014317211
49014323924
49014329112
49014334117
49014339671
49014345409
49014350719
49014356029
49014362254
49014366710
49014372386
49014378429
49014384044
49014389598
49014395702
49014400890
49014406444
49014411693
49014417491
49014423167
49014428477
49014435252
49014440440
49014446727
49014451426
49014456981
49014462291
49014468089
49014473826
49014478343
49014482798
49014489268
49014495128
49014500682
49014505259
49014510508
49014515879
49014521617
49014527293
49014532298
49014538035
49014543162
49014548350
49014553477
49014558909
49014563914
49014569651
49014575755
49014580577
49014586131
49014591136
49014597300
49014602244
49014607981
49014612559
49014617808
49014623057
49014629832
49014635447
49014640574
49014646372
49014650584
49014656626
49014661875
49014667246
49014672434
49014678172
49014682383
49014687937
49014692087
49014697275
49014704294
49014709360
49014713877
49014719248
49014724375
49014730356
49014735361
49014742014
49014746287
49014751780
49014757822
49014761850
49014768503
49014772837
49014779307
49014785654
49014790171
49014795664
49014800486
49014806711
49014811289
49014817148
49014823740
49014828012
49014833811
49014839243
49014843637
49014849008
49014855234
49014860666
49014864756
49014871347
49014876169
49014881113
49014886362
49014892160
49014896433
49014901621
49014907114
49014913156
49014917978
49014925058
49014928537
49014935190
49014939340
49014944833
49014950571
49014956125
49014961984
49014966013
49014971872
49014976999
49014982065
49014986337
49014993051
49014997873
49015002878
49015008005
49015013620
49015017343
49015024057
49015030954
49015036264
49015039987
49015046579
49015052133
49015057016
49015062509
49015067636
49015074106
49015078317
49015083383
49015087960
49015093881
49015099435
49015104867
49015110421
49015115426
49015120370
49015124948
49015130746
49015136239
49015142526
49015148385
49015154794
49015159555
49015166940
49015171762
49015176950
49015182992
49015189767
49015195382
49015201180
49015206368
49015213326
49015218759
49015224313
49015230843
49015235482
49015240365
49015246529
49015252816
49015258553
49015264046
49015269418
49015274483
49015279549
49015285470
49015291024
49015297066
49015302376
49015308907
49015313790
49015320077
49015325265
49015331185
49015336190
49015341378
49015345955
49015351449
49015358285
49015364205
49015369515
49015373971
49015378792
49015383980
49015388436
49015394173
49015400032
49015403511
49015409371
49015414498
49015419625
49015424324
49015430550
49015434639
49015439827
49015446419
49015451241
49015455513
49015461190
49015467293
49015472603
49015477242
49015483101
49015487251
49015492989
49015497505
49015503304
49015509163
49015514351
49015519722
49015523628
49015529183
49015534981
49015541878
49015547127
49015552498
49015557442
49015562935
49015568001
49015572578
49015577827
49015584236
49015588692
49015594307
49015599068
49015605232
49015610176
49015615425
49015621101
49015625984
49015631050
49015637459
49015642769
49015648689
49015653877
49015658027
49015664558
49015669502
49015674690
49015680122
49015686470
49015692634
49015697212
49015701973
49015707832
49015713386
49015717292
49015723396
49015729499
49015733589
49015739387
49015743232
49015749641
49015752998
49015760261
49015765083
49015769233
49015774848
49015779914
49015785774
49015789985
49015796211
49015801582
49015806892
49015811469
49015816902
49015822517
49015827644
49015834419
49015839301
49015843147
49015848396
49015854011
49015859138
49015865058
49015870307
49015876105
49015881599
49015886970
49015892524
49015897590
49015903144
49015908515
49015914313
49015919807
49015924689
49015929999
49015935676
49015940864
49015946479
49015952033
49015958320
49015963569
49015969550
49015976447
49015982123
49015986823
49015992926
49015998481
49016005622
49016009772
49016017463
49016023566
49016029486
49016035285
49016040839
49016045783
49016052130
49016057990
49016063727
49016069281
49016074042
49016080206
49016086920
49016092413
49016098639
49016103400
49016106940
49016113593
49016118170
49016124030
49016129523
49016134833
49016141119
49016146124
49016152167
49016158698
49016164374
49016169928
49016176215
49016182135
49016187445
49016193243
49016199103
49016204779
49016208929
49016215582
49016221686
49016226507
49016234076
49016239752
49016244147
49016250372
49016254889
49016260992
49016267462
49016272772
49016276983
49016281866
49016289618
49016294256
49016300299
49016307501
49016313116
49016318365
49016324713
49016329107
49016333990
49016340460
49016346380
49016352117
49016357794
49016362615
49016367987
49016375006
49016380377
49016385015
49016390386
49016395818
49016401800
49016406622
49016412542
49016418340
49016424383
49016429022
49016434942
49016440435
49016445806
49016451055
49016456731
49016461675
49016467046
49016472539
49016479192
49016484930
49016489934
49016496099
49016501653
49016506292
49016512334
49016518377
49016523321
49016529058
49016534368
49016539678
49016544195
49016549016
49016556035
49016561406
49016566655
49016572454
49016576726
49016582647
49016588079
49016593511
49016599736
49016604436
49016609929
49016614934
49016621160
49016627690
49016634526
49016640203
49016644658
49016648748
49016655095
49016660039
49016665471
49016671941
49016677495
49016682683
49016686955
49016692143
49016698125
49016703862
49016709783
49016714848
49016720220
49016724614
49016729619
49016736089
49016741826
49016746404
49016751897
49016757939
49016763127
49016768315
49016773381
49016779607
49016784917
49016789372
49016795354
49016798894
49016806035
49016811406
49016817082
49016821843
49016826970
49016831914
49016836918
49016842167
49016845830
49016853764
49016858464
49016863713
49016868412
49016873784
49016880375
49016885319
49016891240
49016895756
49016901127
49016905278
49016911686
49016916325
49016921940
49016927555
49016932133
49016937321
49016943119
49016948002
49016952946
49016957218
49016962956
49016967472
49016972599
49016979130
49016983830
49016989872
49016996586
49017001164
49017007328
49017014347
49017019413
49017024113
49017029972
49017035343
49017040165
49017046879
49017051884
49017056950
49017062992
49017069035
49017075077
49017081242
49017085819
49017091007
49017097538
49017104069
49017109989
49017115421
49017120975
49017125980
49017132389
49017137394
49017142826
49017148929
49017154117
49017159916
49017165348
49017172062
49017178348
49017183658
49017190067
49017194217
49017200687
49017206424
49017212589
49017218082
49017223148
49017229618
49017235904
49017240665
49017246585
49017251712
49017257022
49017262515
49017268619
49017273807
49017280033
49017286380
49017290592
49017298099
49017302615
49017307742
49017314029
49017319583
49017324893
49017331119
49017336856
49017342715
49017348331
49017352603
49017358829
49017363528
49017368961
49017374271
49017380374
49017385684
49017390445
49017396121
49017402041
49017407046
49017412601
49017419009
49017424930
49017430057
49017435916
49017439822
49017447024
49017452517
49017458133
49017463260
49017468387
49017474734
49017479190
49017484866
49017490786
49017496218
49017501406
49017507266
49017511233
49017517947
49017523562
49017529483
49017535464
49017539370
49017545779
49017550479
49017556643
49017564028
49017569522
49017574221
49017580386
49017585696
49017591372
49017596255
49017603762
49017608340
49017614077
49017620059
49017623782
49017630923
49017637087
49017641909
49017647829
49017653323
49017658877
49017664431
49017669070
49017674563
49017680971
49017686526
49017691714
49017696718
49017701723
49017706423
49017711489
49017717837
49017722780
49017728762
49017733095
49017739016
49017744204
49017750918
49017755007
49017760988
49017766237
49017771547
49017776735
49017783266
49017788942
49017793032
49017798525
49017802919
49017808107
49017813600
49017818361
49017824404
49017829775
49017835268
49017838930
49017845461
49017851930
49017856569
49017862001
49017868654
49017873781
49017880678
49017885744
49017892397
49017896974
49017902834
49017909120
49017915102
49017919313
49017926149
49017931093
49017938783
49017943544
49017949281
49017954225
49017961000
49017966615
49017972047
49017977357
49017983339
49017988832
49017994508
49017999452
49018004762
49018010683
49018016298
49018022340
49018027101
49018034242
49018039125
49018045411
49018051088
49018056398
49018062867
49018069337
49018075380
49018080262
49018086122
49018090760
49018097657
49018103089
49018108522
49018113954
49018120057
49018124940
49018130982
49018135987
49018141236
49018147157
49018151979
49018158204
49018163026
49018166566
49018173280
49018180238
49018183778
49018190309
49018195802
49018200990
49018207703
49018213624
49018218751
49018224915
49018230470
49018236573
49018243653
49018249512
49018254945
49018260010
49018265259
49018271180
49018278138
49018283265
49018288453
49018294190
49018299744
49018304566
49018309937
49018315735
49018321412
49018327027
49018332703
49018338990
49018343506
49018350464
49018356080
49018361634
49018367310
49018371094
49018376709
49018382569
49018388367
49018393982
49018399659
49018405518
49018410218
49018415589
49018422303
49018426575
49018432251
49018439209
49018445008
49018449707
49018454834
49018460938
49018467652
49018472534
49018476990
49018481873
49018487244
49018492066
49018497559
49018503296
49018506775
49018512756
49018517029
49018522644
49018527405
49018534119
49018540161
49018544800
49018550232
49018554504
49018559814
49018566162
49018571228
49018577637
49018583923
49018588928
49018593262
49018599121
49018604126
49018609558
49018615600
49018622803
49018628296
49018633606
49018640197
49018644409
49018650268
49018656433
49018663513
49018669128
49018674743
49018680297
49018686340
49018694030
49018699035
49018704223
49018710144
49018716308
49018722534
49018726135
49018732116
49018737487
49018744018
49018749999
49018754272
49018760681
49018765563
49018770263
49018776367
49018781799
49018788268
49018793762
49018798278
49018804138
49018810363
49018815002
49018822021
49018826354
49018832092
49018837890
49018841979
49018847289
49018853027
49018858459
49018864013
49018870116
49018875426
49018881469
49018886352
49018893371
49018897948
49018904052
49018910155
49018915343
49018921081
49018927550
49018932128
49018938109
49018944213
49018949584
49018955260
49018959716
49018965331
49018972411
49018976928
49018983275
49018988646
49018994506
49019001097
49019006041
49019012145
49019017638
49019024108
49019029540
49019033324
49019041014
49019045470
49019051207
49019056944
49019061949
49019067381
49019073668
49019078856
49019082579
49019089415
49019094969
49019100401
49019106810
49019111998
49019116881
49019122923
49019128233
49019134520
49019139891
49019145628
49019151060
49019156187
49019161070
49019167357
49019172972
49019180174
49019185667
49019190489
49019195494
49019201170
49019207640
49019214110
49019220335
49019226072
49019231688
49019238096
49019241697
49019248045
49019254698
49019260374
49019265928
49019272642
49019277342
49019282408
49019288389
49019294126
49019299009
49019303770
49019309629
49019314939
49019321104
49019325926
49019331541
49019337461
49019342649
49019347715
49019354124
49019358579
49019365660
49019370176
49019376341
49019382383
49019386961
49019392515
49019398130
49019402525
49019420103
49019424741
49019431455
49019437986
49019442869
49019448118
49019453916
49019458250
49019464841
49019469724
49019475217
49019480710
49019487363
49019491697
49019497739
49019504026
49019509458
49019515134
49019520139
49019525327
49019531125
49019536008
49019541745
49019546811
49019552366
49019558408
49019563169
49019568784
49019573423
49019580442
49019586362
49019591245
49019596738
49019600949
49019606259
49019612180
49019617124
49019623227
49019627683
49019633420
49019638486
49019644773
49019649167
49019655149
49019660031
49019665524
49019670712
49019675290
49019681027
49019687009
49019692197
49019697751
49019702329
49019706235
49019711972
49019716855
49019723142
49019729794
49019733823
49019739255
49019744321
49019748715
49019753659
49019759763
49019765378
49019771054
49019776730
49019780270
49019785885
49019790707
49019796933
49019802609
49019808774
49019813168
49019817746
49019823300
49019829037
49019835629
49019840146
49019845761
49019853085
49019858578
49019864071
49019870785
49019876767
49019881894
49019887753
49019893063
49019898678
49019904538
49019910214
49019916134
49019921383
49019928280
49019932614
49019937802
49019943966
49019950009
49019955563
49019960995
49019965389
49019971249
49019977230
49019983395
49019988705
49019994381
49019998531
49020004269
49020009396
49020016720
49020021786
49020027218
49020032711
49020036922
49020042049
49020047848
49020053219
49020059200
49020063656
49020069027
49020073238
49020079159
49020084774
49020089962
49020096371
49020100521
49020106136
49020109920
49020115291
49020119381
49020126522
49020131466
49020136409
49020142147
49020147274
49020153255
49020158626
49020164425
49020170223
49020175655
49020179744
49020184993
49020189937
49020193599
49020199398
49020205745
49020211605
49020215755
49020220455
49020226680
49020231563
49020237117
49020242793
49020246639
49020252071
49020256954
49020264034
49020269588
49020276058
49020281185
49020286189
49020291560
49020297115
49020303645
49020309261
49020313716
49020321223
49020326534
49020332515
49020336970
49020343867
49020349361
49020355464
49020360652
49020366817
49020372066
49020376948
49020382136
49020388179
49020393611
49020398921
49020404475
49020409114
49020416621
49020422603
49020427913
49020433284
49020439448
49020444880
49020450496
49020455867
49020462153
49020467952
49020472712
49020479914
49020485225
49020492793
49020498103
49020503535
49020509761
49020515925
49020521174
49020528804
49020535151
49020541560
49020546931
49020552241
49020558894
49020564143
49020571528
49020577082
49020582697
49020588252
49020594111
49020599604
49020605036
49020610346
49020616694
49020622309
49020628230
49020633112
49020639094
49020645075
49020650751
49020656977
49020661555
49020666682
49020672968
49020677912
49020683405
49020688471
49020693659
49020698298
49020703303
49020709284
49020714716
49020720881
49020725336
49020730951
49020735956
49020741449
49020747492
49020753901
49020758966
49020764643
49020769098
49020774958
49020780817
49020786249
49020791132
49020798395
49020804254
49020811945
49020816706
49020822016
49020828119
49020834345
49020838007
49020844721
49020850397
49020857599
49020862360
49020867914
49020874017
49020878473
49020887079
49020892267
49020897516
49020902399
49020908868
49020913934
49020919550
49020924188
49020931207
49020937006
49020942377
49020947809
49020952570
49020959222
49020964471
49020969293
49020974664
49020980829
49020985712
49020991937
49020999078
49021003778
49021009332
49021015497
49021021234
49021025750
49021030511
49021037164
49021042962
49021047967
49021054010
49021058526
49021063958
49021070733
49021074701
49021080011
49021085504
49021090631
49021096856
49021104119
49021109735
49021114190
49021119744
49021125421
49021131097
49021136651
49021143121
49021150018
49021153863
49021160089
49021164483
49021170464
49021176934
49021182610
49021189202
49021193414
49021198785
49021204522
49021208550
49021215386
49021221978
49021227593
49021232049
49021237542
49021243035
49021246636
49021254632
49021259270
49021265008
49021269768
49021274163
49021279717
49021285271
49021290703
49021296441
49021301690
49021306634
49021310967
49021316460
49021321465
49021327691
49021334649
49021338494
49021344048
49021348687
49021354363
49021358208
49021365899
49021370598
49021376030
49021380669
49021386101
49021391594
49021395439
49021403130
49021408013
49021413079
49021417473
49021421990
49021428154
49021432366
49021437920
49021442375
49021448662
49021453606
49021458672
49021463555
49021469109
49021474541
49021480339
49021485283
49021489739
49021494804
49021500847
49021505180
49021510918
49021515862
49021520744
49021525261
49021530937
49021536430
49021540398
49021547661
49021552727
49021557609
49021564812
49021571403
49021578056
49021583000
49021588432
49021594230
49021600456
49021605827
49021611320
49021616630
49021621696
49021627922
49021635124
49021640129
49021646354
49021652275
49021658805
49021663810
49021669548
49021674736
49021679924
49021685173
49021691581
49021695793
49021701530
49021707756
49021713188
49021718437
49021723442
49021730216
49021735710
49021741081
49021746635
49021753044
49021757560
49021764335
49021770683
49021776542
49021782462
49021787589
49021791312
49021798637
49021803458
49021809257
49021813590
49021822257
49021826652
49021831168
49021837699
49021843558
49021848014
49021853812
49021860404
49021865165
49021870902
49021875968
49021881705
49021887626
49021892692
49021897696
49021903617
49021908866
49021915458
49021921500
49021927421
49021931937
49021938163
49021944205
49021949149
49021954703
49021960624
49021965384
49021971183
49021978446
49021984671
49021990775
49021995536
49022000968
49022006705
49022012686
49022018790
49022023490
49022028983
49022035330
49022039603
49022046256
49022053031
49022057669
49022064078
49022070731
49022075125
49022082755
49022088675
49022092276
49022100150
49022104300
49022109976
49022115591
49022120596
49022127371
49022132376
49022136771
49022143362
49022147330
49022152823
49022157645
49022163870
49022170523
49022176687
49022181509
49022185843
49022192312
49022197745
49022203482
49022208975
49022214529
49022219778
49022224600
49022229788
49022235647
49022241140
49022247000
49022252432
49022258657
49022265066
49022270864
49022277029
49022281851
49022287710
49022293508
49022299246
49022304495
49022309988
49022315603
49022322256
49022327322
49022333608
49022338125
49022344961
49022350698
49022355520
49022362356
49022367361
49022374014
49022378164
49022384939
49022391103
49022396719
49022402761
49022409353
49022415639
49022421255
49022426443
49022432119
49022437063
49022443166
49022449636
49022455190
49022459341
49022465627
49022471181
49022478078
49022483266
49022488698
49022494253
49022498952
49022504567
49022511403
49022516286
49022522878
49022529043
49022535634
49022541005
49022545827
49022551259
49022557058
49022563649
49022569875
49022574880
49022581288
49022586110
49022591481
49022597463
49022602712
49022608327
49022614369
49022619252
49022625295
49022629018
49022635610
49022642140
49022647084
49022652211
49022656972
49022662831
49022668935
49022675343
49022680470
49022687184
49022693410
49022697926
49022703786
49022709279
49022715260
49022719533
49022726002
49022730763
49022737172
49022742238
49022748219
49022754201
49022759694
49022764210
49022769948
49022776051
49022782094
49022788197
49022792897
49022798817
49022803944
49022811879
49022816823
49022822011
49022828480
49022833546
49022839711
49022844593
49022851246
49022856984
49022862172
49022867298
49022873463
49022879689
49022885731
49022891651
49022896839
49022903187
49022907826
49022913380
49022920216
49022924610
49022930714
49022937672
49022941639
49022947926
49022953724
49022959644
49022964344
49022970692
49022976368
49022980763
49022986744
49022993519
49022999317
49023004749
49023011768
49023018482
49023024464
49023029041
49023035389
49023041798
49023046802
49023052051
49023058338
49023063282
49023069691
49023074329
49023079456
49023085560
49023090870
49023095264
49023100574
49023106006
49023112903
49023117115
49023122852
49023127308
49023133167
49023140064
49023144703
49023150806
49023155384
49023161060
49023166492
49023171192
49023177784
49023181690
49023187183
49023193347
49023197925
49023203784
49023209400
49023216052
49023222583
49023227527
49023233508
49023237903
49023243213
49023247791
49023253955
49023259998
49023264392
49023269946
49023273975
49023279529
49023284412
49023289783
49023296252
49023300525
49023306140
49023310474
49023315845
49023323596
49023328967
49023334949
49023338794
49023343982
49023350085
49023353808
49023359302
49023364795
49023371631
49023375171
49023380725
49023386340
49023391284
49023397815
49023402331
49023408679
49023413318
49023418567
49023422534
49023427722
49023433581
49023438403
49023444140
49023450061
49023453906
49023459460
49023465136
49023470568
49023476123
49023483264
49023488574
49023495532
49023501757
49023506579
49023512805
49023518542
49023523913
49023529467
49023535449
49023539782
49023546435
49023551684
49023556872
49023562975
49023568163
49023575060
49023580126
49023585741
49023591784
49023597887
49023602099
49023607714
49023612475
49023617968
49023624071
49023630175
49023635485
49023640124
49023646593
49023651842
49023657702
49023663866
49023669604
49023674425
49023679980
49023684313
49023690111
49023696825
49023702990
49023708666
49023713549
49023720263
49023726549
49023731066
49023736681
49023743212
49023748156
49023754015
49023760057
49023765306
49023771044
49023775621
49023781053
49023787828
49023793077
49023799303
49023805284
49023810289
49023816332
49023821276
49023826280
49023831835
49023836412
49023842027
49023847643
49023853380
49023858019
49023863390
49023870226
49023875292
49023880846
49023886095
49023890978
49023897325
49023901842
49023907884
49023914293
49023919420
49023923997
49023929796
49023935045
49023939683
49023946886
49023951341
49023956956
49023962633
49023967637
49023973131
49023979539
49023986314
49023992113
49023996629
49024001390
49024007005
49024014268
49024020006
49024024888
49024029893
49024036607
49024041124
49024046067
49024052110
49024058152
49024063890
49024070481
49024074449
49024081895
49024088243
49024093675
49024098924
49024103318
49024108995
49024114915
49024120164
49024124436
49024131639
49024136277
49024141282
49024146165
49024151780
49024157517
49024163499
49024169541
49024175584
49024180528
49024185654
49024190415
49024196336
49024201035
49024207627
49024213547
49024219041
49024222764
49024228196
49024233323
49024239670
49024245408
49024250779
49024256394
49024262681
49024268296
49024273179
49024278733
49024284409
49024290513
49024295212
49024301743
49024306626
49024312363
49024317612
49024322129
49024326645
49024332383
49024337021
49024342392
49024347153
49024354111
49024359726
49024366074
49024371079
49024376267
49024383103
49024388413
49024394638
49024398972
49024405503
49024411301
49024416367
49024421921
49024427780
49024432663
49024438461
49024445297
49024450729
49024456711
49024463486
49024468735
49024475571
49024480637
49024487534
49024492844
49024498032
49024504196
49024510239
49024514633
49024520370
49024525314
49024532089
49024538071
49024543381
49024548080
49024553390
49024559128
49024566391
49024571762
49024577743
49024583053
49024587814
49024592636
49024598800
49024604843
49024610031
49024615829
49024621933
49024627182
49024631271
49024639267
49024644821
49024650375
49024655807
49024662216
49024667587
49024671371
49024677780
49024683395
49024688522
49024693832
49024699935
49024705245
49024712081
49024718490
49024723678
49024728317
49024733077
49024738815
49024744674
49024750228
49024756332
49024762191
49024767074
49024771957
49024776901
49024784286
49024788924
49024794234
49024799850
49024804671
49024810470
49024816695
49024822616
49024828231
49024833602
49024839278
49024845199
49024849837
49024857162
49024862289
49024868026
49024873519
49024878646
49024883895
49024890304
49024895675
49024902205
49024908065
49024912032
49024917403
49024923629
49024930281
49024935408
49024941756
49024946212
49024951949
49024957137
49024963057
49024968367
49024974105
49024978377
49024983626
49024989180
49024995284
49025002486
49025009017
49025013594
49025019515
49025025313
49025030806
49025037337
49025041792
49025047591
49025053816
49025059187
49025065474
49025072005
49025076704
49025084029
49025089583
49025095137
49025100447
49025106245
49025111067
49025116072
49025122359
49025127974
49025133955
49025140059
49025146101
49025151594
49025157149
49025162459
49025168013
49025174544
49025178633
49025186384
49025191878
49025197554
49025203779
49025208357
49025213667
49025220442
49025225874
49025231306
49025237471
49025241926
49025247663
49025254438
49025260603
49025265791
49025271406
49025276655
49025281355
49025287886
49025293379
49025299787
49025306196
49025311567
49025316084
49025321272
49025327192
49025331892
49025337934
49025343733
49025349653
49025355451
49025361250
49025367292
49025373396
49025378461
49025383649
49025387617
49025394331
49025399213
49025404890
49025410566
49025415449
49025420698
49025424970
49025430524
49025435163
49025440168
49025447675
49025452619
49025456220
49025461652
49025467267
49025474897
49025479963
49025485395
49025491132
49025495099
49025501203
49025507123
49025512250
49025518537
49025522565
49025527997
49025532392
49025538068
49025545514
49025551435
49025556195
49025562909
49025569684
49025573835
49025581220
49025585919
49025592633
49025598187
49025603437
49025609113
49025616132
49025622296
49025627423
49025633527
49025638104
49025644513
49025648969
49025655805
49025662885
49025667096
49025672650
49025678937
49025683698
49025689862
49025694745
49025700482
49025705365
49025711529
49025716168
49025721417
49025727460
49025733868
49025739117
49025745221
49025749737
49025756451
49025762677
49025767682
49025773297
49025779767
49025784771
49025789959
49025795697
49025801190
49025806866
49025812787
49025817547
49025823346
49025828778
49025835003
49025840130
49025845623
49025852337
49025856610
49025862530
49025867230
49025873028
49025878033
49025883526
49025889447
49025893658
49025900433
49025905804
49025911297
49025916973
49025922222
49025926190
49025932476
49025937908
49025943890
49025948956
49025953655
49025959515
49025963726
49025969585
49025976727
49025982159
49025986248
49025992229
49025997784
49026002300
49026007122
49026014690
49026019146
49026024273
49026030743
49026035015
49026040752
49026046978
49026052837
49026058697
49026063335
49026069439
49026074199
49026079510
49026085369
49026091411
49026096355
49026102825
49026107036
49026113079
49026118145
49026123272
49026129131
49026134990
49026139873
49026145732
49026151836
49026157695
49026163982
49026168804
49026174846
49026179729
49026187053
49026192424
49026198223
49026205181
49026209819
49026214519
49026220439
49026224590
49026231914
49026236614
49026242290
49026248637
49026253948
49026258098
49026265788
49026271404
49026276164
49026281169
49026286662
49026292644
49026298503
49026304790
49026310344
49026316264
49026320659
49026325297
49026330913
49026336467
49026342387
49026348002
49026352824
49026358317
49026363688
49026368693
49026374370
49026380107
49026385356
49026389995
49026394877
49026399882
49026404826
49026411174
49026418315
49026423076
49026427714
49026432536
49026438334
49026444011
49026448832
49026454570
49026458842
49026465495
49026470561
49026475321
49026481120
49026486003
49026491618
49026497721
49026501322
49026507182
49026511637
49026518229
49026524577
49026528788
49026534403
49026540202
49026545268
49026550822
49026556010
49026561991
49026567667
49026572306
49026577372
49026582316
49026589030
49026592753
49026596415
49026601298
49026606364
49026609843
49026614542
49026617899
49026623392
49026626688
49026631144
49026636027
49026640787
49026644266
49026648478
49026652323
49026655985
49026659952
49026663675
49026667765
49026672465
49026676066
49026680216
49026684061
49026688212
49026692606
49026698038
49026701761
49026706095
49026709635
49026715738
49026719523
49026723795
49026728434
49026733316
49026738077
49026742838
49026748575
49026752909
49026758097
49026762003
49026765604
49026771768
49026775736
49026779154
49026784525
49026788065
49026793619
49026797708
49026801798
49026807047
49026812601
49026816019
49026820413
49026823770
49026827738
49026833048
49026837747
49026841837
49026846048
49026850198
49026855142
49026858438
49026865030
49026869241
49026874735
49026878275
49026882242
49026886514
49026891397
49026896097
49026899759
49026905130
49026908914
49026913614
49026919229
49026924356
49026928506
49026932474
49026937784
49026942422
49026947305
49026951944
49026956033
49026959939
49026964517
49026968789
49026970498
49026977762
49026983682
49026987649
49026991983
49026995706
49027001260
49027005655
49027008950
49027013589
49027018472
49027022622
49027027017
49027031228
49027036294
49027040261
49027044839
49027048196
49027053384
49027056619
49027062722
49027066873
49027071267
49027075723
49027079995
49027083169
49027087014
49027090737
49027095498
49027100320
49027104470
49027107766
49027113992
49027118936
49027122476
49027126931
49027130044
49027134255
49027139504
49027143044
49027147622
49027151406
49027155129
49027159524
49027163491
49027169412
49027173867
49027178017
49027183083
49027187905
49027192788
49027198220
49027202554
49027206521
49027210122
49027214638
49027219155
49027222878
49027228738
49027232583
49027237404
49027241555
49027244179
49027248940
49027253884
49027257912
49027262795
49027267678
49027270302
49027274941
49027279397
49027282570
49027286660
49027290749
49027295144
49027298806
49027303322
49027306130
49027312172
49027316140
49027320290
49027324257
49027327858
49027332253
49027336586
49027341286
49027345192
49027349099
49027354592
49027358620
49027362892
49027368752
49027373818
49027377968
49027382241
49027387917
49027392189
49027395546
49027399208
49027402809
49027405861
49027410195
49027413063
49027416542
49027419533
49027423500
49027426247
49027429299
49027433693
49027436989
49027441261
49027445046
49027448464
49027452126
49027454750
49027458656
49027462196
49027465126
49027470131
49027473915
49027477272
49027480690
49027483437
49027486732
49027489967
49027492958
49027496132
49027499733
49027503700
49027506996
49027509926
49027512855
49027516151
49027518898
49027521950
49027524391
49027526710
49027529091
49027531593
49027534157
49027536415
49027539039
49027541176
49027543373
49027545387
49027547401
49027549599
49027552223
49027554359
49027556373
49027558265
49027560280
49027562355
49027564186
49027566017
49027567909
49027569862
49027571937
49027573646
49027575966
49027577919
49027579811
49027581764
49027583778
49027585853
49027587745
49027589821
49027591896
49027593849
49027595985
49027597938
49027600013
49027601539
49027603614
49027605507
49027607216
49027609230
49027611122
49027613197
49027615150
49027616981
49027619056
49027621193
49027622902
49027624549
49027626442
49027628639
49027630470
49027632423
49027634437
49027636268
49027638404
49027640358
49027641944
49027644020
49027645790
49027647926
49027649940
49027651832
49027653724
49027655616
49027657447
49027659278
49027661109
49027663185
49027665138
49027667213
49027668983
49027671302
49027673194
49027675148
49027676979
49027678810
49027680641
49027682472
49027684730
49027686805
49027688636
49027690467
49027692298
49027694557
49027696510
49027698402
49027700416
49027702369
49027704444
49027706214
49027708167
49027710121
49027712074
49027713966
49027715797
49027717689
49027719581
49027721473
49027723243
49027725135
49027727332
49027729225
49027731239
49027733314
49027735267
49027737708
49027739356
49027741370
49027743385
49027745399
49027747657
49027749488
49027751563
49027753394
49027755348
49027757667
49027759498
49027761451
49027763099
49027764869
49027766883
49027768775
49027770667
49027772742
49027774512
49027776283
49027778297
49027780067
49027782325
49027784095
49027786048
49027787879
49027789832
49027791907
49027793983
49027796119
49027798194
49027800147
49027802283
49027804298
49027806495
49027808570
49027810584
49027812415
49027814429
49027816688
49027818702
49027820716
49027822425
49027824439
49027826148
49027828101
49027830176
49027831763
49027833716
49027835853
49027837989
49027839881
49027841773
49027843604
49027845984
49027847938
49027850135
49027851844
49027853919
49027855750
49027857581
49027859839
49027861609
49027863379
49027865455
49027867164
49027869300
49027871070
49027873206
49027874915
49027876868
49027878882
49027880896
49027882667
49027884559
49027886695
49027888465
49027890540
49027892554
49027894202
49027896399
49027898291
49027900123
49027902381
49027904273
49027905982
49027908423
49027910315
49027912574
49027914466
49027916236
49027918494
49027920325
49027922034
49027923987
49027925757
49027928077
49027930091
49027931983
49027933814
49027936133
49027937964
49027939978
49027941687
49027943579
49027945838
49027947547
49027949561
49027951636
49027953406
49027955542
49027957495
49027959326
49027961402
49027963416
49027965430
49027967505
49027969824
49027971656
49027973609
49027975623
49027977515
49027979834
49027981482
49027983374
49027985266
49027987219
49027989356
49027991126
49027992957
49027994910
49027996863
49027998511
49028000464
49028002356
49028004248
49028006140
49028008216
49028010108
49028012000
49028014136
49028015906
49028017920
49028019873
49028021521
49028023902
49028025855
49028027930
49028029944
49028032080
49028034033
49028035986
49028037817
49028039771
49028041663
49028043555
49028045508
49028047583
49028049414
49028051306
49028053076
49028055029
49028057044
49028058997
49028061011
49028062903
49028064673
49028066931
49028069006
49028071265
49028073157
49028074988
49028077490
49028079199
49028081519
49028083289
49028085181
49028087500
49028089392
49028091528
49028093542
49028095190
49028097144
49028099036
49028101233
49028103125
49028104834
49028106604
49028108801
49028110693
49028112585
49028114416
49028116553
49028118445
49028120154
49028122168
49028124121
49028126074
49028128271
49028129980
49028131994
49028133948
49028135901
49028137976
49028139868
49028141821
49028144018
49028146033
49028147925
49028150000
49028151892
49028153906
49028155798
49028157690
49028159460
49028161413
49028163244
49028165075
49028167212
49028169165
49028171118
49028172888
49028174902
49028177160
49028178930
49028180945
49028182837
49028184546
49028186804
49028188696
49028190893
49028192663
49028194738
49028196631
49028198401
49028200476
49028202612
49028204443
49028206396
49028208349
49028210669
49028212561
49028214697
49028216467
49028218359
49028220190
49028222021
49028223913
49028225622
49028227636
49028229712
49028231604
49028233435
49028235327
49028237280
49028239294
49028241186
49028243322
49028245398
49028247351
49028249182
49028251196
49028253210
49028255102
49028257116
49028259130
49028261084
49028262976
49028264807
49028266699
49028268591
49028270544
49028272497
49028274572
49028276525
49028278356
49028280187
49028282080
49028283972
49028286047
49028287878
49028289709
49028291784
49028293737
49028295934
49028297705
49028299780
49028301611
49028303808
49028305883
49028307897
49028310156
49028312170
49028314062
49028315893
49028317663
49028319982
49028321935
49028323827
49028325720
49028327551
49028329382
49028331457
49028333349
49028335180
49028337133
49028338781
49028340612
49028342443
49028344335
49028346288
49028348119
49028350195
49028352453
49028354284
49028356664
49028358434
49028360510
49028362829
49028364721
49028366674
49028368505
49028370458
49028372778
49028374426
49028376257
49028378210
49028380163
49028382055
49028383764
49028385656
49028387853
49028389806
49028391393
49028393285
49028395544
49028397497
49028399328
49028401037
49028403051
49028405309
49028407079
49028408849
49028411169
49028412939
49028415441
49028417455
49028419164
49028421361
49028423376
49028425268
49028427282
49028429174
49028431432
49028433385
49028435338
49028437353
49028439184
49028441137
49028443151
49028444921
49028446874
49028448827
49028450658
49028452550
49028454503
49028456518
49028458837
49028460668
49028462865
49028464940
49028466894
49028469152
49028470983
49028473180
49028475438
49028477269
49028478978
49028481115
49028482885
49028485265
49028487157
49028489171
49028491185
49028493139
49028495092
49028496862
49028498815
49028500890
49028502782
49028504613
49028506627
49028508764
49028510778
49028512670
49028514623
49028516454
49028518834
49028520726
49028522985
49028524816
49028526830
49028529210
49028530980
49028533055
49028535070
49028536840
49028539281
49028541173
49028543553
49028545446
49028547521
49028549169
49028551183
49028553441
49028555089
49028556798
49028558629
49028560643
49028562718
49028564488
49028566564
49028568212
49028570348
49028572362
49028574315
49028576268
49028578221
49028579991
49028582250
49028584203
49028586400
49028588414
49028590184
49028592443
49028594274
49028596349
49028598607
49028600438
49028602086
49028604222
49028606053
49028608129
49028609838
49028611546
49028613439
49028615209
49028617162
49028619054
49028620946
49028623021
49028624730
49028626561
49028628575
49028630834
49028632848
49028634740
49028636693
49028639012
49028640660
49028642369
49028644627
49028646581
49028648778
49028650670
49028653233
49028655064
49028656957
49028658910
49028660802
49028662633
49028664586
49028666417
49028668309
49028670201
49028672032
49028673924
49028675877
49028677830
49028679662
49028681798
49028683690
49028685521
49028687535
49028689305
49028691258
49028693394
49028695775
49028697606
49028699681
49028701817
49028703648
49028706212
49028708165
49028709874
49028711827
49028714146
49028716160
49028718236
49028720372
49028722264
49028724217
49028726109
49028727879
49028729893
49028731663
49028733800
49028735692
49028737462
49028739537
49028741551
49028743199
49028745457
49028747410
49028749547
49028751500
49028753453
49028755345
49028757237
49028759312
49028761448
49028763402
49028765111
49028767247
49028769200
49028770970
49028772984
49028774693
49028776707
49028778538
49028780491
49028782506
49028784153
49028786229
49028788182
49028790074
49028792210
49028794041
49028796055
49028798253
49028800267
49028802281
49028804112
49028806370
49028808445
49028810337
49028812352
49028814427
49028816868
49028818577
49028820530
49028822606
49028824498
49028826695
49028828587
49028830479
49028832371
49028834446
49028836155
49028837925
49028839756
49028841771
49028843724
49028845921
49028847813
49028850010
49028851780
49028853794
49028855748
49028857640
49028859898
49028861851
49028863682
49028865513
49028867466
49028869480
49028871800
49028873509
49028875401
49028877354
49028879124
49028881016
49028882847
49028884739
49028886936
49028888645
49028890476
49028892430
49028894322
49028896092
49028897984
49028900059
49028902256
49028904148
49028906040
49028908055
49028909825
49028912022
49028913914
49028916233
49028918186
49028920200
49028922032
49028923985
49028926365
49028928257
49028930149
49028931919
49028933811
49028935886
49028937840
49028939732
49028941502
49028943455
49028945591
49028947483
49028949558
49028951389
49028953404
49028955723
49028957554
49028959934
49028961643
49028963657
49028965672
49028967442
49028969761
49028971836
49028973850
49028975742
49028977756
49028979954
49028981724
49028983677
49028985508
49028987400
49028989170
49028991184
49028993015
49028995029
49028996921
49028998875
49029000706
49029002598
49029004551
49029006321
49029008335
49029010105
49029012485
49029014316
49029016147
49029018406
49029020176
49029022617
49029024448
49029026218
49029028110
49029030063
49029032078
49029033970
49029035923
49029037632
49029039524
49029041355
49029043308
49029045383
49029046970
49029048984
49029050632
49029052524
49029054905
49029056675
49029058750
49029060581
49029062595
49029065098
49029066929
49029068943
49029071140
49029073093
49029075412
49029077305
49029079075
49029081211
49029082920
49029085056
49029086887
49029088657
49029091221
49029093052
49029095005
49029096897
49029098850
49029100620
49029102451
49029104404
49029106113
49029108493
49029110325
49029112278
49029114414
49029116184
49029118747
49029120395
49029122348
49029124668
49029126560
49029128513
49029130405
49029132236
49029134433
49029136264
49029138095
49029139988
49029142063
49029144321
49029146152
49029148105
49029150058
49029151950
49029153903
49029155796
49029157871
49029159580
49029161594
49029163547
49029165317
49029167514
49029169345
49029171176
49029173068
49029174900
49029177097
49029178867
49029180942
49029182773
49029184848
49029186984
49029188999
49029191318
49029193332
49029195224
49029197360
49029199252
49029201206
49029203098
49029205234
49029207187
49029208896
49029211093
49029212985
49029214816
49029216647
49029218540
49029220676
49029222324
49029224216
49029226230
49029228122
49029230258
49029232272
49029234775
49029236667
49029238376
49029240695
49029242465
49029244602
49029246494
49029248508
49029250278
49029251987
49029254123
49029255954
49029257724
49029259555
49029261752
49029263644
49029265475
49029267551
49029269504
49029271396
49029273288
49029274997
49029277011
49029279086
49029280917
49029282870
49029284701
49029287021
49029288913
49029291110
49029292941
49029294711
49029296970
49029298984
49029300937
49029302707
49029304721
49029306674
49029308688
49029310397
49029312106
49029314365
49029316196
49029317966
49029320102
49029322116
49029323947
49029325961
49029327731
49029329867
49029331882
49029333713
49029335788
49029337619
49029339877
49029341647
49029343356
49029345675
49029347751
49029350009
49029352084
49029354648
49029356479
49029358432
49029360507
49029362155
49029364535
49029366488
49029368258
49029370028
49029371859
49029373935
49029375583
49029377719
49029379672
49029381503
49029383517
49029385348
49029387362
49029389315
49029391269
49029393527
49029395480
49029397372
49029399814
49029401645
49029403903
49029405551
49029408114
49029409945
49029411776
49029413546
49029415561
49029417880
49029419528
49029421481
49029423556
49029425387
49029427462
49029429232
49029431308
49029433322
49029435641
49029437289
49029439181
49029441256
49029443515
49029445468
49029447543
49029449496
49029451327
49029453829
49029455661
49029457675
49029459567
49029461886
49029463778
49029465853
49029468112
49029469943
49029472140
49029473971
49029476046
49029478121
49029479952
49029481539
49029483554
49029485629
49029487338
49029489230
49029491122
49029493075
49029494906
49029497347
49029499178
49029501498
49029503329
49029505343
49029507418
49029509310
49029511447
49029513217
49029515475
49029517367
49029519137
49029521395
49029523287
49029525240
49029527133
49029528780
49029531039
49029532687
49029534579
49029536349
49029538302
49029540316
49029542208
49029544161
49029546236
49029548068
49029549899
49029551974
49029553988
49029556124
49029558199
49029559969
49029562289
49029564303
49029566134
49029567965
49029570162
49029572054
49029574313
49029576266
49029578707
49029580538
49029582430
49029584383
49029586398
49029588290
49029590182
49029592196
49029593905
49029595919
49029598238
49029600191
49029602145
49029603915
49029605807
49029608065
49029609896
49029611727
49029613497
49029615511
49029617708
49029619662
49029621737
49029623690
49029625521
49029627779
49029629610
49029631747
49029633761
49029635775
49029637667
49029639498
49029641451
49029643221
49029645113
49029647005
49029648897
49029650789
49029652743
49029655062
49029656893
49029658907
49029660616
49029662569
49029664644
49029666475
49029668551
49029670382
49029672457
49029674532
49029676302
49029678438
49029680575
49029682345
49029684603
49029686434
49029688753
49029690767
49029692720
49029694613
49029696627
49029698519
49029700228
49029702181
49029703890
49029705843
49029707979
49029709993
49029711519
49029713411
49029715425
49029717562
49029719271
49029721163
49029723299
49029725130
49029727510
49029729464
49029731478
49029733492
49029735384
49029737886
49029739778
49029742037
49029743929
49029746126
49029747896
49029749849
49029751802
49029753511
49029755525
49029757357
49029759371
49029761202
49029763033
49029765108
49029766878
49029768709
49029770601
49029772493
49029774874
49029776644
49029779207
49029780855
49029782869
49029784883
49029786836
49029788912
49029790682
49029792696
49029794771
49029796785
49029798372
49029800386
49029802339
49029804231
49029806062
49029808077
49029809786
49029811617
49029813509
49029815462
49029817415
49029819246
49029821077
49029823030
49029824922
49029827120
49029829012
49029830965
49029832735
49029834810
49029836824
49029838655
49029841036
49029842928
49029844881
49029846895
49029848726
49029851289
49029852998
49029854890
49029856905
49029858736
49029861055
49029862886
49029864839
49029866609
49029868623
49029870576
49029872346
49029874239
49029876253
49029878023
49029880220
49029882295
49029884370
49029886201
49029888032
49029889925
49029891878
49029894136
49029896211
49029898103
49029899995
49029901887
49029904329
49029906282
49029908174
49029910127
49029912080
49029914094
49029916048
49029918123
49029920076
49029922212
49029923921
49029925813
49029927522
49029929597
49029931489
49029933259
49029935090
49029937166
49029939119
49029941011
49029943086
49029945161
49029947420
49029949190
49029951143
49029953096
49029955232
49029957429
49029959321
49029961213
49029963106
49029965059
49029967012
49029968965
49029970674
49029972627
49029974641
49029976655
49029978425
49029980500
49029982515
49029984468
49029986421
49029988374
49029990571
49029992219
49029994233
49029996492
49029998323
49030000703
49030002473
49030004182
49030006562
49030008455
49030010469
49030012300
49030014497
49030016328
49030018342
49030020112
49030021943
49030023835
49030026033
49030027864
49030029695
49030031587
49030033540
49030035371
49030037446
49030039460
49030041474
49030043550
49030045320
49030047212
49030049592
49030051362
49030053681
49030055574
49030057405
49030059602
49030061494
49030063203
49030065217
49030066987
49030069245
49030071260
49030073091
49030074800
49030076997
49030078828
49030080659
49030082368
49030084321
49030086213
49030088105
49030090058
49030092134
49030094148
49030095979
49030097932
49030099763
49030101838
49030103730
49030105622
49030107453
49030109284
49030111360
49030113191
49030115388
49030117524
49030119599
49030121552
49030123322
49030125703
49030127595
49030129426
49030131257
49030133149
49030135285
49030137116
49030139191
49030141023
49030143037
49030145112
49030147004
49030148957
49030150849
49030152680
49030154694
49030156770
49030158845
49030160859
49030162873
49030164948
49030166718
49030168916
49030170747
49030172578
49030174348
49030176240
49030178376
49030180207
49030182038
49030184052
49030185761
49030187897
49030189790
49030191437
49030193330
49030195405
49030197114
49030199128
49030201508
49030203461
49030205537
49030207307
49030209260
49030211274
49030213044
49030214997
49030217133
49030219147
49030221100
49030223115
49030225190
49030226960
49030228974
49030230866
49030232636
49030234284
49030236176
49030238190
49030239960
49030241730
49030243622
49030245576
49030247590
49030249360
49030251374
49030253632
49030255585
49030257538
49030259553
49030261384
49030263398
49030265534
49030267914
49030269684
49030271637
49030273774
49030275544
49030278168
49030280060
49030281952
49030284028
49030285798
49030288056
49030289948
49030291718
49030293793
49030295807
49030297516
49030299653
49030301484
49030303315
49030305268
49030307160
49030309052
49030311005
49030312714
49030314972
49030317047
49030318940
49030321198
49030323151
49030325043
49030327057
49030329071
49030331086
49030333283
49030334992
49030337189
49030338959
49030340668
49030342560
49030344574
49030346344
49030348358
49030350251
49030352204
49030354279
49030356110
49030358185
49030359955
49030361908
49030363983
49030365875
49030367707
49030369843
49030371613
49030373871
49030375763
49030377655
49030379730
49030381684
49030383637
49030385529
49030387360
49030389923
49030391754
49030393646
49030395661
49030397858
49030399628
49030401581
49030403290
49030405182
49030407379
49030409088
49030410980
49030413178
49030415131
49030417572
49030419403
49030421478
49030423431
49030425324
49030427338
49030429169
49030431732
49030433685
49030435883
49030437775
49030439789
49030442047
49030444000
49030445892
49030447784
49030449554
49030451752
49030453583
49030455475
49030457489
49030459320
49030461212
49030463104
49030465057
49030466888
49030468842
49030470551
49030472443
49030474945
49030476776
49030478729
49030480560
49030482513
49030484833
49030486786
49030488617
49030490570
49030492645
49030494537
49030496551
49030498382
49030500397
49030502533
49030504303
49030506256
49030508392
49030510040
49030512115
49030513763
49030515961
49030517914
49030519867
49030521759
49030523834
49030525726
49030527984
49030529877
49030531769
49030533966
49030535919
49030538116
49030540191
49030542267
49030544220
49030546295
49030547943
49030550018
49030552459
49030554413
49030556366
49030558258
49030560211
49030562225
49030564239
49030566009
49030567962
49030569793
49030572052
49030574127
49030576080
49030578216
49030580230
49030582428
49030584198
49030586517
49030588531
49030590606
49030592498
49030594268
49030596588
49030598541
49030600494
49030602386
49030604400
49030606414
49030608307
49030610138
49030611847
49030613861
49030615631
49030617401
49030619232
49030621368
49030623199
49030624969
49030626861
49030628936
49030630767
49030632598
49030634491
49030636505
49030638885
49030640716
49030642669
49030644805
49030646698
49030648956
49030650787
49030652740
49030654571
49030656585
49030658416
49030660308
49030662017
49030664031
49030665863
49030667633
49030669586
49030671661
49030673675
49030675628
49030677703
49030679595
49030681915
49030683746
49030685577
49030687713
49030689422
49030691924
49030693817
49030695648
49030697906
49030699859
49030701751
49030703643
49030705413
49030707671
49030709258
49030711456
49030713287
49030715118
49030717437
49030719268
49030721160
49030723235
49030725250
49030727142
49030728912
49030730987
49030732818
49030734710
49030736480
49030738494
49030740508
49030742400
49030744720
49030746673
49030748504
49030750579
49030752532
49030754363
49030756255
49030758331
49030760467
49030762298
49030764556
49030766326
49030768035
49030770293
49030772002
49030774017
49030775726
49030777679
49030779449
49030781341
49030783599
49030785308
49030787322
49030789031
49030790923
49030793120
49030795074
49030797210
49030799285
49030801299
49030803619
49030805450
49030807647
49030809539
49030811736
49030813689
49030815398
49030817657
49030819610
49030821624
49030823394
49030825286
49030827117
49030828948
49030830840
49030832610
49030834685
49030836577
49030838592
49030840484
49030842620
49030844817
49030846770
49030848662
49030850676
49030852691
49030854766
49030856658
49030858489
49030860625
49030862639
49030864715
49030866546
49030868316
49030870513
49030872527
49030874358
49030876433
49030878325
49030880401
49030882354
49030884307
49030886321
49030888274
49030890105
49030891936
49030894194
49030896087
49030897734
49030899566
49030901519
49030903899
49030905730
49030907622
49030909575
49030911406
49030913543
49030915496
49030917815
49030919585
49030921538
49030923918
49030925750
49030928252
49030929900
49030932158
49030933989
49030935942
49030938079
49030939971
49030941985
49030943877
49030945891
49030947783
49030949797
49030951934
49030953643
49030956084
49030957793
49030959868
49030961821
49030963652
49030965850
49030967742
49030969634
49030971892
49030973845
49030975737
49030977629
49030979888
49030981719
49030983611
49030985625
49030987456
49030989592
49030991484
49030993376
49030995207
49030997099
49030998992
49031001067
49031002898
49031004729
49031006743
49031008513
49031010527
49031012785
49031014617
49031016570
49031018401
49031020354
49031022795
49031024809
49031026824
49031028471
49031030425
49031032561
49031034392
49031036345
49031038115
49031040190
49031042021
49031043913
49031045988
49031048003
49031049895
49031051726
49031053618
49031055693
49031057585
49031059416
49031061613
49031063628
49031065703
49031067656
49031069426
49031071501
49031073698
49031075835
49031077727
49031080046
49031081694
49031083830
49031085844
49031087614
49031089690
49031091765
49031093535
49031095305
49031097197
49031099516
49031101408
49031103422
49031105315
49031107268
49031109343
49031111418
49031113493
49031115263
49031117277
49031119475
49031121428
49031123686
49031125639
49031127592
49031129545
49031131560
49031133757
49031135466
49031137480
49031139433
49031141386
49031143095
49031145170
49031147062
49031148832
49031150602
49031152495
49031154448
49031157072
49031158781
49031160612
49031162321
49031164213
49031166472
49031168608
49031170683
49031172453
49031174223
49031176603
49031178495
49031180571
49031182646
49031184416
49031186491
49031188261
49031190336
49031192228
49031194181
49031196013
49031197783
49031199553
49031201506
49031203398
49031205351
49031207426
49031209623
49031211454
49031213469
49031215239
49031217375
49031219572
49031221159
49031223112
49031225065
49031227079
49031229216
49031230986
49031233244
49031235136
49031237089
49031239042
49031241056
49031243193
