49206815863
49206821723
49206826239
49206833685
49206841132
49206846686
49206853095
49206858527
49206866095
49206872260
49206879034
49206886725
49206893195
49206902533
49206909186
49206915655
49206924872
49206932745
49206939886
49206948004
49206953802
49206959845
49206967291
49206974737
49206982306
49206989630
49206995733
49207004156
49207012030
49207019171
49207026251
49207034002
49207039984
49207047613
49207055242
49207062262
49207070257
49207079351
49207086370
49207093023
49207100286
49207104864
49207113226
49207120245
49207126165
49207133184
49207139959
49207145025
49207151617
49207157598
49207165289
49207174322
49207182378
49207188238
49207195867
49207201910
49207208807
49207216741
49207223821
49207231512
49207239324
49207245122
49207253057
49207258123
49207266118
49207272771
49207280889
49207287298
49207294683
49207302312
49207307378
49207313665
49207321416
49207330693
49207337590
49207345586
49207351445
49207357671
49207364934
49207371038
49207380498
49207388188
49207394536
49207400151
49207407231
49207414433
49207420354
49207428044
49207435552
49207441228
49207449590
49207454656
49207462468
49207467107
49207474675
49207483525
49207491765
49207496953
49207504643
49207509526
49207517338
49207524113
49207529973
49207538518
49207546269
49207550786
49207558171
49207563908
49207571171
49207577214
49207585026
49207593876
49207600285
49207608159
49207614079
49207620488
49207627446
49207635197
49207641423
49207649662
49207655827
49207663029
49207669682
49207675358
49207681767
49207690434
49207698918
49207704533
49207713322
49207718693
49207725712
49207733708
49207739201
49207747746
49207756718
49207762760
49207771305
49207776676
49207785282
49207790653
49207798954
49207807255
49207816227
49207823429
49207830448
49207836735
49207843876
49207852665
49207860294
49207867985
49207875797
49207884464
49207894901
49207901981
49207911136
49207919559
49207928897
49207935917
49207943119
49207950748
49207959415
49207967105
49207974979
49207982974
49207989017
49208000614
49208006961
49208013614
49208023502
49208028873
49208037967
49208045535
49208052432
49208063052
49208069339
49208077274
49208086124
49208091556
49208100284
49208108585
49208115665
49208124515
49208133731
49208139834
49208148746
49208154971
49208163882
49208171695
49208178592
49208187137
49208194400
49208202090
49208210818
49208218081
49208224917
49208231326
49208240786
49208250186
49208258120
49208267337
49208274722
49208281985
49208289981
49208297366
49208305544
49208312197
49208323733
49208330630
49208338748
49208345217
49208352908
49208362490
49208368838
49208378664
49208385134
49208395022
49208401614
49208410952
49208418032
49208425112
49208432925
49208440859
49208452822
49208460879
49208468508
49208475832
49208482241
49208492128
49208498537
49208506472
49208514223
49208524416
49208528872
49208541018
49208545046
49208554628
49208563051
49208570986
49208577639
49208589174
49208596620
49208604799
49208610903
49208619814
49208627931
49208633302
49208642946
49208653017
49208659425
49208665773
49208674928
49208682375
49208689821
49208697267
49208705202
49208716981
49208724794
49208733644
49208740968
49208750429
49208757875
49208765138
49208773683
49208782716
49208791078
49208798768
49208806581
49208814088
49208821656
49208827455
49208836305
49208844728
49208852784
49208859620
49208867189
49208873780
49208881349
49208888063
49208894654
49208903810
49208910462
49208918092
49208924684
49208931458
49208938783
49208946107
49208954530
49208963258
49208970948
49208979310
49208987244
49208994935
49209003419
49209011170
49209020203
49209027405
49209036317
49209044678
49209051209
49209058838
49209066834
49209074952
49209082032
49209089844
49209098023
49209105713
49209112061
49209118958
49209127076
49209134644
49209140320
49209149903
49209156128
49209163636
49209170105
49209178894
49209186157
49209193787
49209203491
49209210632
49209218262
49209225281
49209234558
49209244019
49209252869
49209260803
49209267456
49209274292
49209278381
49209285950
49209292236
49209298157
49209304138
49209309631
49209315674
49209319885
49209326355
49209332275
49209338989
49209343384
49209349609
49209355041
49209359680
49209365234
49209371216
49209378540
49209382995
49209388183
49209394104
49209398742
49209404724
49209409668
49209415954
49209422180
49209428772
49209433715
49209438598
49209443786
49209449157
49209455444
49209461364
49209466491
49209473205
49209479492
49209485900
49209491516
49209496765
49209500976
49209508239
49209512756
49209518615
49209524291
49209530639
49209535217
49209540160
49209546264
49209552123
49209557555
49209562011
49209567443
49209571227
49209576842
49209583190
49209588683
49209593322
49209598754
49209603271
49209607238
49209613097
49209619079
49209624999
49209628539
49209635314
49209639892
49209645080
49209649535
49209655211
49209661193
49209666320
49209672362
49209677184
49209682555
49209686950
49209692504
49209699218
49209704284
49209708922
49209714354
49209719115
49209724547
49209729125
49209734801
49209740599
49209745421
49209751952
49209757201
49209762267
49209766844
49209772582
49209778563
49209783019
49209788939
49209793334
49209798705
49209803038
49209808592
49209816344
49209819090
49209826231
49209831297
49209836058
49209841307
49209847167
49209853148
49209858763
49209862059
49209868529
49209872313
49209877745
49209882323
49209887938
49209894102
49209899351
49209905150
49209910521
49209915831
49209920103
49209925658
49209930479
49209936644
49209942015
49209946898
49209951597
49209955198
49209962156
49209967039
49209973265
49209978209
49209983641
49209988340
49209993834
49209997679
49210003294
49210009336
49210013426
49210020018
49210025267
49210030027
49210035093
49210040831
49210046080
49210052122
49210056089
49210061460
49210066282
49210071531
49210076658
49210082701
49210087583
49210093565
49210098264
49210102720
49210108579
49210114256
49210119871
49210125425
49210129453
49210135862
49210139463
49210146238
49210150816
49210155515
49210161924
49210167905
49210172910
49210178648
49210184812
49210191160
49210195982
49210201108
49210207517
49210212461
49210218748
49210223997
49210229734
49210235288
49210240659
49210246396
49210251401
49210257139
49210261472
49210267270
49210272153
49210277829
49210282712
49210288694
49210294126
49210299619
49210304136
49210309568
49210314084
49210320127
49210326474
49210330747
49210338071
49210342160
49210347898
49210355161
49210361081
49210365659
49210372251
49210377011
49210383420
49210387998
49210393857
49210398679
49210404355
49210410153
49210415463
49210421201
49210427609
49210432675
49210438657
49210443784
49210449338
49210454953
49210458737
49210465329
49210469907
49210475400
49210481686
49210486081
49210492062
49210497739
49210501889
49210506955
49210512570
49210518246
49210524228
49210528866
49210532529
49210538388
49210543637
49210549496
49210554501
49210560483
49210565854
49210569943
49210575619
49210581112
49210585263
49210591000
49210597775
49210602353
49210606869
49210612301
49210617245
49210622311
49210628109
49210633969
49210640011
49210644467
49210650021
49210654110
49210660763
49210665402
49210670651
49210676693
49210681149
49210687008
49210691220
49210697018
49210702389
49210706539
49210713375
49210718929
49210723690
49210729122
49210733700
49210739315
49210743954
49210749203
49210755367
49210760189
49210765804
49210772396
49210776302
49210784115
49210788509
49210794491
49210800960
49210806637
49210812008
49210817806
49210822506
49210827083
49210833309
49210838497
49210843929
49210848629
49210854000
49210858150
49210863826
49210870418
49210874874
49210880672
49210884639
49210890499
49210894466
49210900203
49210906551
49210911495
49210916011
49210921199
49210927669
49210933406
49210938228
49210943965
49210950008
49210955562
49210959835
49210965694
49210969844
49210974605
49210980220
49210987422
49210992732
49210997493
49211002376
49211008296
49211012508
49211018367
49211023006
49211029353
49211034175
49211039668
49211044063
49211049556
49211054805
49211060970
49211067073
49211071773
49211076289
49211081172
49211086970
49211091670
49211097285
49211102412
49211108394
49211113765
49211119075
49211123591
49211128963
49211133784
49211139461
49211145503
49211151301
49211157100
49211163142
49211169001
49211173823
49211179377
49211185481
49211190730
49211196528
49211202266
49211208308
49211213191
49211218745
49211223872
49211229182
49211235286
49211239253
49211245051
49211249690
49211255061
49211260981
49211265132
49211271723
49211275447
49211280879
49211286860
49211291377
49211296443
49211302546
49211307612
49211313715
49211319941
49211326350
49211331233
49211336482
49211342646
49211348017
49211354121
49211360651
49211364741
49211371333
49211376582
49211382380
49211387385
49211392634
49211397150
49211402399
49211407343
49211413080
49211420466
49211425776
49211430475
49211435419
49211441157
49211445734
49211451349
49211456354
49211462519
49211467646
49211473322
49211478205
49211482966
49211487482
49211496027
49211501581
49211506159
49211510309
49211517511
49211521418
49211527033
49211533258
49211537775
49211543940
49211548639
49211553339
49211557794
49211563410
49211570490
49211575861
49211581232
49211584955
49211590387
49211596430
49211600763
49211607904
49211613214
49211619196
49211623407
49211628534
49211634760
49211641229
49211646722
49211652887
49211657465
49211664239
49211669000
49211675409
49211681695
49211686822
49211692804
49211698480
49211703729
49211708734
49211714899
49211720209
49211727167
49211733087
49211738092
49211743707
49211749933
49211753961
49211760187
49211766656
49211770868
49211776910
49211781488
49211787469
49211794244
49211798944
49211805108
49211811883
49211815972
49211822259
49211826715
49211833062
49211839044
49211845391
49211850274
49211855584
49211861016
49211867425
49211873956
49211878289
49211883843
49211889825
49211895013
49211901605
49211907342
49211913506
49211918328
49211924615
49211930230
49211936089
49211942803
49211947076
49211953362
49211959527
49211965935
49211972527
49211976861
49211982720
49211988641
49211993706
49211999383
49212005669
49212010613
49212016228
49212022088
49212027276
49212031609
49212037957
49212044365
49212049676
49212055230
49212060906
49212065728
49212070916
49212076348
49212082940
49212088128
49212092705
49212097893
49212102288
49212108147
49212113335
49212118828
49212125298
49212130730
49212136589
49212142998
49212149346
49212153801
49212159905
49212166008
49212171990
49212176872
49212184441
49212188164
49212195488
49212201470
49212205864
49212212090
49212218498
49212222832
49212229668
49212235893
49212240715
49212246574
49212252251
49212257988
49212264214
49212269951
49212275017
49212279472
49212286064
49212292412
49212296257
49212301994
49212308891
49212313164
49212319206
49212325615
49212331535
49212336296
49212342155
49212347404
49212354362
49212360771
49212365898
49212371879
49212377372
49212382560
49212388054
49212394035
49212399833
49212406181
49212410698
49212416740
49212422111
49212427116
49212434562
49212439201
49212444877
49212451774
49212456840
49212461112
49212467887
49212471977
49212478752
49212484123
49212489433
49212494682
49212501029
49212506584
49212511405
49212518058
49212523246
49212528983
49212533866
49212539603
49212544303
49212549735
49212556815
49212561088
49212567069
49212572379
49212578300
49212584220
49212589896
49212595023
49212599784
49212606315
49212610648
49212615226
49212621940
49212628043
49212631827
49212637931
49212643790
49212649161
49212654044
49212661063
49212664603
49212670768
49212677726
49212683829
49212688712
49212695060
49212699576
49212705863
49212710624
49212717520
49212723014
49212728507
49212733573
49212739188
49212744864
49212750785
49212756400
49212761710
49212767203
49212773184
49212778678
49212785086
49212789237
49212794180
49212799552
49212805655
49212809866
49212815604
49212823355
49212828360
49212834158
49212838736
49212845267
49212851370
49212856802
49212861197
49212866812
49212872977
49212879080
49212884817
49212888968
49212896048
49212901114
49212905997
49212912344
49212917044
49212922842
49212928763
49212934134
49212939871
49212945303
49212949759
49212956778
49212962881
49212968618
49212974173
49212978628
49212984793
49212989859
49212994192
49213001760
49213006887
49213013235
49213019155
49213022879
49213030081
49213035086
49213041067
49213046804
49213053701
49213058279
49213065786
49213071646
49213076711
49213082754
49213088308
49213093191
49213098623
49213103567
49213110586
49213115713
49213121755
49213125906
49213131216
49213135732
49213141775
49213148367
49213154409
49213158865
49213164419
49213169973
49213175039
49213180898
49213185232
49213191213
49213196584
49213201345
49213205373
49213212026
49213216787
49213222829
49213228994
49213234426
49213241750
49213247243
49213254018
49213259023
49213265676
49213270437
49213276967
49213282460
49213288686
49213294362
49213299306
49213306325
49213311025
49213316030
49213322316
49213327382
49213333364
49213339589
49213344655
49213350514
49213354604
49213360768
49213367299
49213371511
49213377797
49213382924
49213387319
49213392812
49213399648
49213404591
49213410024
49213415578
49213421803
49213426686
49213431508
49213437550
49213443227
49213449147
49213452687
49213459035
49213464406
49213469044
49213475270
49213480946
49213485219
49213490895
49213497670
49213503285
49213507863
49213513478
49213520497
49213525807
49213529408
49213536000
49213540272
49213546071
49213550953
49213556874
49213562855
49213568898
49213574452
49213580128
49213586232
49213590748
49213597035
49213602162
49213607899
49213614430
49213618397
49213625050
49213630726
49213635853
49213640980
49213646656
49213650929
49213655628
49213661061
49213665577
49213672352
49213678089
49213682545
49213687855
49213692066
49213697559
49213703541
49213719715
49213724903
49213729847
49213736866
49213741077
49213746754
49213753345
49213758778
49213763721
49213769337
49213774891
49213780872
49213784595
49213791859
49213797230
49213801868
49213806690
49213812488
49213816700
49213822437
49213827137
49213832874
49213837208
49213842579
49213848682
49213852283
49213858020
49213864063
49213870105
49213875049
49213880970
49213885059
49213890979
49213895862
49213901477
49213906116
49213912036
49213917957
49213921680
49213927906
49213933155
49213937854
49213942920
49213948841
49213953845
49213959094
49213963733
49213969104
49213974719
49213980090
49213986316
49213991321
49213995899
49214000354
49214006152
49214011768
49214016101
49214023181
49214029102
49214032947
49214038440
49214044543
49214049365
49214053882
49214060229
49214066150
49214071582
49214077075
49214081287
49214086780
49214090930
49214096545
49214103076
49214106982
49214113269
49214118396
49214122973
49214128345
49214132983
49214138843
49214144580
49214148242
49214153613
49214158191
49214163562
49214169665
49214173632
49214180346
49214185901
49214190661
49214195422
49214201220
49214205371
49214211291
49214217639
49214221667
49214228686
49214232348
49214238146
49214243395
49214249133
49214253832
49214260058
49214265002
49214270312
49214275073
49214280688
49214286120
49214289965
49214297411
49214302538
49214307055
49214312487
49214317126
49214321886
49214327685
49214333605
49214338244
49214343310
49214348742
49214354235
49214357836
49214364550
49214370165
49214376147
49214382250
49214386645
49214391772
49214397082
49214401598
49214407397
49214413927
49214417772
49214424181
49214428759
49214433520
49214439562
49214444201
49214450548
49214455309
49214460680
49214466173
49214470141
49214475634
49214481005
49214486925
49214493029
49214497911
49214502550
49214508165
49214512804
49214518846
49214524340
49214529039
49214534838
49214540392
49214544115
49214550829
49214554369
49214560716
49214566393
49214571398
49214577562
49214581835
49214586778
49214592272
49214597337
49214603014
49214608080
49214613573
49214619432
49214624010
49214629808
49214634081
49214638780
49214645311
49214649950
49214654710
49214660020
49214664720
49214670091
49214674974
49214681322
49214686510
49214690599
49214697984
49214702012
49214707811
49214713914
49214719407
49214724534
49214730516
49214735216
49214740709
49214745347
49214750596
49214755174
49214762315
49214766893
49214772203
49214778123
49214781541
49214788194
49214792955
49214798143
49214804063
49214808091
49214814622
49214819810
49214824449
49214828782
49214834580
49214840989
49214845384
49214849961
49214855271
49214861070
49214866075
49214870408
49214876084
49214883225
49214886033
49214893113
49214898606
49214903001
49214908921
49214913194
49214920762
49214924973
49214930650
49214935838
49214941636
49214945847
49214951524
49214955796
49214961838
49214966904
49214972336
49214978196
49214983689
49214989670
49214995103
49215000901
49215005723
49215010972
49215016770
49215020493
49215026597
49215032334
49215037095
49215042038
49215047959
49215052720
49215058518
49215063889
49215068406
49215073777
49215079880
49215085556
49215089341
49215095627
49215099289
49215105088
49215110764
49215116745
49215121750
49215127182
49215131394
49215136765
49215141770
49215147446
49215152451
49215157761
49215162583
49215168259
49215172897
49215178269
49215182907
49215188522
49215193039
49215197983
49215203903
49215208237
49215213730
49215218857
49215224655
49215230331
49215234604
49215241440
49215245895
49215251755
49215255783
49215261703
49215268417
49215272934
49215277145
49215283737
49215287399
49215292892
49215298874
49215304184
49215310531
49215315231
49215319748
49215324631
49215330490
49215335251
49215340988
49215345504
49215350998
49215355575
49215361129
49215366134
49215370956
49215376083
49215381881
49215386520
49215392074
49215396835
49215402389
49215407211
49215411727
49215417648
49215423446
49215429244
49215433395
49215438766
49215443099
49215448471
49215454330
49215458663
49215466171
49215469283
49215476608
49215481490
49215486312
49215492111
49215497604
49215501998
49215507736
49215511947
49215517318
49215523605
49215528609
49215533309
49215538985
49215544845
49215548751
49215554732
49215558761
49215564620
49215570296
49215574691
49215581710
49215585616
49215590621
49215596664
49215601485
49215605208
49215611129
49215617782
49215623763
49215628707
49215634200
49215638961
49215644698
49215652266
49215658187
49215662825
49215669051
49215674483
49215680098
49215683699
49215690230
49215695357
49215701827
49215707442
49215712935
49215717330
49215722640
49215727523
49215733504
49215739607
49215743514
49215749983
49215754256
49215760176
49215765547
49215770186
49215775496
49215782698
49215786910
49215792281
49215796858
49215802351
49215807112
49215812911
49215819868
49215825179
49215829878
49215834090
49215839949
49215844221
49215850081
49215856001
49215860640
49215866438
49215871199
49215875288
49215880781
49215886214
49215891402
49215897383
49215902571
49215907332
49215912825
49215916975
49215922529
49215928145
49215932722
49215938521
49215942549
49215949324
49215954084
49215959089
49215963606
49215969221
49215975447
49215980635
49215984846
49215990705
49215995039
49216000044
49216005781
49216012190
49216016767
49216022688
49216027204
49216031782
49216037641
49216042341
49216048445
49216054670
49216058943
49216064497
49216068769
49216074262
49216080671
49216084577
49216091963
49216097028
49216101606
49216106367
49216112104
49216116743
49216122297
49216127424
49216133283
49216138532
49216142316
49216148847
49216152448
49216157941
49216164106
49216170026
49216176557
49216180707
49216185163
49216190595
49216196699
49216200544
49216206891
49216212629
49216217389
49216222638
49216227277
49216232465
49216238202
49216243390
49216249250
49216253888
49216259198
49216264570
49216268293
49216275373
49216280439
49216285260
49216290082
49216295941
49216301313
49216305524
49216311139
49216316754
49216322614
49216326825
49216333295
49216336957
49216343671
49216348615
49216353070
49216358136
49216364301
49216370038
49216375958
49216381757
49216387921
49216392987
49216398236
49216404218
49216409406
49216414777
49216420026
49216424725
49216430218
49216434369
49216441815
49216447064
49216452435
49216457440
49216462872
49216468121
49216471905
49216478375
49216482648
49216489178
49216494305
49216498944
49216504071
49216509747
49216516583
49216521100
49216525738
49216531170
49216535382
49216540875
49216546490
49216552472
49216557293
49216562909
49216567486
49216572552
49216578350
49216582135
49216587994
49216593914
49216599713
49216605267
49216610150
49216615216
49216618756
49216626324
49216632733
49216639080
49216643536
49216648907
49216654339
49216658001
49216663983
49216669171
49216675274
49216679363
49216684979
49216689983
49216695538
49216700237
49216706280
49216711712
49216717266
49216723614
49216729107
49216733562
49216738140
49216744060
49216750042
49216756451
49216761578
49216765850
49216771404
49216777141
49216782513
49216787090
49216792217
49216797954
49216802593
49216809002
49216813762
49216819317
49216824016
49216829998
49216835186
49216839946
49216845440
49216851299
49216855755
49216861431
49216866314
49216872173
49216878032
49216882793
49216886821
49216892742
49216898784
49216903545
49216909465
49216913738
49216918987
49216923992
49216928203
49216935161
49216941326
49216946453
49216953044
49216958782
49216964458
49216972881
49216977580
49216984599
49216990398
49216996074
49217002177
49217008281
49217012614
49217018535
49217024333
49217029765
49217035319
49217041240
49217047221
49217053691
49217059611
49217064921
49217071879
49217076762
49217082316
49217088420
49217093547
49217099528
49217104289
49217110515
49217116862
49217122294
49217127543
49217134318
49217138224
49217144389
49217150493
49217155375
49217161357
49217166362
49217171733
49217176921
49217182780
49217188761
49217195353
49217200846
49217205607
49217211711
49217216044
49217223673
49217228617
49217234538
49217239054
49217244242
49217249552
49217255107
49217260661
49217265971
49217271098
49217277201
49217282145
49217288310
49217293864
49217299113
49217304667
49217310221
49217315653
49217320048
49217325480
49217330973
49217336649
49217341959
49217347514
49217353007
49217357462
49217364786
49217369730
49217376139
49217380533
49217386027
49217391398
49217397867
49217402933
49217408671
49217414164
49217419840
49217423929
49217429850
49217433756
49217440897
49217445231
49217450968
49217455790
49217461039
49217465616
49217473246
49217478250
49217484781
49217489908
49217495279
49217498819
49217505289
49217510721
49217517252
49217522806
49217527323
49217532938
49217537577
49217543314
49217549784
49217557657
49217562662
49217567484
49217572794
49217578531
49217583658
49217590006
49217594705
49217600076
49217605325
49217610208
49217616373
49217621011
49217626810
49217633524
49217640665
49217644937
49217651651
49217657449
49217663309
49217669595
49217674905
49217680826
49217686319
49217692544
49217699075
49217705789
49217711526
49217717813
49217722146
49217728433
49217734109
49217740335
49217745767
49217751199
49217756326
49217761941
49217767556
49217774148
49217779275
49217784768
49217790689
49217796365
49217802774
49217808389
49217812417
49217819253
49217824136
49217829568
49217835855
49217842080
49217847329
49217853188
49217858071
49217863809
49217869058
49217874307
49217880349
49217885110
49217891030
49217898049
49217903359
49217909951
49217915139
49217920937
49217925576
49217930764
49217936318
49217940957
49217946511
49217953225
49217958596
49217964822
49217969399
49217974770
49217980996
49217986184
49217992837
49217998635
49218003884
49218010109
49218016701
49218022194
49218027993
49218034523
49218040688
49218047097
49218051857
49218058022
49218063088
49218067849
49218074746
49218079628
49218085305
49218091530
49218096169
49218101784
49218107765
49218114174
49218118325
49218124123
49218130959
49218135720
49218140419
49218147499
49218152260
49218157814
49218164101
49218168434
49218173683
49218179909
49218185585
49218189613
49218196022
49218201576
49218207375
49218212868
49218218300
49218224220
49218229408
49218235084
49218241249
49218245338
49218251137
49218256142
49218262489
49218267128
49218273964
49218280128
49218285438
49218291725
49218297279
49218301674
49218307716
49218313514
49218318031
49218323890
49218329445
49218333839
49218339454
49218346229
49218352028
49218358375
49218363563
49218368873
49218376197
49218380592
49218386207
49218392128
49218397071
49218403053
49218409706
49218415626
49218421363
49218427040
49218432044
49218436134
49218441261
49218446449
49218453956
49218458595
49218463905
49218471168
49218476234
49218481422
49218487891
49218493263
49218498328
49218504737
49218509742
49218515723
49218519386
49218527381
49218532386
49218538795
49218543067
49218548011
49218553687
49218560218
49218565162
49218570716
49218576575
49218582007
49218586402
49218591834
49218597571
49218604163
49218609595
49218615027
49218619910
49218625098
49218631141
49218637122
49218643409
49218648475
49218654395
49218658973
49218664832
49218669287
49218675574
49218680640
49218686743
49218691016
49218696082
49218701819
49218708533
49218715186
49218719641
49218725806
49218731299
49218737830
49218742957
49218748938
49218755713
49218762122
49218767737
49218774695
49218778540
49218785742
49218789404
49218794898
49218801184
49218806494
49218812720
49218817908
49218823462
49218829321
49218834570
49218840552
49218846350
49218852820
49218857764
49218863745
49218869726
49218875220
49218880652
49218888159
49218893530
49218898657
49218904944
49218910742
49218916662
49218923987
49218930578
49218935339
49218941443
49218946142
49218952551
49218956884
49218962927
49218969091
49218975256
49218981848
49218987890
49218994482
49218999731
49219005773
49219010351
49219017858
49219022497
49219028662
49219034765
49219040502
49219045995
49219052587
49219058752
49219063635
49219069616
49219075720
49219081945
49219088049
49219093603
49219098425
49219105016
49219110693
49219116613
49219121435
49219127904
49219132665
49219138341
49219144750
49219150243
49219156164
49219161169
49219166601
49219171911
49219178441
49219183507
49219189123
49219194860
49219199926
49219206212
49219212133
49219215978
49219222997
49219227941
49219233434
49219238744
49219243932
49219249852
49219255468
49219260595
49219266088
49219271642
49219275609
49219280370
49219286351
49219292882
49219298986
49219304601
49219310582
49219316320
49219322606
49219327184
49219334508
49219340734
49219346105
49219351109
49219356481
49219362706
49219367589
49219373021
49219377904
49219382604
49219389073
49219393041
49219398656
49219404515
49219409764
49219415807
49219421971
49219427159
49219433263
49219437718
49219444127
49219450413
49219455846
49219461949
49219466344
49219472081
49219478856
49219484288
49219489720
49219493809
49219498997
49219504551
49219508397
49219514805
49219521031
49219525975
49219530796
49219535740
49219541295
49219547398
49219553685
49219559178
49219564000
49219569615
49219573887
49219579502
49219584935
49219591893
49219595982
49219601841
49219607029
49219612705
49219616856
49219624119
49219628758
49219635288
49219641270
49219647862
49219652439
49219658543
49219662815
49219670994
49219676853
49219682285
49219686558
49219693150
49219699558
49219705296
49219710178
49219715916
49219721714
49219728245
49219733128
49219738926
49219744419
49219749973
49219756016
49219761265
49219766636
49219772617
49219778049
49219783970
49219788059
49219794346
49219801121
49219805820
49219811619
49219817905
49219822727
49219829014
49219832920
49219839023
49219844944
49219850254
49219856052
49219861362
49219867527
49219874118
49219878452
49219884799
49219890659
49219896335
49219901584
49219907749
49219912082
49219918491
49219924961
49219929111
49219934970
49219940585
49219946201
49219951328
49219956882
49219963413
49219967929
49219973911
49219979282
49219983615
49219990451
49219995273
49220000827
49220006625
49220011813
49220017734
49220024692
49220030246
49220035007
49220041598
49220046786
49220053500
49220058078
49220063632
49220069675
49220075168
49220079562
49220085238
49220090732
49220097384
49220102145
49220108920
49220114413
49220118564
49220125277
49220131320
49220136813
49220141635
49220146762
49220152865
49220159762
49220165988
49220171420
49220176791
49220182101
49220189730
49220195407
49220201571
49220207492
49220212557
49220218844
49220224825
49220229952
49220235934
49220240450
49220246188
49220251132
49220256381
49220262728
49220269259
49220273165
49220280428
49220285922
49220291354
49220297945
49220301974
49220309176
49220314425
49220320101
49220325594
49220331087
49220336520
49220341158
49220346651
49220352206
49220357027
49220362765
49220369417
49220374483
49220381380
49220385836
49220391085
49220396700
49220401827
49220407076
49220412874
49220418001
49220423555
49220427218
49220432406
49220438570
49220443880
49220449556
49220453829
49220459627
49220464205
49220470003
49220475618
49220480867
49220487093
49220492342
49220499666
49220505709
49220511568
49220515413
49220522676
49220528536
49220534822
49220541292
49220546663
49220551058
49220558016
49220562776
49220569795
49220575105
49220580476
49220587129
49220594209
49220599214
49220604890
49220610872
49220616670
49220622652
49220628328
49220634492
49220640352
49220646638
49220652070
49220657991
49220663545
49220669526
49220674348
49220680025
49220685762
49220689851
49220696077
49220701204
49220706941
49220714143
49220720552
49220725801
49220731721
49220736848
49220742768
49220749299
49220754365
49220760102
49220766084
49220772065
49220778413
49220783540
49220788789
49220793977
49220799653
49220804475
49220809907
49220816072
49220821504
49220826631
49220832185
49220836640
49220842378
49220847382
49220853547
49220858430
49220863923
49220869477
49220873383
49220879182
49220885102
49220889130
49220895356
49220900422
49220905732
49220911408
49220918183
49220922700
49220928620
49220934357
49220939484
49220943024
49220949738
49220954926
49220960419
49220967133
49220973176
49220979767
49220984711
49220991059
49220997651
49221003266
49221008881
49221014740
49221020295
49221026337
49221032746
49221038483
49221044831
49221051117
49221055756
49221061493
49221068390
49221072724
49221080048
49221085053
49221090485
49221096649
49221102997
49221108368
49221114350
49221119782
49221125763
49221131561
49221138336
49221143036
49221148468
49221153839
49221158478
49221163544
49221168976
49221172760
49221180206
49221185638
49221191620
49221196503
49221201630
49221207672
49221212067
49221217621
49221224579
49221229584
49221234222
49221240265
49221244415
49221250946
49221256073
49221262237
49221266815
49221272186
49221277679
49221283111
49221289886
49221294830
49221300750
49221307769
49221312957
49221317901
49221323761
49221328460
49221334930
49221340606
49221345306
49221351654
49221358917
49221363311
49221369537
49221375885
49221380584
49221386444
49221391265
49221396881
49221403411
49221409576
49221414886
49221421417
49221427581
49221433502
49221437774
49221443694
49221448821
49221454803
49221460723
49221466583
49221471648
49221477752
49221481841
49221489410
49221493926
49221499236
49221505523
49221511199
49221516692
49221521758
49221527557
49221532378
49221539153
49221544524
49221550017
49221554961
49221560332
49221565398
49221569854
49221576323
49221582061
49221587615
49221592742
49221598052
49221602935
49221608001
49221613677
49221619414
49221624602
49221629912
49221635283
49221639800
49221645171
49221650298
49221655669
49221660918
49221665801
49221671111
49221676726
49221682830
49221687224
49221692717
49221697844
49221704009
49221709014
49221714751
49221719878
49221725005
49221730742
49221735503
49221742461
49221747405
49221754241
49221759490
49221765654
49221771758
49221777739
49221783659
49221789519
49221795866
49221801421
49221806731
49221812468
49221818327
49221824309
49221830595
49221834746
49221841398
49221847746
49221853117
49221859343
49221864714
49221870207
49221875212
49221881621
49221885832
49221892119
49221898161
49221904265
49221909025
49221914152
49221920866
49221926176
49221931059
49221936674
49221942595
49221949919
49221955595
49221960051
49221966642
49221972074
49221978178
49221984037
49221988066
49221994474
49222000822
49222005216
49222012235
49222016813
49222022672
49222027555
49222033048
49222038358
49222043791
49222049833
49222055937
49222062162
49222067655
49222071806
49222077360
49222082731
49222088895
49222094694
49222100004
49222105863
49222111539
49222116117
49222123441
49222128019
49222133329
49222140287
49222145475
49222151578
49222156400
49222160245
49222167814
49222173551
49222178861
49222184965
49222191617
49222197355
49222203641
49222210294
49222214566
49222221280
49222226957
49222232877
49222236844
49222243314
49222248380
49222253202
49222259122
49222265531
49222271329
49222277616
49222283414
49222288541
49222295072
49222301175
49222306424
49222312833
49222318570
49222324063
49222330167
49222334805
49222342496
49222347928
49222352139
49222358365
49222363492
49222369168
49222374844
49222381009
49222386502
49222392117
49222397610
49222403958
49222409268
49222413663
49222419522
49222425564
49222431363
49222435513
49222441373
49222447476
49222452664
49222458645
49222463894
49222469510
49222474759
49222480008
49222485989
49222490628
49222496243
49222502469
49222507168
49222513516
49222519925
49222524624
49222530545
49222535977
49222541714
49222548001
49222552822
49222558987
49222564907
49222569302
49222575100
49222581509
49222587246
49222592983
49222598721
49222603970
49222609951
49222615627
49222622463
49222628140
49222633877
49222639553
49222646023
49222649990
49222656399
49222663357
49222668972
49222674831
49222679165
49222686794
49222691921
49222697536
49222702724
49222708218
49222713711
49222719631
49222725307
49222730617
49222736599
49222741176
49222747707
49222752590
49222757107
49222762722
49222769924
49222775905
49222781521
49222786159
49222791225
49222797085
49222802089
49222807583
49222813442
49222819484
49222825039
49222831691
49222837123
49222842128
49222848903
49222854213
49222859951
49222865444
49222871730
49222876796
49222881923
49222888332
49222893520
49222898952
49222906215
49222912319
49222917629
49222923671
49222930263
49222934535
49222941249
49222945278
49222951686
49222957851
49222962123
49222967494
49222974086
49222979335
49222985805
49222991664
49222997707
49223004359
49223008815
49223014796
49223020900
49223026576
49223032374
49223037135
49223043666
49223050075
49223055751
49223062160
49223067531
49223073939
49223078273
49223083827
49223088649
49223095057
49223100551
49223106776
49223112635
49223117152
49223122462
49223128016
49223133937
49223139003
49223145533
49223151515
49223156581
49223162196
49223167445
49223173060
49223179774
49223184535
49223189845
49223195948
49223200770
49223206568
49223212000
49223218165
49223223902
49223227992
49223232935
49223240443
49223244837
49223249476
49223255518
49223259913
49223265345
49223271143
49223275599
49223281886
49223287440
49223292384
49223298121
49223303004
49223310755
49223314844
49223320338
49223325281
49223331507
49223338404
49223343165
49223348597
49223354700
49223360682
49223367335
49223372889
49223377527
49223383082
49223388636
49223394312
49223399134
49223404993
49223412256
49223417444
49223422815
49223428125
49223432947
49223438318
49223444300
49223451685
49223456568
49223462244
49223467676
49223473474
49223479090
49223484888
49223490869
49223495874
49223501489
49223508203
49223512781
49223518640
49223523889
49223528711
49223534937
49223540552
49223546106
49223551233
49223558313
49223563623
49223567712
49223573022
49223578394
49223583704
49223590845
49223596338
49223601099
49223607019
49223612695
49223618310
49223623132
49223628320
49223633752
49223638147
49223643518
49223650110
49223656152
49223661523
49223666833
49223671960
49223677209
49223682763
49223688318
49223693506
49223698633
49223704919
49223709558
49223714746
49223719995
49223727380
49223732751
49223738061
49223744409
49223749353
49223754174
49223760278
49223765039
49223769982
49223775415
49223780847
49223784936
49223790612
49223797448
49223802514
49223809350
49223813317
49223818322
49223823998
49223829064
49223835717
49223842675
49223847741
49223852013
49223857324
49223862145
49223868188
49223875207
49223880639
49223886559
49223892052
49223899194
49223904443
49223909936
49223914635
49223920373
49223925805
49223931725
49223937035
49223942284
49223948266
49223953454
49223958581
49223963158
49223967797
49223972924
49223978051
49223982567
49223985741
49223990075
49223994469
49223997887
49224001244
49224006493
49224009728
49224014183
49224018212
49224023278
49224027062
49224031578
49224034203
49224039147
49224042504
49224047692
49224051903
49224054955
49224060448
49224064904
49224069725
49224075829
49224079735
49224084007
49224088158
49224092369
49224097130
49224101280
49224106224
49224109947
49224114708
49224119225
49224123436
49224126915
49224133934
49224137657
49224142784
49224146629
49224150719
49224154320
49224161034
49224165794
49224170494
49224174461
49224179344
49224183556
49224186790
49224191490
49224195763
49224200462
49224206444
49224210228
49224213890
49224220482
49224224632
49224228477
49224233177
49224236473
49224240684
49224244346
49224249718
49224255638
49224259422
49224264183
49224267540
49224271995
49224276268
49224280967
49224285728
49224290916
49224294761
49224298423
49224302452
49224306968
49224310814
49224315696
49224319358
49224323082
49224327598
49224331688
49224336265
49224340171
49224344444
49224347801
49224351951
49224355979
49224359886
49224364768
49224369590
49224373558
49224377769
49224381614
49224385398
49224390159
49224393516
49224398399
49224402854
49224405906
49224410423
49224416404
49224419944
49224424888
49224429099
49224433677
49224439964
49224443809
49224448814
49224451621
49224459739
49224464011
49224469016
49224474387
49224479453
49224483543
49224487815
49224492576
49224503013
49224508445
49224513389
49224521201
49224525352
49224531821
49224535422
49224543784
49224550803
49224557090
49224567100
49224572349
49224580039
49224583823
49224590354
49224597251
49224602012
49224609397
49224616904
49224624961
49224630820
49224637717
49224647300
49224652365
49224661032
49224667868
49224674521
49224683493
49224688925
49224695639
49224705710
49224709860
49224718222
49224725729
49224732810
49224738547
49224745383
49224751852
49224763083
49224768393
49224775351
49224781882
49224789999
49224797812
49224803610
49224810690
49224818014
49224826437
49224834128
49224842062
49224848898
49224856589
49224861105
49224870993
49224875754
49224883261
49224891012
49224898031
49224905355
49224910849
49224918844
49224922995
49224929525
49224936789
49224948446
49224954367
49224961325
49224969076
49224973593
49224982809
49224989462
49224995748
49225001180
49225005819
49225017294
49225021505
49225030904
49225037374
49225044882
49225052450
49225059408
49225065450
49225072958
49225082601
49225090719
49225098043
49225103780
49225110494
49225118551
49225123067
49225130086
49225137288
49225148336
49225156820
49225162740
49225169027
49225175496
49225184041
49225190816
49225196309
49225204854
49225213582
49225220052
49225227254
49225234090
49225242940
49225252767
49225260884
49225267354
49225276753
49225286824
49225293721
49225301290
49225309163
49225317281
49225324422
49225331075
49225338399
49225346150
49225354634
49225361836
49225370320
49225377949
49225384358
49225390950
49225396870
49225404744
49225409321
49225419942
49225424702
49225437031
49225444539
49225448811
49225457173
49225464253
49225469441
49225477498
49225484334
49225492573
49225499958
49225509175
49225513447
49225524433
49225531453
49225540486
49225548847
49225556538
49225565022
49225569783
49225579975
49225587177
49225591999
49225600483
49225604633
49225614582
49225621052
49225628315
49225636250
49225644367
49225650227
49225655415
49225665974
49225672504
49225679462
49225685261
49225693195
49225699360
49225706562
49225714130
49225723041
49225729084
49225737629
49225744098
49225749775
49225757526
49225763813
49225770038
49225777485
49225784809
49225793110
49225799396
49225808002
49225814960
49225821186
49225827777
49225835163
49225842914
49225850849
49225858234
49225864643
49225874835
49225881977
49225890338
49225899066
49225906696
49225914081
49225921832
49225928119
49225935565
49225944171
49225950885
49225953204
49225964252
49225968768
49225976398
49225984027
49225990436
49225999347
49226007403
49226015704
49226022235
49226028888
49226036334
49226042682
49226048968
49226056231
49226065631
49226073871
49226076373
49226088458
49226092913
49226100970
49226108477
49226115557
49226121539
49226129229
49226135699
49226146319
49226150714
49226159259
49226166644
49226172076
49226179705
49226186236
49226194842
49226199786
49226210345
49226216937
49226223101
49226230731
49226237750
49226246478
49226250811
49226258624
49226266131
49226272784
49226281634
49226286578
49226295916
49226302386
49226310381
49226318438
49226325030
49226331377
49226338457
49226345293
49226353350
49226360735
49226368975
49226375994
49226381609
49226389299
49226396074
49226404619
49226409685
49226415911
49226427263
49226434343
49226440142
49226448137
49226454363
49226461382
49226467851
49226475786
49226482439
49226491411
49226496233
49226505327
49226513628
49226521684
49226529436
49226536699
49226542864
49226550188
49226560930
49226567949
49226573564
49226581926
49226586687
49226594804
49226601762
49226609453
49226614885
49226624162
49226630571
49226638200
49226645402
49226650834
49226659440
49226665544
49226672136
49226679765
49226685136
49226690568
49226703691
49226708512
49226714921
49226721757
49226727616
49226735307
49226739213
49226746659
49226753312
49226761613
49226769486
49226771806
49226781693
49226787736
49226793290
49226800065
49226806413
49226811967
49226818742
49226829789
49226836320
49226843217
49226851945
49226857499
49226865556
49226872697
49226881364
49226887467
49226899491
49226906327
49226914506
49226922379
49226927933
49226932389
49226940751
49226948502
49226955643
49226963273
49226971817
49226979325
49226984513
49226992264
49226995987
49227005570
49227010392
49227021744
49227029190
49227035782
49227043473
49227050431
49227055985
49227062149
49227069535
49227076554
49227082474
49227093643
49227099442
49227106583
49227113175
49227120743
49227124832
49227133804
49227138260
49227148941
49227155899
49227162857
49227170059
49227176285
49227184158
49227191055
49227197037
49227204178
49227212295
49227219436
49227227615
49227233413
49227240494
49227248306
49227252456
49227259659
49227267471
49227277298
49227284012
49227290054
49227298538
49227305435
49227311660
49227320449
49227325271
49227332107
49227339736
49227347061
49227355117
49227363784
49227370864
49227377090
49227383254
49227389175
49227396316
49227403030
49227410903
49227418716
49227426101
49227430434
49227439651
49227446243
49227451247
49227461562
49227469558
49227477492
49227485122
49227492324
49227499099
49227504470
49227513076
49227518813
49227525954
49227535354
49227541762
49227549331
49227556411
49227563308
49227570083
49227576980
49227584548
49227593764
49227602431
49227609206
49227615554
49227622878
49227629470
49227637221
49227643080
49227651320
49227655715
49227664809
49227671889
49227680007
49227685561
49227692763
49227701064
49227705397
49227711928
49227719374
49227728957
49227736525
49227742934
49227751967
49227758803
49227764784
49227771010
49227777785
49227785414
49227792372
49227800673
49227806715
49227815077
49227822706
49227828566
49227834425
49227842116
49227849379
49227858473
49227866102
49227872328
49227880751
49227887953
49227892530
49227900099
49227906630
49227914808
49227924513
49227932142
49227937941
49227946913
49227953810
49227961988
49227966322
49227975538
49227982130
49227988294
49227996351
49228003187
49228010816
49228018140
49228023878
49228029859
49228035474
49228045484
49228050977
49228058790
49228064893
49228073743
49228078992
49228088575
49228094800
49228101575
49228106824
49228113965
49228122205
49228129957
49228135999
49228140333
49228151929
49228158460
49228166150
49228173963
49228181592
49228190259
49228195325
49228206128
49228212598
49228217420
49228226087
49228230542
49228237989
49228246289
49228254712
49228262464
49228269849
49228276196
49228283154
49228289380
49228299207
49228301648
49228313062
49228321851
49228327344
49228335645
49228344189
49228352307
49228357373
49228365857
49228372754
49228377942
49228386365
49228392346
49228404248
49228409314
49228416516
49228425061
49228432507
49228438366
49228444714
49228451794
49228459179
49228467724
49228476452
49228481274
49228488598
49228494519
49228500073
49228507519
49228511547
49228520886
49228524670
49228535534
49228542919
49228548596
49228556042
49228562573
49228567028
49228573864
49228582348
49228587353
49228592785
49228602306
49228609387
49228616345
49228623119
49228630016
49228635693
49228641430
49228647533
49228654430
49228662426
49228673107
49228679516
49228684948
49228693310
49228698742
49228704601
49228711254
49228718151
49228725841
49228734020
49228740185
49228747509
49228753856
49228759288
49228766246
49228771495
49228776989
49228783214
49228791027
49228800670
49228807689
49228812694
49228819774
49228824291
49228831188
49228837169
49228844554
49228851268
49228859264
49228863597
49228872508
49228878246
49228883190
49228890758
49228897838
49228903758
49228910106
49228919444
49228927440
49228934398
49228941844
49228945811
49228954662
49228960643
49228967357
49228974132
49228981151
49228989818
49228997813
49229003245
49229008983
49229015819
49229022349
49229027842
49229035167
49229039378
49229049998
49229060252
49229066661
49229073253
49229079173
49229084849
49229090953
49229097728
49229104319
49229113780
49229121531
49229125865
49229135447
49229141856
49229150462
49229156870
49229163218
49229170725
49229180491
49229186533
49229193491
49229201914
49229208201
49229214976
49229222483
49229228648
49229235056
49229241526
49229250986
49229258677
49229266428
49229271372
49229277598
49229284983
49229290903
49229297007
49229303660
49229310068
49229317576
49229322397
49229332102
49229338572
49229345896
49229355478
49229362375
49229370432
49229376658
49229382883
49229390207
49229398142
49229404551
49229412668
49229419504
49229425424
49229431162
49229437326
49229445566
49229452097
49229459787
49229466623
49229472299
49229478220
49229484140
49229491342
49229498117
49229504770
49229512644
49229519113
49229524789
49229530954
49229537424
49229544321
49229550363
49229556100
49229563119
49229570810
49229578866
49229586252
49229591623
49229597665
49229605844
49229612008
49229618844
49229624032
49229631662
49229639413
49229644601
49229654123
49229660043
49229666696
49229676522
49229683603
49229688913
49229698922
49229705270
49229711923
49229719491
49229726937
49229734140
49229740548
49229747628
49229755197
49229763375
49229772958
49229778634
49229785958
49229792001
49229798287
49229804879
49229811837
49229817696
49229825265
49229831002
49229842049
49229848336
49229854867
49229861947
49229867135
49229874581
49229880562
49229886849
49229893380
49229901436
49229910287
49229915169
49229923531
49229929390
49229937264
49229942025
49229946053
49229956185
49229960762
49229968697
49229978646
49229985848
49229991158
49229998848
49230004464
49230010872
49230016548
49230023629
49230030709
49230038948
49230043465
49230049935
49230057137
49230065132
49230070442
49230077461
49230083382
49230089913
49230096382
49230104744
49230111092
49230118965
49230125557
49230130379
49230137154
49230144051
49230150154
49230156624
49230166084
49230172493
49230178718
49230185615
49230190925
49230198494
49230204780
49230210213
49230217048
49230223640
49230231636
49230236274
49230246040
49230252327
49230258613
49230265632
49230270393
49230278144
49230282600
49230291267
49230299568
49230306648
49230313545
49230319526
49230324043
49230331062
49230337104
49230344734
49230351692
49230359565
49230366645
49230375251
49230380195
49230388191
49230397834
49230404121
49230411445
49230419502
49230427863
49230432136
49230438728
49230445747
49230451728
49230459418
49230463447
49230473090
49230479987
49230486091
49230494269
49230500556
49230508491
49230512336
49230521003
49230527045
49230533576
49230538703
49230543158
49230556647
49230563422
49230569648
49230579718
49230586676
49230594672
49230601752
49230608710
49230617255
49230625495
49230629706
49230640570
49230646369
49230652655
49230659552
49230665412
49230672675
49230677252
49230687445
49230694830
49230701422
49230708563
49230713934
49230719489
49230725714
49230732306
49230739081
49230748541
49230757208
49230761603
49230771429
49230777228
49230783453
49230790167
49230796149
49230802130
49230806280
49230814703
49230824530
49230831061
49230836126
49230842108
49230849432
49230855902
49230862249
49230868963
49230876898
49230884710
49230890875
49230896551
49230902594
49230908880
49230915960
49230921331
49230928900
49230933416
49230942694
49230949285
49230955328
49230962774
49230966802
49230975530
49230981329
49230988531
49230995733
49231002935
49231011114
49231015997
49231025396
49231031805
49231037420
49231044256
49231050542
49231056707
49231063482
49231071416
49231079473
49231086553
49231093389
49231099798
49231105779
49231111638
49231118474
49231125310
49231131841
49231140813
49231145574
49231154912
49231160894
49231166997
49231173955
49231180730
49231186223
49231192876
49231200811
49231209172
49231218022
49231223332
49231227178
49231237004
49231242925
49231248601
49231255925
49231263555
49231272405
49231276799
49231283330
49231292058
49231297795
49231304814
49231311101
49231316899
49231323308
49231333257
49231340825
49231348820
49231353886
49231361088
49231365727
49231374882
49231381169
49231386113
49231394719
49231401250
49231409428
49231414677
49231421879
49231430485
49231437993
49231445866
49231453740
49231461247
49231468205
49231476262
49231481266
49231490300
49231495304
49231502446
49231509526
49231515934
49231523136
49231531254
49231537785
49231546086
49231553776
49231560612
49231568913
49231573612
49231579350
49231586735
49231595158
49231603031
49231609257
49231615116
49231621525
49231627201
49231636539
49231640751
49231648869
49231658024
49231666996
49231671879
49231678959
49231686710
49231695255
49231700992
49231705448
49231717960
49231724918
49231731327
49231739628
49231746097
49231754764
49231761417
49231766483
49231774417
49231780887
49231789493
49231794620
49231802066
49231812747
49231817752
49231826724
49231833682
49231838809
49231849002
49231855899
49231861453
49231870487
49231879703
49231884525
49231892886
49231900577
49231908267
49231913699
49231922061
49231928653
49231935733
49231943057
49231951846
49231958865
49231967410
49231974307
49231980105
49231988223
49231995975
49232002444
49232010562
49232017398
49232028140
49232033023
49232041629
49232048526
49232057193
49232063723
49232070254
49232076419
49232086428
49232095767
49232100772
49232109561
49232117251
49232123782
49232132083
49232136599
49232145877
49232153262
49232161563
49232170596
49232175478
49232185671
49232192324
49232197329
49232206118
49232210452
49232220766
49232227908
49232235598
49232244204
49232251162
49232257876
49232263064
49232273867
49232280764
49232288576
49232294131
49232302492
49232311770
49232319277
49232326235
49232334353
49232340151
49232349001
49232355715
49232362490
49232370607
49232377260
49232386293
49232391115
49232398500
49232406191
49232415102
49232420717
49232429018
49232434572
49232443605
49232451113
49232460024
49232468263
49232474855
49232481569
49232489565
49232495363
49232503481
49232509767
49232517397
49232524904
49232533388
49232539796
49232546571
49232553102
49232560060
49232568117
49232574342
49232583375
49232592592
49232598024
49232606141
49232615236
49232620912
49232626527
49232637086
49232644166
49232650026
49232657777
49232666078
49232674928
49232682496
49232687928
49232695680
49232703065
49232708741
49232715089
49232723329
49232730470
49232738526
49232746827
49232752870
49232758607
49232764649
49232771180
49232777833
49232784058
49232789430
49232796693
49232804139
49232812257
49232820802
49232825623
49232833009
49232838624
49232844361
49232850465
49232857667
49232865845
49232873963
49232881470
49232887025
49232893067
49232899232
49232905945
49232909974
49232919190
49232927002
49232934144
49232944031
49232950684
49232957886
49232962952
49232970459
49232976685
49232982361
49232989441
49232995117
49233003235
49233010926
49233017090
49233024170
49233030762
49233040894
49233047852
49233055542
49233063599
49233072388
49233079956
49233086243
49233093018
49233100281
49233108154
49233113647
49233122070
49233129578
49233135620
49233143982
49233150452
49233159424
49233168518
49233176208
49233182861
49233190002
49233197632
49233200378
49233212158
49233216552
49233227295
49233234253
49233241089
49233248840
49233254272
49233262573
49233267639
49233275573
49233284179
49233289917
49233298461
49233306335
49233314147
49233320617
49233327941
49233333312
49233343139
49233349731
49233357238
49233365173
49233373046
49233378661
49233387084
49233391479
49233397765
49233407836
49233415405
49233423095
49233429870
49233435424
49233441344
49233448913
49233455932
49233462279
49233467834
49233474486
49233480590
49233490355
49233495238
49233502929
49233510070
49233515563
49233521544
49233528991
49233535766
49233544616
49233553649
49233558043
49233566466
49233572264
49233580077
49233585204
49233592955
49233598754
49233605712
49233611388
49233621764
49233627928
49233634886
49233640807
49233647276
49233653075
49233659422
49233666686
49233674132
49233683226
49233687804
49233697020
49233703368
49233705321
49233716002
49233720030
49233726988
49233733885
49233743162
49233748411
49233756224
49233761778
49233767637
49233774290
49233781004
49233787108
49233793089
49233799742
49233807921
49233815672
49233822569
49233829527
49233836119
49233841978
49233848265
49233854734
49233861631
49233868772
49233877623
49233881895
49233890562
49233896910
49233903746
49233908995
49233916746
49233922422
49233929502
49233934995
49233944944
49233951536
49233956541
49233964658
49233970762
49233978208
49233983579
49233991026
49233997923
49234006162
49234014463
49234020383
49234027525
49234034971
49234044431
49234050046
49234057920
49234064817
49234074094
49234079160
49234088132
49234094419
49234101987
49234109495
49234115720
49234123899
49234128721
49234138364
49234147275
49234153074
49234160947
49234165097
49234172971
49234179013
49234185727
49234192868
49234200315
49234209165
49234213742
49234223691
49234229611
49234236142
49234242978
49234248776
49234254331
49234260861
49234269956
49234280087
49234286679
49234291928
49234298886
49234304318
49234311887
49234318356
49234325558
49234334592
49234343442
49234347836
49234355832
49234361630
49234367245
49234375302
49234379147
49234388424
49234394894
49234401913
49234409359
49234415707
49234423581
49234430233
49234434689
49234441464
49234446957
49234454892
49234460507
49234473812
49234479184
49234488949
49234496151
49234502682
49234512142
49234517147
49234525570
49234531918
49234539913
49234548458
49234553951
49234559933
49234566647
49234573544
49234578426
49234585934
49234590572
49234598629
49234608822
49234614803
49234622066
49234627315
49234632931
49234639339
49234645931
49234653133
49234661251
49234669002
49234675411
49234680904
49234686825
49234693783
49234700985
49234707882
49234713436
49234720089
49234725582
49234735469
49234740718
49234748409
49234752498
49234761165
49234767208
49234772335
49234779781
49234784359
49234794185
49234802486
49234807674
49234816707
49234822566
49234832820
49234837459
49234845638
49234850826
49234861080
49234868526
49234873714
49234884395
49234892207
49234900996
49234909358
49234917537
49234926082
49234932307
49234939326
49234946895
49234954524
49234961543
49234969661
49234974177
49234983088
49234990352
49234998347
49235006221
49235012324
49235018001
49235024348
49235030635
49235037837
49235043330
49235050959
49235056269
49235068232
49235074763
49235080622
49235087519
49235095393
49235100947
49235106867
49235113398
49235120295
49235127375
49235135676
49235140559
49235149836
49235155818
49235162287
49235169489
49235175349
49235180842
49235187434
49235197688
49235208186
49235212153
49235219965
49235227045
49235232722
49235239130
49235245112
49235252314
49235258784
49235267573
49235271906
49235278681
49235286005
49235293696
49235298884
49235306147
49235311823
49235318415
49235326716
49235334162
49235340632
49235348444
49235352655
49235361811
49235367731
49235372858
49235380426
49235388544
49235397394
49235403131
49235411493
49235416010
49235425958
49235433039
49235440302
49235447992
49235455133
49235461969
49235466303
49235476617
49235482660
49235488580
49235495233
49235499261
49235505853
49235512933
49235520258
49235530511
49235535333
49235543146
49235546991
49235553827
49235562677
49235566766
49235574457
49235579217
49235589227
49235594476
49235602166
49235611505
49235618951
49235627069
49235633966
49235641534
49235649713
49235657464
49235662103
49235671807
49235677667
49235683526
49235690362
49235695977
49235703668
49235708245
49235715264
49235725518
49235732049
49235738885
49235742852
49235749444
49235756341
49235764275
49235772454
49235774896
49235789239
49235797051
49235802361
49235809319
49235815118
49235822808
49235826836
49235833306
49235840569
49235849297
49235857781
49235864922
49235870537
49235878716
49235883599
49235890618
49235896538
49235903862
49235908440
49235916558
49235927056
49235932305
49235939507
49235945855
49235951531
49235957695
49235964775
49235972527
49235981926
49235987786
49235994011
49235999626
49236006523
49236013420
49236021172
49236025383
49236033867
49236037895
49236047356
49236055596
49236057793
49236068596
49236072624
49236080498
49236087822
49236094231
49236099846
49236104179
49236116142
49236123161
49236130730
49236137871
49236142509
49236150322
49236156547
49236162102
49236168937
49236177971
49236183342
49236187980
49236198112
49236204460
49236210991
49236215934
49236222953
49236230705
49236235222
49236246757
49236253654
49236258476
49236266471
49236270439
49236279655
49236286064
49236291252
49236298698
49236305534
49236314201
49236318107
49236326469
49236332816
49236338859
49236344657
49236350700
49236356437
49236363578
49236375663
49236383537
49236390128
49236395988
49236402091
49236408073
49236415336
49236422233
49236427848
49236435233
49236444022
49236450675
49236458182
49236463370
49236468802
49236477042
49236484488
49236490714
49236497489
49236508414
49236516654
49236522513
49236528495
49236536795
49236541861
49236548941
49236556449
49236561942
49236569693
49236579642
49236586905
49236594046
49236599234
49236606253
49236611868
49236618277
49236623709
49236631339
49236640189
49236646903
49236655142
49236662161
49236669119
49236675711
49236685172
49236692496
49236700064
49236703055
49236716055
49236720389
49236727103
49236734061
49236739920
49236747305
49236751272
49236758719
49236765494
49236773794
49236781790
49236788199
49236794119
49236800406
49236805838
49236813162
49236819693
49236827017
49236831656
49236841177
49236848379
49236854788
49236861929
49236868032
49236875723
49236879629
49236886770
49236893911
49236901541
49236907522
49236911794
49236921804
49236927847
49236933706
49236940481
49236944448
49236954092
49236958730
49236965933
49236975881
49236982839
49236987722
49236994619
49236999746
49237008535
49237013235
49237020681
49237025564
49237036001
49237040700
49237050100
49237056814
49237064077
49237071218
49237079641
49237085622
49237095083
49237102285
49237108876
49237115224
49237122243
49237124196
49237135183
49237139150
49237148122
49237154714
49237165151
49237172719
49237175038
49237185964
49237190053
49237197194
49237204091
49237210561
49237218129
49237223012
49237234303
49237241017
49237247548
49237254506
49237259389
49237266835
49237271230
49237280507
49237287038
49237296559
49237305104
49237311818
49237319386
49237325368
49237331044
49237337880
49237343617
49237351308
49237358632
49237364247
49237373585
49237378651
49237385853
49237389943
49237399586
49237405568
49237410634
49237417530
49237427418
49237435597
49237441395
49237447316
49237453053
49237459706
49237466786
49237472828
49237480763
49237485035
49237495228
49237502613
49237510670
49237517628
49237522999
49237530506
49237534535
49237542591
49237549549
49237556751
49237564442
49237570667
49237576405
49237582752
49237590015
49237597279
49237601795
49237609363
49237617786
49237622730
49237632557
49237637623
49237644337
49237650989
49237656788
49237662769
49237669910
49237677173
49237683277
49237691700
49237696460
49237704578
49237710621
49237717273
49237724170
49237731128
49237736621
49237743274
49237750354
49237760608
49237766651
49237773548
