49162192503
49162199034
49162205992
49162211974
49162217650
49162225096
49162231749
49162238646
49162244139
49162250792
49162258909
49162266051
49162272825
49162281187
49162287291
49162295286
49162301207
49162308592
49162316587
49162322569
49162331297
49162337400
49162344114
49162352110
49162358580
49162366697
49162373228
49162378111
49162386167
49162393186
49162400266
49162406065
49162414732
49162423216
49162432310
49162438413
49162445982
49162453672
49162460508
49162468076
49162474363
49162481565
49162487852
49162494749
49162501890
49162507017
49162515684
49162522642
49162529356
49162535764
49162544004
49162550352
49162558408
49162566404
49162571653
49162579954
49162586912
49162594297
49162602536
49162611448
49162617856
49162624082
49162630063
49162636289
49162644651
49162651059
49162658750
49162665097
49162672727
49162679563
49162687436
49162694394
49162702634
49162708859
49162716489
49162723264
49162729733
49162736752
49162743527
49162751828
49162758115
49162765500
49162773190
49162779355
49162786557
49162793271
49162800473
49162808896
49162814816
49162821103
49162826779
49162834714
49162840451
49162848202
49162855404
49162861630
49162869504
49162874325
49162882565
49162887448
49162893795
49162901852
49162909909
49162914792
49162922848
49162929501
49162937436
49162940609
49162951290
49162959347
49162965512
49162972287
49162977841
49162985592
49162991329
49162998654
49163006588
49163013607
49163020199
49163027706
49163032589
49163040524
49163045834
49163054134
49163062985
49163070492
49163078487
49163085567
49163091061
49163099300
49163107174
49163114620
49163122188
49163129330
49163137020
49163144039
49163151424
49163158504
49163166378
49163173946
49163182613
49163189876
49163196163
49163205013
49163210750
49163217830
49163226314
49163234432
49163244564
49163251644
49163258235
49163265560
49163274715
49163281551
49163288997
49163297420
49163304500
49163314449
49163320430
49163330745
49163337520
49163344966
49163354244
49163362178
49163371761
49163378719
49163387996
49163396785
49163404353
49163410213
49163418513
49163428157
49163434077
49163442927
49163449580
49163458552
49163465816
49163474727
49163480952
49163490046
49163497004
49163506099
49163511958
49163520686
49163528498
49163535456
49163543086
49163552180
49163558467
49163567927
49163576472
49163583064
49163591181
49163597834
49163603755
49163613642
49163621211
49163630305
49163636469
49163643244
49163651423
49163658259
49163665583
49163673884
49163682063
49163692988
49163699519
49163707819
49163716669
49163724543
49163732661
49163739008
49163750727
49163756952
49163766291
49163774286
49163781733
49163789789
49163796137
49163805048
49163814142
49163822260
49163828485
49163835749
49163845087
49163852167
49163861444
49163869074
49163877924
49163886835
49163897089
49163904108
49163914362
49163924188
49163930780
49163940790
49163948053
49163958307
49163965082
49163974542
49163983759
49163990472
49164000177
49164006647
49164016656
49164025445
49164033075
49164040521
49164049981
49164057550
49164064691
49164071527
49164080621
49164091058
49164098748
49164108209
49164115655
49164122308
49164132379
49164138787
49164147027
49164157464
49164165887
49164173699
49164180047
49164186578
49164191400
49164200189
49164208611
49164217156
49164224603
49164230889
49164237603
49164244805
49164251214
49164258721
49164267022
49164275079
49164281487
49164288934
49164295403
49164302605
49164310845
49164318352
49164326470
49164334466
49164342156
49164350091
49164357171
49164363885
49164371087
49164379509
49164388237
49164396721
49164401360
49164409295
49164415459
49164424126
49164431267
49164438408
49164446526
49164451775
49164462395
49164469414
49164478569
49164483940
49164493279
49164500786
49164509331
49164514458
49164523552
49164531120
49164539787
49164547295
49164556938
49164566582
49164572319
49164580742
49164586235
49164594475
49164603386
49164608208
49164619682
49164626396
49164631828
49164637504
49164642692
49164648735
49164653374
49164658745
49164664726
49164670219
49164675834
49164680107
49164683403
49164689445
49164694450
49164702140
49164707695
49164713249
49164718437
49164724540
49164729362
49164734916
49164741569
49164746574
49164752067
49164756950
49164762260
49164766777
49164772453
49164779106
49164783378
49164789054
49164793083
49164798515
49164803642
49164809684
49164816581
49164820976
49164826530
49164831474
49164835746
49164840141
49164845573
49164850272
49164856254
49164860709
49164866447
49164871635
49164876212
49164881583
49164888297
49164893302
49164898124
49164903373
49164906913
49164913566
49164918143
49164924064
49164927909
49164932853
49164938468
49164941642
49164947989
49164954276
49164959708
49164964408
49164969291
49164974235
49164978690
49164983756
49164989188
49164995231
49164999442
49165004813
49165009818
49165014762
49165018180
49165024894
49165031241
49165035880
49165041190
49165046012
49165050589
49165054740
49165061454
49165066703
49165071829
49165077384
49165082450
49165087271
49165092520
49165097830
49165103690
49165108267
49165112845
49165116934
49165121878
49165127127
49165135245
49165140250
49165144583
49165149222
49165153189
49165157828
49165162650
49165168143
49165174246
49165179556
49165184195
49165189139
49165193594
49165198233
49165203360
49165209097
49165212637
49165217642
49165222342
49165227347
49165231436
49165237967
49165242789
49165247671
49165251944
49165256521
49165261892
49165266958
49165272024
49165276663
49165283316
49165287222
49165293448
49165297964
49165302969
49165308706
49165313650
49165318716
49165323294
49165328726
49165334219
49165339163
49165344290
49165349661
49165353323
49165360037
49165365835
49165370718
49165375723
49165382070
49165386892
49165391958
49165396536
49165401541
49165406790
49165412588
49165417715
49165423147
49165428518
49165433523
49165437917
49165441763
49165448537
49165453970
49165459829
49165464407
49165468740
49165473074
49165478139
49165484060
49165488882
49165493581
49165498403
49165502492
49165507131
49165512807
49165519643
49165525014
49165528493
49165533559
49165538747
49165542531
49165547170
49165553701
49165558462
49165563161
49165568166
49165572072
49165577443
49165581838
49165587392
49165593007
49165598134
49165603566
49165608388
49165613271
49165618764
49165624440
49165628286
49165633535
49165638234
49165643788
49165647267
49165653981
49165659413
49165664723
49165670461
49165675038
49165679372
49165683827
49165689565
49165695119
49165700368
49165705739
49165709157
49165715138
49165718129
49165724049
49165729115
49165735097
49165739797
49165744801
49165749684
49165754018
49165759450
49165765065
49165770497
49165775929
49165780812
49165785146
49165789479
49165794118
49165800160
49165806264
49165810963
49165816212
49165820973
49165825551
49165830006
49165835133
49165841725
49165846119
49165851063
49165855641
49165860463
49165865346
49165871449
49165876332
49165880421
49165885853
49165889393
49165894642
49165899647
49165904591
49165910328
49165914784
49165920033
49165925404
49165929982
49165934559
49165940846
49165946156
49165949818
49165955616
49165960987
49165965382
49165969837
49165975331
49165980885
49165986134
49165991017
49165995289
49166000538
49166004872
49166010853
49166016041
49166020313
49166025318
49166030628
49166035145
49166039661
49166045948
49166051197
49166055653
49166060658
49166065540
49166068531
49166074573
49166080982
49166086414
49166091541
49166096363
49166099842
49166104786
49166108509
49166114612
49166120228
49166126026
49166131031
49166134754
49166139820
49166145313
49166150257
49166156971
49166161792
49166166858
49166171558
49166175403
49166180408
49166188465
49166193897
49166197620
49166202686
49166207142
49166212024
49166217090
49166222095
49166227771
49166231494
49166237842
49166241809
49166248035
49166252491
49166259204
49166264209
49166270313
49166275440
49166279651
49166283679
49166288989
49166293506
49166300037
49166303943
49166308582
49166313770
49166318469
49166323047
49166327686
49166333179
49166338367
49166343250
49166348621
49166352771
49166356799
49166362415
49166367847
49166372180
49166377124
49166380847
49166386706
49166391650
49166397449
49166402820
49166406848
49166411914
49166416553
49166421252
49166425464
49166430652
49166437549
49166441516
49166446582
49166451465
49166456469
49166460803
49166467212
49166472644
49166478503
49166482348
49166486438
49166491809
49166497180
49166503344
49166508532
49166512805
49166518786
49166523059
49166527636
49166532946
49166538317
49166543811
49166549304
49166554248
49166559069
49166563769
49166567980
49166575671
49166581164
49166585559
49166590502
49166594164
49166599536
49166604601
49166609606
49166616259
49166619860
49166624926
49166630053
49166633532
49166638659
49166645434
49166650866
49166654589
49166661486
49166667651
49166672778
49166678027
49166683092
49166689257
49166694140
49166700121
49166704943
49166709948
49166714892
49166720019
49166725939
49166731249
49166736681
49166742174
49166746935
49166752062
49166757433
49166763720
49166768053
49166773363
49166779223
49166784227
49166789049
49166795580
49166800035
49166804796
49166810045
49166814745
49166821215
49166826464
49166832140
49166837694
49166841906
49166848436
49166853441
49166858324
49166864977
49166869798
49166875963
49166881517
49166885240
49166891405
49166896105
49166901293
49166906786
49166912340
49166917711
49166921434
49166927782
49166933275
49166939073
49166943529
49166949632
49166956102
49166960435
49166966356
49166970995
49166975511
49166982164
49166987901
49166992479
49166997972
49167004198
49167009019
49167015184
49167020250
49167025194
49167028917
49167035997
49167040880
49167045152
49167050279
49167055772
49167060655
49167066331
49167071214
49167076890
49167082505
49167087144
49167093980
49167099046
49167104234
49167109788
49167116136
49167121202
49167127305
49167132432
49167136033
49167143052
49167147081
49167153733
49167158738
49167164414
49167170701
49167175706
49167181199
49167186692
49167191331
49167198533
49167203355
49167208909
49167213792
49167219041
49167223863
49167230576
49167236497
49167242295
49167247544
49167252915
49167259019
49167265977
49167270554
49167276963
49167282578
49167286240
49167292893
49167298630
49167303818
49167309739
49167315232
49167319138
49167326279
49167330979
49167336716
49167342270
49167348374
49167352524
49167358750
49167364121
49167370347
49167374802
49167381882
49167386338
49167391648
49167397385
49167401841
49167407029
49167413681
49167420029
49167425705
49167430893
49167434494
49167441147
49167447068
49167452988
49167457932
49167464401
49167469162
49167474228
49167480026
49167484482
49167490830
49167496384
49167500412
49167507065
49167512314
49167518417
49167523361
49167528915
49167534470
49167538193
49167543625
49167548996
49167554245
49167561081
49167566940
49167571274
49167576584
49167582321
49167587326
49167592575
49167597824
49167603744
49167608505
49167613388
49167618637
49167623581
49167628891
49167634628
49167641159
49167646164
49167650497
49167656418
49167661178
49167666061
49167670944
49167676925
49167682602
49167689254
49167693405
49167699752
49167703781
49167709640
49167714828
49167719101
49167725509
49167730514
49167735458
49167740158
49167747543
49167752243
49167758956
49167763595
49167769576
49167774215
49167778854
49167784713
49167790939
49167793502
49167801254
49167805587
49167810897
49167816024
49167822311
49167828231
49167832687
49167838424
49167842696
49167849227
49167854476
49167859664
49167866073
49167870101
49167876022
49167881942
49167886458
49167892684
49167897384
49167902877
49167908980
49167914229
49167918502
49167924544
49167929366
49167935409
49167941268
49167946761
49167952071
49167956283
49167962508
49167968367
49167974410
49167978377
49167983504
49167990340
49167995772
49168001693
49168007674
49168012374
49168017989
49168023604
49168027755
49168033919
49168039962
49168044356
49168049727
49168055281
49168061080
49168064742
49168070296
49168076277
49168082442
49168087569
49168092696
49168097273
49168102950
49168109297
49168113997
49168119002
49168124678
49168129744
49168134444
49168139815
49168145613
49168151106
49168156355
49168162581
49168166975
49168172896
49168178328
49168183760
49168189253
49168193892
49168199202
49168203291
49168210188
49168214827
49168221419
49168225691
49168230330
49168235640
49168240889
49168244551
49168251204
49168256514
49168263105
49168268660
49168274458
49168278914
49168284102
49168289961
49168295210
49168301252
49168306379
49168311201
49168317671
49168322493
49168328901
49168334638
49168340071
49168345930
49168350874
49168357771
49168362654
49168368757
49168374006
49168378095
49168386152
49168391401
49168396040
49168403364
49168408430
49168414777
49168419843
49168425275
49168431196
49168436201
49168441084
49168446027
49168452192
49168458112
49168461713
49168467634
49168473554
49168478437
49168484785
49168489240
49168495405
49168499799
49168505842
49168511213
49168516584
49168521467
49168527387
49168533307
49168538312
49168543866
49168548810
49168554303
49168560224
49168565534
49168571576
49168577008
49168580671
49168588300
49168593488
49168599286
49168604413
49168609845
49168615644
49168621259
49168626203
49168632367
49168637982
49168643781
49168648725
49168653791
49168658978
49168664411
49168670331
49168674603
49168681745
49168687116
49168692426
49168697980
49168702863
49168709515
49168714642
49168720502
49168725629
49168731061
49168735883
49168741742
49168746869
49168752972
49168757367
49168763165
49168768414
49168774335
49168779523
49168785077
49168789471
49168794964
49168800702
49168805768
49168811871
49168818341
49168823468
49168829144
49168833539
49168840619
49168846539
49168851117
49168857159
49168861920
49168867596
49168874310
49168879864
49168885479
49168891278
49168896527
49168901410
49168906475
49168912762
49168917523
49168923992
49168928509
49168934307
49168939434
49168943768
49168950299
49168955364
49168960858
49168966778
49168971539
49168976788
49168981976
49168986859
49168992901
49168997906
49169002117
49169008404
49169013897
49169020428
49169025066
49169030987
49169036846
49169042034
49169048382
49169052715
49169058208
49169062969
49169069439
49169074810
49169080608
49169086468
49169090618
49169095928
49169101909
49169107342
49169113994
49169119488
49169123760
49169128643
49169134136
49169139446
49169145244
49169150921
49169154949
49169161174
49169166668
49169170940
49169177166
49169183452
49169188823
49169193340
49169198894
49169203777
49169209331
49169214519
49169219951
49169224956
49169229961
49169236003
49169240764
49169246074
49169252178
49169259075
49169264995
49169269878
49169275310
49169281902
49169286846
49169292827
49169297344
49169303874
49169309062
49169315044
49169319865
49169325237
49169331645
49169336833
49169341106
49169347697
49169353313
49169358195
49169364604
49169369731
49169376018
49169380900
49169386149
49169392558
49169397502
49169403422
49169408000
49169413249
49169420146
49169424968
49169430888
49169435771
49169441447
49169446940
49169452067
49169457927
49169462504
49169469340
49169474284
49169479106
49169484843
49169491313
49169496196
49169501261
49169506205
49169513041
49169518229
49169524211
49169530741
49169535441
49169540080
49169545146
49169551127
49169557109
49169562174
49169568583
49169572795
49169579142
49169583231
49169589762
49169595927
49169601420
49169606974
49169612284
49169617411
49169622843
49169628336
49169633341
49169638468
49169644328
49169648417
49169653971
49169658793
49169666361
49169671732
49169676920
49169682780
49169686320
49169692240
49169696879
49169705607
49169710978
49169715983
49169720438
49169725870
49169731363
49169735453
49169742533
49169749125
49169753275
49169759012
49169762919
49169768290
49169772745
49169779764
49169786112
49169791300
49169797281
49169801981
49169806864
49169811808
49169817057
49169823160
49169827677
49169833414
49169839762
49169844889
49169851236
49169855997
49169862284
49169867960
49169873575
49169877481
49169883646
49169888590
49169893594
49169899637
49169904276
49169909647
49169915262
49169921854
49169927896
49169933206
49169939676
49169944681
49169949380
49169954813
49169960550
49169964639
49169970560
49169976663
49169980936
49169987466
49169992410
49169999734
49170006082
49170011453
49170015787
49170020669
49170027810
49170032754
49170038919
49170043924
49170049844
49170055093
49170061502
49170065774
49170072305
49170077493
49170083474
49170088662
49170094094
49170099221
49170105020
49170111917
49170117593
49170122354
49170128701
49170133828
49170139566
49170143655
49170150674
49170155618
49170160684
49170166604
49170171609
49170177529
49170181741
49170189248
49170195962
49170202432
49170206582
49170212075
49170216836
49170221780
49170227944
49170233559
49170238869
49170243813
49170248757
49170254128
49170260354
49170265542
49170270302
49170275490
49170281411
49170286233
49170292519
49170297402
49170303506
49170308694
49170315713
49170320290
49170325844
49170331276
49170335976
49170341958
49170347573
49170353981
49170358559
49170364296
49170370217
49170376076
49170382607
49170387123
49170392434
49170397377
49170403115
49170409890
49170414833
49170420998
49170426247
49170432106
49170437111
49170442848
49170448097
49170453591
49170458901
49170464882
49170470314
49170475929
49170481056
49170488197
49170492836
49170499062
49170505043
49170509865
49170513893
49170521217
49170525856
49170531532
49170537880
49170542946
49170547523
49170553078
49170558144
49170563698
49170569435
49170575355
49170580116
49170585976
49170590858
49170596840
49170603370
49170607826
49170613441
49170618019
49170623695
49170628395
49170634498
49170638954
49170644630
49170650428
49170655433
49170659889
49170664405
49170671425
49170677040
49170681923
49170687477
49170692665
49170698280
49170705177
49170711158
49170715736
49170720375
49170727088
49170732032
49170737159
49170742530
49170747718
49170753395
49170759071
49170765235
49170770912
49170775550
49170781837
49170787330
49170793433
49170798438
49170803565
49170809058
49170814307
49170820411
49170826087
49170831641
49170837135
49170842506
49170847816
49170853248
49170858802
49170865577
49170869849
49170875709
49170881934
49170886756
49170892493
49170898719
49170903968
49170909644
49170915137
49170920691
49170926917
49170932410
49170937354
49170942664
49170948707
49170952430
49170957923
49170962378
49170970435
49170975745
49170981421
49170986243
49170991614
49170995703
49171001929
49171006018
49171013159
49171017981
49171022498
49171027381
49171033606
49171038855
49171043921
49171050208
49171056494
49171061804
49171066199
49171071631
49171078101
49171082800
49171089514
49171094092
49171099951
49171104712
49171110205
49171115576
49171121619
49171125952
49171132727
49171137366
49171142004
49171147253
49171153357
49171158606
49171164648
49171169531
49171175329
49171180456
49171184790
49171192663
49171197668
49171203650
49171207983
49171214331
49171217932
49171224157
49171229895
49171236364
49171241003
49171246557
49171252111
49171257177
49171263098
49171270239
49171274572
49171280432
49171285009
49171291113
49171295507
49171302099
49171306738
49171312475
49171318212
49171323339
49171329321
49171333959
49171339819
49171345068
49171351171
49171356115
49171360754
49171366308
49171372595
49171377294
49171382665
49171389318
49171395544
49171400854
49171406713
49171413671
49171418249
49171424413
49171429723
49171435339
49171440466
49171445653
49171450536
49171456640
49171461034
49171466161
49171471410
49171477514
49171483251
49171488134
49171494481
49171498571
49171505163
49171511510
49171516393
49171521215
49171526830
49171533117
49171538183
49171543798
49171548314
49171554479
49171558568
49171565160
49171572301
49171577672
49171583287
49171589879
49171594823
49171600011
49171605870
49171611852
49171618138
49171623082
49171628453
49171634130
49171639562
49171644567
49171650426
49171657323
49171661473
49171667821
49171673131
49171678990
49171683873
49171689000
49171694737
49171699864
49171705541
49171709325
49171717564
49171722874
49171727452
49171733189
49171738621
49171742589
49171748997
49171754491
49171759740
49171764867
49171769627
49171774754
49171780797
49171784825
49171791905
49171796544
49171802281
49171808262
49171813145
49171819005
49171824986
49171831212
49171835667
49171841404
49171846653
49171851292
49171856541
49171862400
49171866673
49171873570
49171878147
49171884312
49171888768
49171894871
49171900364
49171905796
49171911717
49171916844
49171922642
49171928440
49171933262
49171938145
49171943699
49171949986
49171955418
49171959995
49171965794
49171972080
49171977085
49171983311
49171987888
49171993137
49171999119
49172004307
49172009495
49172015598
49172020908
49172025364
49172029881
49172037510
49172042393
49172047825
49172053562
49172059788
49172063877
49172070042
49172075352
49172080906
49172086338
49172091648
49172097446
49172102634
49172107578
49172113987
49172119724
49172124851
49172130100
49172136387
49172140964
49172146763
49172152927
49172157444
49172163059
49172169651
49172174778
49172179538
49172184909
49172190158
49172196018
49172202060
49172208103
49172211765
49172218357
49172222568
49172229587
49172235507
49172239108
49172246311
49172251315
49172257541
49172261630
49172267063
49172273227
49172279575
49172285495
49172289829
49172296298
49172303500
49172308322
49172314853
49172320041
49172325839
49172330844
49172336398
49172342197
49172348117
49172353183
49172358310
49172363620
49172368991
49172375033
49172379977
49172386508
49172392062
49172397372
49172403171
49172407809
49172412204
49172419223
49172423983
49172429904
49172435458
49172440036
49172445590
49172450961
49172457919
49172462497
49172467807
49172473422
49172479342
49172484591
49172491061
49172496005
49172501620
49172506503
49172513583
49172518283
49172523287
49172528231
49172533541
49172539340
49172545870
49172550753
49172555270
49172560092
49172566195
49172572360
49172577120
49172583285
49172587557
49172593722
49172598666
49172605135
49172610751
49172616183
49172621737
49172627413
49172632235
49172637850
49172643771
49172649325
49172655550
49172660128
49172665621
49172670687
49172676363
49172681551
49172686800
49172692293
49172697970
49172701998
49172708712
49172714571
49172720675
49172725069
49172731112
49172736849
49172742159
49172747530
49172752352
49172758638
49172763338
49172769808
49172774324
49172779390
49172784273
49172789827
49172795259
49172800569
49172806124
49172811983
49172816805
49172823152
49172829256
49172833101
49172840425
49172844820
49172850191
49172855745
49172861116
49172865755
49172871370
49172878877
49172882906
49172888094
49172894014
49172899873
49172906038
49172910616
49172916414
49172921724
49172926485
49172931367
49172936433
49172942354
49172947664
49172952913
49172958101
49172963045
49172969148
49172974824
49172980440
49172984895
49172990632
49172995027
49173001863
49173006379
49173012422
49173018709
49173023652
49173029634
49173035005
49173039766
49173046540
49173051240
49173055452
49173061799
49173066194
49173071504
49173076509
49173083589
49173088899
49173093904
49173099702
49173105073
49173110627
49173116304
49173121675
49173127473
49173132051
49173137727
49173143647
49173149568
49173154878
49173159333
49173165498
49173171662
49173177033
49173181489
49173187165
49173193635
49173198212
49173204316
49173210053
49173215485
49173220612
49173226472
49173231293
49173236848
49173242036
49173247895
49173253449
49173259370
49173263093
49173269196
49173275422
49173280610
49173286530
49173291779
49173297577
49173302460
49173307038
49173312775
49173318573
49173323884
49173329072
49173335114
49173339814
49173345307
49173351227
49173356110
49173361603
49173367401
49173372406
49173377350
49173382721
49173388520
49173394928
49173398957
49173404938
49173409760
49173415924
49173421295
49173426605
49173432953
49173438019
49173444367
49173449738
49173456329
49173461578
49173467011
49173472443
49173477509
49173482758
49173489716
49173494232
49173500031
49173506195
49173510651
49173516571
49173520599
49173526947
49173532562
49173538055
49173543732
49173547882
49173553131
49173557770
49173564422
49173570465
49173575714
49173581573
49173587189
49173591339
49173596039
49173604156
49173609466
49173615326
49173619903
49173626739
49173631805
49173636993
49173642120
49173647735
49173653473
49173659088
49173663910
49173669159
49173675445
49173680755
49173685882
49173692474
49173698089
49173702972
49173708404
49173714752
49173719818
49173725433
49173731109
49173736053
49173741485
49173747711
49173752471
49173758941
49173763885
49173769256
49173774505
49173780792
49173787078
49173792327
49173798187
49173803619
49173809051
49173813811
49173819366
49173824676
49173830474
49173835113
49173841338
49173847076
49173852874
49173857574
49173863860
49173868926
49173875518
49173880218
49173885222
49173890044
49173896514
49173902801
49173907317
49173912505
49173916961
49173922210
49173928496
49173932769
49173939299
49173943816
49173949431
49173954558
49173959868
49173966216
49173972075
49173976775
49173982512
49173986174
49173993315
49173998076
49174004058
49174007842
49174014678
49174020842
49174027129
49174032256
49174037322
49174043120
49174047698
49174052764
49174058440
49174064055
49174069426
49174074431
49174079619
49174084929
49174090361
49174096098
49174100859
49174106108
49174111845
49174115813
49174121733
49174126860
49174133452
49174138762
49174142912
49174148466
49174152067
49174159148
49174164091
49174170073
49174174589
49174179350
49174184782
49174191801
49174196867
49174202177
49174207487
49174213286
49174216948
49174224089
49174228178
49174234404
49174239531
49174244230
49174251005
49174255888
49174261442
49174266508
49174272123
49174278898
49174283720
49174289335
49174294645
49174300016
49174304838
49174310758
49174316252
49174321440
49174327116
49174332060
49174339201
49174344267
49174350248
49174356779
49174361601
49174366850
49174372404
49174378141
49174384184
49174389799
49174395597
49174399320
49174404691
49174410429
49174415556
49174422208
49174427213
49174433317
49174437894
49174443082
49174448820
49174453947
49174459867
49174466215
49174470548
49174475553
49174480680
49174485624
49174491239
49174496183
49174502103
49174506193
49174513089
49174518094
49174522794
49174529142
49174534024
49174539518
49174545438
49174551114
49174556852
49174562467
49174567105
49174572904
49174579496
49174584745
49174589261
49174595914
49174601346
49174606595
49174612699
49174617276
49174623014
49174629056
49174633145
49174639310
49174644315
49174649991
49174654752
49174660123
49174666654
49174672757
49174677152
49174684415
49174688687
49174694485
49174701321
49174707120
49174711880
49174717984
49174722562
49174728360
49174733243
49174739835
49174743924
49174749844
49174755704
49174761319
49174766812
49174772671
49174776333
49174783413
49174787869
49174793912
49174800259
49174804837
49174809659
49174814785
49174819912
49174825894
49174830655
49174836209
49174840969
49174845791
49174851406
49174855618
49174860928
49174867886
49174873501
49174878262
49174883938
49174888943
49174894314
49174899624
49174905178
49174911221
49174916775
49174921597
49174927212
49174932034
49174936489
49174941189
49174948818
49174953701
49174958218
49174963894
49174968411
49174974209
49174979763
49174986172
49174991238
49174996426
49175000942
49175006863
49175011135
49175016018
49175022793
49175028042
49175033840
49175038418
49175042995
49175049343
49175053860
49175059780
49175065273
49175071194
49175076809
49175081753
49175086880
49175092739
49175099331
49175104336
49175110500
49175114528
49175118923
49175124599
49175131191
49175136745
49175142727
49175147548
49175152858
49175159450
49175164455
49175169887
49175175563
49175180873
49175185695
49175191494
49175196743
49175202480
49175209194
49175214382
49175219631
49175225978
49175231105
49175237758
49175243739
49175248439
49175254604
49175258388
49175264125
49175269679
49175275417
49175280238
49175285732
49175291286
49175297084
49175301234
49175308314
49175313197
49175318202
49175325343
49175329738
49175334560
49175341212
49175346278
49175351039
49175357326
49175361354
49175368312
49175372828
49175378077
49175383693
49175389735
49175395534
49175400416
49175406337
49175411952
49175417750
49175421840
49175427455
49175433314
49175439479
49175443812
49175449611
49175455470
49175459132
49175466944
49175473170
49175478114
49175482753
49175489711
49175494288
49175499598
49175505030
49175510218
49175515772
49175522608
49175527003
49175532923
49175537196
49175544398
49175548487
49175554225
49175560450
49175566493
49175572047
49175577540
49175583094
49175587916
49175593226
49175598902
49175603541
49175607691
49175613367
49175619288
49175623865
49175629725
49175635706
49175641993
49175646937
49175651758
49175657068
49175662684
49175668543
49175674524
49175679224
49175684107
49175690210
49175694666
49175700220
49175705835
49175711512
49175715906
49175722315
49175728174
49175733240
49175738611
49175744226
49175749048
49175754724
49175759912
49175765528
49175771143
49175775537
49175782740
49175787317
49175792383
49175797327
49175803552
49175809473
49175813501
49175819422
49175827478
49175831507
49175838098
49175843225
49175849207
49175854700
49175860193
49175864649
49175869653
49175875757
49175882227
49175887903
49175893884
49175899561
49175905420
49175913538
49175918298
49175925378
49175930139
49175935510
49175939905
49175945520
49175951379
49175956506
49175961938
49175967615
49175972803
49175978357
49175982324
49175989404
49175994348
49175999475
49176004480
49176010278
49176015832
49176020715
49176025476
49176031091
49176036584
49176042260
49176045861
49176052514
49176056054
49176062036
49176067285
49176072961
49176077844
49176084558
49176089135
49176094140
49176099206
49176104882
49176111108
49176116601
49176121667
49176126428
49176131188
49176137780
49176142175
49176148400
49176154015
49176158776
49176164391
49176168847
49176174950
49176180871
49176186913
49176192406
49176197411
49176201989
49176207299
49176214257
49176219811
49176224023
49176229699
49176234887
49176240441
49176245568
49176250939
49176256859
49176260827
49176267663
49176272179
49176277672
49176284142
49176289330
49176295067
49176300805
49176305260
49176311303
49176316308
49176322350
49176328209
49176333886
49176339379
49176345360
49176349022
49176355248
49176361901
49176366967
49176372216
49176377343
49176381920
49176388268
49176393883
49176400048
49176405480
49176410729
49176416466
49176421227
49176426109
49176432091
49176438072
49176441918
49176448143
49176453575
49176458336
49176462914
49176469200
49176475426
49176481529
49176487999
49176492332
49176498131
49176504356
49176510582
49176516441
49176520714
49176526024
49176531944
49176537315
49176543846
49176548790
49176554893
49176559898
49176565513
49176571434
49176576011
49176581871
49176585960
49176591514
49176597496
49176602806
49176608970
49176612999
49176618553
49176625450
49176630821
49176635398
49176640648
49176645774
49176651573
49176657981
49176663047
49176667381
49176672874
49176677085
49176683250
49176687767
49176695152
49176700401
49176705100
49176711021
49176716026
49176721763
49176725364
49176733360
49176738670
49176744346
49176749046
49176753318
49176759422
49176764793
49176769187
49176776084
49176781150
49176786704
49176792991
49176797874
49176802940
49176808005
49176814048
49176818565
49176824912
49176829490
49176834739
49176839805
49176845786
49176851707
49176857444
49176863242
49176868125
49176873557
49176878440
49176884543
49176890098
49176896140
49176900901
49176906760
49176911399
49176917441
49176922873
49176927451
49176932822
49176938132
49176942893
49176947715
49176953208
49176959983
49176964499
49176969809
49176974387
49176980796
49176985739
49176992697
49176997702
49177002951
49177008078
49177014243
49177021018
49177025961
49177031210
49177036337
49177042685
49177047324
49177053305
49177058005
49177064291
49177069907
49177073508
49177079977
49177084372
49177090659
49177094687
49177102072
49177107809
49177112021
49177117636
49177122946
49177127585
49177133566
49177138266
49177145041
49177149679
49177155356
49177160666
49177166403
49177173056
49177178549
49177183920
49177188192
49177194540
49177200155
49177206564
49177211081
49177215902
49177221518
49177227316
49177232870
49177238791
49177243673
49177248068
49177253744
49177260519
49177265341
49177270712
49177275045
49177280172
49177286032
49177291525
49177295980
49177302816
49177307882
49177312521
49177318563
49177323324
49177330282
49177335592
49177341146
49177346639
49177351217
49177356710
49177362936
49177368490
49177374288
49177379415
49177384542
49177388204
49177396444
49177402059
49177407186
49177412313
49177418905
49177424032
49177429220
49177435873
49177440877
49177446187
49177452657
49177457662
49177463338
49177468404
49177474508
49177479879
49177485616
49177492269
49177498128
49177502584
49177509053
49177515706
49177521199
49177526204
49177531453
49177537130
49177542745
49177547994
49177553182
49177559346
49177564290
49177569478
49177575643
49177581014
49177587422
49177592000
49177597249
49177603169
49177609151
49177614766
49177620320
49177626302
49177631307
49177636739
49177641744
49177646932
49177652547
49177656636
49177663899
49177668660
49177674092
49177680074
49177685323
49177690816
49177696004
49177702107
49177706990
49177711995
49177716450
49177722249
49177726704
49177732197
49177737935
49177743489
49177748128
49177754170
49177758259
49177764241
49177771260
49177775899
49177782185
49177786885
49177792378
49177798359
49177803669
49177808552
49177813740
49177819661
49177823933
49177829365
49177835896
49177841267
49177846638
49177852925
49177856953
49177863362
49177868916
49177873432
49177878742
49177884175
49177889485
49177895893
49177901814
49177905598
49177913044
49177918232
49177925007
49177930195
49177935444
49177940937
49177945637
49177950764
49177956074
49177962605
49177966938
49177972797
49177977924
49177982929
49177988972
49177993671
49177999653
49178005085
49178011249
49178016376
49178021686
49178027119
49178032917
49178037433
49178043476
49178049213
49178054279
49178059772
49178065876
49178070392
49178075763
49178081806
49178086689
49178092487
49178096454
49178102375
49178108356
49178113666
49178118122
49178123066
49178129291
49178133869
49178139545
49178145404
49178149555
49178155719
49178160419
49178167865
49178173542
49178179157
49178184650
49178191120
49178194721
49178201068
49178206623
49178211994
49178217182
49178223529
49178229022
49178234271
49178239459
49178244586
49178251666
49178257465
49178262225
49178267413
49178271625
49178277911
49178283282
49178287921
49178294269
49178298846
49178306110
49178310626
49178315997
49178322406
49178327960
49178333209
49178338763
49178343829
49178349933
49178356097
49178362384
49178367999
49178373248
49178379291
49178384601
49178390094
49178394366
49178400226
49178406451
49178411395
49178416583
49178422503
49178427142
49178433551
49178438494
49178444476
49178449481
49178455340
49178459979
49178464617
49178470660
49178475238
49178480792
49178486468
49178491534
49178497210
49178503069
49178507830
49178513079
49178518633
49178524310
49178529559
49178533587
49178539874
49178544817
49178550372
49178556292
49178561541
49178566302
49178571429
49178577715
49178583331
49178589373
49178594927
49178599993
49178605730
49178611101
49178615862
49178620562
49178626543
49178632403
49178637774
49178642412
49178648089
49178654925
49178661089
49178665789
49178671648
49178675860
49178680864
49178686236
49178692461
49178697649
49178702410
49178708025
49178713457
49178718462
49178722979
49178728838
49178735430
49178737810
49178745073
49178749529
49178755388
49178760027
49178766008
49178771685
49178777178
49178782915
49178789324
49178794756
49178799639
49178804460
49178810259
49178817766
49178822649
49178827043
49178832842
49178838762
49178843584
49178849748
49178855547
49178861040
49178865312
49178871172
49178876787
49178881548
49178888261
49178892778
49178899248
49178904924
49178909990
49178916032
49178921098
49178926836
49178932756
49178937395
49178943071
49178946916
49178953874
49178958940
49178963579
49178969133
49178975114
49178980790
49178985612
49178992631
49178997331
49179002946
49179007402
49179012773
49179017778
49179023393
49179028825
49179033952
49179039201
49179044877
49179049150
49179054216
49179058976
49179065446
49179070756
49179076982
49179081498
49179086503
49179092668
49179096330
49179102494
49179108903
49179114213
49179119889
49179125871
49179131059
49179136308
49179142289
49179146745
49179153214
49179158585
49179164323
49179169816
49179174821
49179181229
49179185563
49179191178
49179195328
49179202531
49179207719
49179214371
49179219071
49179224381
49179230302
49179236832
49179240983
49179247025
49179253739
49179258317
49179265030
49179270218
49179274369
49179279679
49179284989
49179290726
49179296769
49179302201
49179307694
49179312210
49179317276
49179322342
49179327774
49179333878
49179337845
49179344620
49179349076
49179355179
49179361588
49179366471
49179371659
49179377213
49179382401
49179388016
49179393875
49179399613
49179402909
49179407120
49179411087
49179414810
49179418411
49179423172
49179427750
49179432205
49179436356
49179439957
49179443070
49179449417
49179453018
49179457352
49179462051
49179465591
49179468826
49179472122
49179478958
49179482132
49179486587
49179489944
49179495071
49179498428
49179503982
49179508316
49179513687
49179518021
49179519974
49179525528
49179529312
49179534378
49179540542
49179544571
49179548660
49179553482
49179556839
49179561722
49179566055
49179571548
49179575577
49179579361
49179583389
49179587600
49179593216
49179597671
49179602798
49179606643
49179610977
49179615677
49179619522
49179625015
49179628982
49179633438
49179637832
49179642166
49179646072
49179651992
49179656875
49179660903
49179664871
49179668289
49179673294
49179676834
49179681594
49179685440
49179689895
49179694229
49179698379
49179703384
49179708999
49179713027
49179716079
49179720718
49179725173
49179729751
49179733901
49179738662
49179743179
49179747634
49179752456
49179757278
49179762588
49179766677
49179770339
49179774673
49179780471
49179784377
49179790542
49179795180
49179799209
49179803420
49179807387
49179812270
49179818069
49179823073
49179826919
49179833571
49179837478
49179841323
49179845229
49179848464
49179851699
49179854995
49179858230
49179862441
49179867080
49179869582
49179873183
49179876418
49179879348
49179882460
49179886306
49179889357
49179893020
49179896315
49179899672
49179903457
49179906386
49179910292
49179912978
49179917373
49179920363
49179923232
49179927016
49179930190
49179932448
49179935805
49179938246
49179941481
49179944655
49179947280
49179949782
49179952773
49179955336
49179957534
49179960097
49179962233
49179964980
49179967604
49179970107
49179972487
49179975295
49179977797
49179979933
49179983046
49179985488
49179987929
49179990370
49179992690
49179995253
49179997328
49179999770
49180001845
49180004164
49180006117
49180008376
49180010390
49180012465
49180014906
49180016737
49180019362
49180021132
49180023024
49180024916
49180026747
49180028700
49180030470
49180032546
49180034743
49180036757
49180038954
49180040724
49180042555
49180044753
49180046645
49180048964
49180050856
49180053297
49180055373
49180057204
49180059218
49180061171
49180063185
49180065138
49180067152
49180068922
49180070937
49180072951
49180074599
49180076491
49180078444
49180080214
49180082472
49180084303
49180086134
49180088087
49180089796
49180092055
49180094008
49180096144
49180098158
49180100600
49180102431
49180104262
49180106703
49180108473
49180110548
49180112501
49180114332
49180116286
49180118239
49180120131
49180122206
49180124159
49180125868
49180128004
49180130324
49180132155
49180134047
49180135878
49180137892
49180139967
49180141859
49180143873
49180145704
49180147352
49180149794
49180151564
49180153517
49180155775
49180157789
49180159743
49180161696
49180163710
49180165663
49180167433
49180169569
49180171461
49180173292
49180175245
49180177137
49180178907
49180180922
49180182875
49180184584
49180186659
49180188368
49180190626
49180192762
49180194532
49180196730
49180198805
49180201002
49180202894
49180204908
49180206862
49180208937
49180210890
49180212660
49180214857
49180216810
49180218702
49180220778
49180222731
49180224867
49180226698
49180228651
49180230421
49180232496
49180234693
49180236647
49180238539
49180240431
49180242262
49180244520
49180246290
49180248854
49180250868
49180252821
49180254957
49180256910
49180259291
49180261183
49180263136
49180265089
49180266920
49180268934
49180270704
49180272474
49180274488
49180276258
49180278334
49180280287
49180282057
49180284071
49180286207
49180287916
49180289869
49180292188
49180293897
49180295912
49180297804
49180299696
49180301893
49180303785
49180305799
49180307874
49180309644
49180311598
49180313673
49180315504
49180317152
49180319166
49180321180
49180322828
49180324842
49180326490
49180328504
49180330213
49180332166
49180334242
49180335951
49180337904
49180339613
49180341505
49180343397
49180345289
49180347303
49180349195
49180351087
49180353162
49180355421
49180357496
49180359449
49180361463
49180363294
49180365247
49180367445
49180369459
49180371290
49180373304
49180375013
49180377088
49180379041
49180380994
49180382886
49180385023
49180386976
49180388807
49180390943
49180392957
49180395154
49180397108
49180399122
49180401197
49180403028
49180404859
49180406690
49180409070
49180410963
49180412733
49180414442
49180416334
49180418592
49180420484
49180422498
49180424390
49180426343
49180428113
49180430128
49180432142
49180434156
49180436170
49180438062
49180440381
49180442518
49180444532
49180446302
49180448255
49180450208
49180452649
49180454481
49180456189
49180458204
49180460157
49180462049
49180464246
49180466016
49180467786
49180469800
49180471692
49180473646
49180475416
49180477491
49180479566
49180481458
49180483533
49180486280
49180488111
49180490125
49180492017
49180494031
49180496045
49180498060
49180499830
49180501844
49180503736
49180505811
49180507764
49180510267
49180512281
49180514112
49180515760
49180517835
49180520276
49180522168
49180524060
49180526014
49180527784
49180529981
49180532117
49180534131
49180535657
49180537732
49180539868
49180541761
49180543775
49180545667
49180547681
49180549695
49180551648
49180553845
49180555738
49180557569
49180559461
49180561170
49180563428
49180565442
49180567395
49180569226
49180571118
49180573316
49180575208
49180577100
49180578809
49180580945
49180582654
49180584729
49180586621
49180588391
49180590405
49180592237
49180594007
49180596082
49180598035
49180599988
49180601941
49180603894
49180606214
49180608045
49180609937
49180611707
49180613599
49180615674
49180617444
49180619397
49180621228
49180623242
49180625073
49180626965
49180628858
49180630994
49180632825
49180634778
49180636670
49180638928
49180640881
49180642896
49180644727
49180646680
49180648938
49180650952
49180653027
49180654675
49180656689
49180658826
49180660718
49180662854
49180664624
49180666516
49180668408
49180670300
49180672437
49180674268
49180676282
49180678357
49180680371
49180682141
49180683972
49180685925
49180687695
49180689770
49180691846
49180693616
49180695447
49180697461
49180699353
49180701367
49180703381
49180705517
49180707410
49180710644
49180716199
49180719372
49180721448
49180723279
49180725354
49180727185
49180728955
49180731457
49180733410
49180735180
49180737195
49180739209
49180741162
49180743054
49180744824
49180746777
49180748791
49180750683
49180752514
49180754834
49180756787
49180758740
49180760632
49180762524
49180764599
49180766552
49180768689
49180770398
49180772229
49180774548
49180776318
49180778576
49180780468
49180782422
49180784253
49180786145
49180788098
49180789990
49180792004
49180793896
49180795727
49180797802
49180799756
49180801526
49180803357
49180805188
49180807324
49180809338
49180811291
49180813183
49180814892
49180817028
49180818921
49180821179
49180823010
49180825085
49180827404
49180829174
49180831616
49180833447
49180835400
49180837353
49180839184
49180841198
49180843029
49180844860
49180846752
49180848584
49180850598
49180852429
49180854504
49180856152
49180857922
49180860180
49180861950
49180864025
49180865917
49180867749
49180869702
49180871655
49180873974
49180875805
49180877697
49180879711
49180881603
49180883618
49180885510
49180887463
49180889355
49180891308
49180893383
49180895153
49180897228
49180899059
49180900829
49180902783
49180904553
49180906567
49180908398
49180910595
49180912548
49180914318
49180916638
49180918591
49180920361
49180922436
49180924206
49180926525
49180928417
49180930676
49180932324
49180934521
49180936474
49180938183
49180940075
49180941906
49180943676
49180945812
49180947582
49180949535
49180951611
49180953503
49180955395
49180957348
49180959362
49180961254
49180963390
49180965221
49180967052
49180969128
49180970959
49180973156
49180975048
49180977001
49180979137
49180980907
49180982922
49180984997
49180986950
49180988842
49180990673
49180992809
49180994640
49180996532
49180998547
49181000317
49181002209
49181004223
49181006115
49181007885
49181009777
49181011791
49181013683
49181015514
49181017528
49181019482
49181021313
49181023083
49181025402
49181027294
49181029308
49181031566
49181033397
49181035656
49181037365
49181039379
49181041210
49181043468
49181045238
49181047130
49181049083
49181050915
49181052746
49181054821
49181056835
49181058788
49181060619
49181062572
49181064464
49181066234
49181068554
49181070507
49181072399
49181074169
49181075878
49181078197
49181079967
49181082164
49181084057
49181085949
49181087841
49181089672
49181091991
49181093944
49181095775
49181097789
49181099682
49181101940
49181103771
49181105724
49181107372
49181109142
49181111400
49181113414
49181115306
49181117015
49181118908
49181121410
49181123241
49181125316
49181127269
49181129283
49181131298
49181133129
49181135570
49181137523
49181139476
49181141246
49181143016
49181145336
49181147045
49181148998
49181150829
49181152782
49181154735
49181156688
49181158580
49181160228
49181162303
49181164073
49181165782
49181167797
49181169628
49181171642
49181173534
49181175365
49181177684
49181179637
49181181590
49181183788
49181185680
49181187755
49181189891
49181191905
49181193736
49181195812
49181197887
49181199840
49181201732
49181203563
49181205394
49181207652
49181209422
49181211253
49181213023
49181215160
49181216930
49181218822
49181220958
49181222972
49181224742
49181226573
49181228526
49181230785
49181232921
49181234813
49181236827
49181238719
49181240916
49181242687
49181245128
49181246837
49181248851
49181250804
49181252696
49181255077
49181256908
49181258800
49181260814
49181262645
49181264537
49181266673
49181268565
49181270518
49181272472
49181274181
49181276195
49181278087
49181280101
49181281871
49181284007
49181285960
49181287852
49181290294
49181292064
49181294139
49181296153
49181298595
49181300548
49181302562
49181304271
49181306285
49181308726
49181310557
49181312511
49181314464
49181316417
49181318187
49181320079
49181322093
49181323985
49181326121
49181327952
49181329906
49181331981
49181333934
49181336009
49181337840
49181339732
49181342113
49181343944
49181345897
49181347911
49181349803
49181352061
49181354075
49181356334
49181358653
49181360606
49181362681
49181364634
49181366954
49181368907
49181370738
49181372752
49181374766
49181376597
49181378611
49181380748
49181382518
49181384349
49181386485
49181388255
49181390391
49181392161
49181394236
49181396495
49181398509
49181400645
49181402598
49181404673
49181406443
49181408519
49181410716
49181412608
49181414622
49181416453
49181418406
49181420542
49181422496
49181424571
49181426524
49181428172
49181430247
49181432322
49181434336
49181436167
49181438182
49181439952
49181441844
49181444285
49181446299
49181448252
49181450389
49181452281
49181454356
49181456187
49181458384
49181460093
49181461985
49181464183
49181466014
49181467723
49181469798
49181471873
49181473948
49181475901
49181477671
49181479624
49181481333
49181483286
49181485240
49181487315
49181489085
49181491038
49181493174
49181495005
49181497447
49181499461
49181501658
49181503550
49181505869
49181507639
49181509715
49181511912
49181513743
49181516306
49181518137
49181519907
49181521922
49181524058
49181525706
49181527842
49181529917
49181531931
49181533762
49181535777
49181537547
49181539866
49181541697
49181543833
49181545969
49181547678
49181550120
49181551951
49181553843
49181555979
49181557871
49181560130
49181561961
49181563914
49181566111
49181568003
49181569956
49181572031
49181574107
49181576060
49181578074
49181579905
49181581797
49181583811
49181585764
49181587595
49181589426
49181591502
49181593272
49181595103
49181596934
49181598948
49181601023
49181602915
49181604807
49181607371
49181609263
49181611216
49181613352
49181615244
49181617441
49181619456
49181621226
49181623362
49181625132
49181627268
49181629160
49181631052
49181633005
49181635019
49181636790
49181638804
49181640757
49181642588
49181644541
49181646250
49181648203
49181650400
49181652537
49181654490
49181656321
49181658335
49181660532
49181662363
49181664744
49181666575
49181668467
49181670542
49181672556
49181674692
49181676706
49181678598
49181680307
49181682322
49181684397
49181686411
49181688364
49181690378
49181692331
49181694162
49181696054
49181698008
49181699778
49181701548
49181703440
49181705393
49181707224
49181709116
49181710947
49181712900
49181714914
49181717112
49181719126
49181721201
49181723032
49181724924
49181726938
49181728952
49181730783
49181733164
49181735178
49181737070
49181738901
49181740732
49181742563
49181744455
49181746286
49181748178
49181750131
49181752024
49181753855
49181755686
49181757700
49181759958
49181761667
49181763864
49181765817
49181767649
49181769785
49181771738
49181773874
49181775644
49181777597
49181779367
49181781381
49181783518
49181785410
49181787485
49181789316
49181791330
49181793466
49181795175
49181797067
49181798776
49181800852
49181802561
49181804636
49181806223
49181808542
49181810190
49181812448
49181814279
49181816232
49181818308
49181820261
49181822702
49181824716
49181826791
49181828623
49181830881
49181833322
49181835153
49181837167
49181839121
49181841257
49181843027
49181844797
49181846811
49181848642
49181850412
49181852365
49181854135
49181855966
49181857980
49181859994
49181861765
49181863840
49181865610
49181867441
49181869760
49181871713
49181873544
49181875497
49181877634
49181879770
49181881723
49181883981
49181885995
49181888010
49181890207
49181891977
49181894235
49181895944
49181898324
49181900094
49181902109
49181903940
49181905954
49181907785
49181909738
49181911508
49181913522
49181915597
49181917428
49181919137
49181921152
49181923349
49181925302
49181927499
49181929513
49181931466
49181933908
49181935861
49181938058
49181939950
49181942270
49181944101
49181945993
49181948251
49181950204
49181951791
49181953805
49181955575
49181957467
49181959482
49181961374
49181963327
49181965219
49181967111
49181969186
49181971139
49181973153
49181975045
49181976938
49181978952
49181981149
49181983285
49181985360
49181987375
49181989267
49181991525
49181993478
49181995431
49181997140
49181999521
49182001291
49182003305
49182005197
49182006906
49182008920
49182010873
49182012582
49182014596
49182016549
49182018380
49182020211
49182022226
49182024423
49182026315
49182028024
49182029916
49182032235
49182034188
49182036080
49182038156
49182039987
49182042367
49182044198
49182046273
49182048715
49182050729
49182052438
49182054635
49182056588
49182058663
49182060861
49182062570
49182064523
49182066415
49182068429
49182070260
49182072213
49182074288
49182076486
49182078622
49182080514
49182082467
49182084481
49182086740
49182088571
49182090463
49182092843
49182094735
49182096627
49182098458
49182100900
49182102853
49182104745
49182106637
49182108651
49182110787
49182112618
49182114388
49182116219
49182118050
49182120065
49182122079
49182124093
49182126107
49182128182
49182129830
49182131722
49182133981
49182135934
49182137887
49182139596
49182141427
49182143929
49182145882
49182147652
49182149728
49182151803
49182154000
49182155770
49182157845
49182159798
49182161629
49182163399
49182165169
49182167123
49182169259
49182171395
49182173165
49182175301
49182177254
49182179024
49182181161
49182182931
49182184823
49182186959
49182189095
49182190865
49182192879
49182194894
49182197274
49182199044
49182201363
49182203438
49182205208
49182207406
49182209359
49182211617
49182213326
49182215279
49182217049
49182219002
49182221017
49182222787
49182224740
49182226693
49182228707
49182230721
49182232552
49182234322
49182236153
49182237984
49182240120
49182242257
49182245064
49182246956
49182249032
49182251107
49182252999
49182255257
49182257271
49182259102
49182261178
49182262764
49182265328
49182267220
49182269112
49182271004
49182272835
49182274849
49182276864
49182278634
49182280709
49182282601
49182284249
49182286263
49182288460
49182290413
49182292244
49182294381
49182296151
49182298531
49182300362
49182302437
49182304451
49182306282
49182308480
49182310616
49182312874
49182315071
49182317147
49182319527
49182321358
49182323189
49182325020
49182327095
49182329110
49182331002
49182333077
49182335091
49182336922
49182338875
49182340950
49182343209
49182345223
49182347237
49182348946
49182351204
49182353340
49182355232
49182357308
49182359078
49182361458
49182363289
49182365181
49182367501
49182369148
49182371224
49182373116
49182375130
49182377144
49182379280
49182381111
49182383003
49182384895
49182386788
49182388741
49182390694
49182392708
49182394600
49182396431
49182398262
49182400398
49182402290
49182404610
49182406868
49182408882
49182411385
49182413155
49182415230
49182417183
49182419197
49182421455
49182423470
49182425240
49182427193
49182429573
49182431343
49182433357
49182435066
49182436897
49182438911
49182440865
49182442818
49182445015
49182447029
49182448616
49182450630
49182452644
49182454842
49182456978
49182459114
49182461128
49182463264
49182465218
49182466988
49182469368
49182471321
49182473579
49182475410
49182477302
49182479439
49182481392
49182483284
49182485176
49182486946
49182488899
49182490974
49182492805
49182494820
49182496651
49182498726
49182500740
49182502876
49182504890
49182507088
49182509163
49182510933
49182513069
49182515022
49182517464
49182519172
49182521187
49182523323
49182525154
49182527229
49182529060
49182531074
49182533333
49182535408
49182537117
49182539192
49182541145
49182543098
49182545112
49182547127
49182548897
49182550972
49182552803
49182554634
49182556587
49182558479
49182560249
49182562080
49182564155
49182566353
49182568123
49182570442
49182572212
49182574226
49182576118
49182578071
49182579902
49182581733
49182583625
49182585334
49182587288
49182589180
49182591011
49182593025
49182594673
49182596626
49182598884
49182600593
49182602607
49182604438
49182606636
49182608711
49182610542
49182612373
49182617683
49182620124
49182621955
49182624092
49182626045
49182627876
49182630073
49182632026
49182634101
49182636177
49182638069
49182639839
49182641792
49182643745
49182645637
49182647468
49182649299
49182651374
49182653938
49182655769
49182657600
49182659553
49182661323
49182663703
49182665534
49182667488
49182669380
49182671272
49182673652
49182675544
49182677619
49182679634
49182681831
49182683723
49182685676
49182687629
49182689704
49182691413
49182693244
49182695075
49182697090
49182699226
49182701179
49182703010
49182705146
49182707038
49182709052
49182711067
49182712959
49182714912
49182716621
49182718574
49182720893
49182722846
49182724921
49182726753
49182728706
49182730781
49182732673
49182734565
49182736701
49182738532
49182740363
49182742255
49182744148
49182746406
49182750495
49182752753
49182755012
49182757087
49182759223
49182761359
49182763251
49182765327
49182767158
49182769050
49182771308
49182773139
49182774970
49182776801
49182778754
49182781013
49182782905
49182784858
49182786689
49182788581
49182790717
49182792609
49182794379
49182796210
49182798408
49182800300
49182802131
49182804145
49182806098
49182808417
49182810187
49182812324
49182814643
49182816413
49182818305
49182820197
49182822394
49182824470
49182826362
49182828071
49182830085
49182832831
49182834601
49182836616
49182838386
49182840278
49182842109
49182843940
49182845893
49182848090
49182850104
49182851935
49182853705
49182856025
49182857978
49182859748
49182861762
49182863715
49182865668
49182867743
49182869697
49182871833
49182873908
49182876044
49182878486
49182880317
49182881965
49182884101
49182886298
49182888190
49182890204
49182891913
49182893744
49182895636
49182897528
49182899421
49182901557
49182903510
49182905219
49182907233
49182909674
49182911750
49182913764
49182915534
49182917365
49182919684
49182921759
49182924079
49182926154
49182928046
49182929938
49182931952
49182934149
49182936347
49182938117
49182939887
49182941779
49182943793
49182945624
49182947638
49182949347
49182951361
49182953375
49182955390
49182957099
49182958991
49182960883
49182962836
49182964667
49182966986
49182968817
49182971015
49182972724
49182974799
49182976935
49182978705
49182980780
49182982916
49182984686
49182986579
49182988410
49182990302
49182992377
49182994086
49182995856
49182997931
49182999823
49183001776
49183003668
49183005499
49183007330
49183009467
49183011420
49183013373
49183015265
49183017218
49183019782
49183021857
49183023810
49183025824
49183027777
49183029730
49183031744
49183034064
49183036017
49183037848
49183039679
49183041510
49183043463
49183045355
49183047247
49183049200
49183051031
49183053107
49183054816
49183056891
49183058661
49183060492
49183062689
49183064459
49183066290
49183068243
49183070319
49183072394
49183074408
49183076544
49183078375
49183080511
49183082220
49183084235
49183086493
49183088446
49183090582
49183092352
49183094366
49183096258
49183098151
49183099921
49183101874
49183103888
49183105536
49183107733
49183109625
49183111456
49183113287
49183115362
49183117010
49183119024
49183121161
49183123236
49183124640
49183127264
49183129034
49183131048
49183132635
49183134344
49183136603
49183138373
49183140021
49183141791
49183143805
49183145636
49183147467
49183149542
49183151190
49183152899
49183154730
49183156561
49183158575
49183160345
49183162054
49183163946
49183165899
49183167852
49183169928
49183171637
49183173651
49183175421
49183177313
49183179510
49183181463
49183183477
49183185186
49183187262
49183188849
49183190619
49183192633
49183194403
49183196295
49183198248
49183200018
49183201971
49183204046
49183205755
49183207525
49183209234
49183211065
49183213140
49183215155
49183217413
49183218939
49183221258
49183223272
49183225592
49183227362
49183229132
49183230780
49183232550
49183234686
49183236212
49183237982
49183239874
49183241888
49183243597
49183245489
49183247503
49183249334
49183251043
49183252874
49183254888
49183256475
49183258367
49183259832
49183261541
49183263799
49183265631
49183267523
49183269232
49183271551
49183273260
49183275152
49183277105
49183278814
49183280584
49183282537
49183284307
49183286016
49183288091
49183289800
49183291570
49183293218
49183295171
49183297064
49183298895
49183301031
49183302984
49183304998
49183306707
49183308538
49183310247
49183312322
49183314520
49183316290
49183318365
49183320379
49183322088
49183324468
49183326605
49183328313
49183330267
49183332525
49183334234
49183335943
49183337652
49183339483
49183341253
49183343023
49183344732
49183346563
49183348272
49183350103
49183352239
49183353826
49183355779
49183357671
49183359563
49183361822
49183363653
49183365606
49183367193
49183369024
49183371221
49183373052
49183374578
49183376531
49183378545
49183380437
49183382146
49183384038
49183385747
49183387456
49183389226
49183391241
49183393133
49183395025
49183396795
49183398870
49183400518
49183402227
49183404546
49183406316
49183408269
49183409856
49183412054
49183413701
49183415777
49183417852
49183419561
49183421758
49183423528
49183425420
49183427190
49183428960
49183430730
49183432378
49183434148
49183436284
49183438238
49183439763
49183441472
49183443303
49183445684
49183447454
49183449224
49183450994
49183452886
49183454961
49183457219
49183459661
49183461309
49183463323
49183465276
49183467107
49183468999
49183470647
49183472478
49183474187
49183476018
49183477849
49183479436
49183481450
49183483342
49183485173
49183486882
49183488713
49183490606
49183492254
49183494085
49183495916
49183497747
49183499639
49183501592
49183503301
49183505254
49183507146
49183508977
49183510930
49183512639
49183514592
49183516362
49183518315
49183520146
49183521917
