49311793317
49311799908
49311807172
49311814069
49311820904
49311827679
49311834515
49311842572
49311848981
49311857098
49311864361
49311872418
49311878399
49311884381
49311891583
49311896893
49311902264
49311910687
49311918438
49311925274
49311931561
49311936200
49311942791
49311950177
49311958660
49311966656
49311973065
49311979779
49311985699
49311990460
49311998821
49312005841
49312013470
49312020001
49312026043
49312031780
49312039166
49312046856
49312053692
49312059734
49312066143
49312072552
49312080730
49312086407
49312095562
49312102215
49312108379
49312115765
49312123272
49312130474
49312137859
49312143780
49312152447
49312157879
49312165630
49312172588
49312179851
49312185283
49312194927
49312201885
49312207378
49312215252
49312220379
49312228435
49312233989
49312242656
49312249309
49312256694
49312263103
49312268779
49312274822
49312282512
49312288433
49312297954
49312304973
49312310161
49312318218
49312323711
49312331157
49312338603
49312346111
49312352824
49312361186
49312366252
49312374004
49312378947
49312386638
49312391887
49312401042
49312408183
49312415630
49312421733
49312428874
49312433940
49312441081
49312447734
49312456706
49312463603
49312471232
49312477397
49312483195
49312489421
49312496867
49312504558
49312510722
49312518596
49312525737
49312531535
49312537028
49312545024
49312550517
49312559123
49312565409
49312572673
49312578654
49312586222
49312592265
49312600382
49312606303
49312615702
49312624491
49312632426
49312639445
49312644999
49312652934
49312660746
49312668253
49312676127
49312683390
49312688761
49312697855
49312703349
49312711405
49312719218
49312726969
49312732889
49312741984
49312750529
49312758280
49312764261
49312773356
49312781473
49312789469
49312797709
49312805643
49312812967
49312820719
49312826700
49312835611
49312841654
49312849588
49312859659
49312867472
49312873636
49312880289
49312889322
49312895548
49312904398
49312913858
49312922708
49312930643
49312936624
49312945596
49312953592
49312958353
49312967081
49312973306
49312982767
49312990579
49312999246
49313005960
49313014749
49313021463
49313028299
49313037576
49313048013
49313053384
49313062173
49313069375
49313078225
49313083963
49313092813
49313101175
49313108804
49313117349
49313124734
49313133035
49313140542
49313147195
49313157693
49313165017
49313174783
49313182839
49313191079
49313199990
49313207925
49313214395
49313222573
49313231667
49313238076
49313247781
49313256265
49313264932
49313270120
49313279519
49313288003
49313294228
49313302529
49313312478
49313320290
49313329812
49313337014
49313344216
49313353554
49313360818
49313367409
49313378090
49313383706
49313393471
49313399575
49313407570
49313414772
49313422768
49313431923
49313440590
49313449074
49313457436
49313465126
49313472939
49313479042
49313489235
49313495583
49313504494
49313513588
49313521950
49313528298
49313537209
49313543434
49313551430
49313560768
49313568642
49313576332
49313584755
49313594032
49313599953
49313609230
49313614540
49313624489
49313631508
49313640419
49313647560
49313657387
49313663368
49313671303
49313679603
49313687599
49313694496
49313704384
49313713783
49313720070
49313729347
49313737587
49313744300
49313752967
49313761085
49313767677
49313778297
49313787879
49313794105
49313804054
49313810645
49313816932
49313827796
49313835975
49313844764
49313852210
49313861121
49313868995
49313876685
49313885291
49313894324
49313901527
49313908668
49313916907
49313925635
49313933936
49313941199
49313949012
49313957801
49313966468
49313974463
49313983008
49313991553
49313999854
49314008460
49314015845
49314023963
49314032264
49314040137
49314047705
49314056128
49314063269
49314070777
49314077368
49314084693
49314092078
49314100073
49314107031
49314115759
49314123389
49314131995
49314138037
49314146948
49314153662
49314162085
49314171973
49314178137
49314186499
49314192236
49314200720
49314206702
49314215918
49314224402
49314233252
49314238562
49314246863
49314252112
49314257849
49314265539
49314272497
49314277136
49314285009
49314290075
49314295141
49314302221
49314308508
49314314489
49314319922
49314326452
49314333410
49314339453
49314344274
49314351904
49314357519
49314364965
49314371252
49314376745
49314381567
49314389074
49314394628
49314401281
49314406286
49314413915
49314419409
49314424841
49314432043
49314437597
49314443884
49314449377
49314454565
49314459814
49314465246
49314470373
49314476476
49314482946
49314487768
49314494604
49314498632
49314505773
49314510534
49314515905
49314522314
49314526647
49314533666
49314539342
49314543310
49314549047
49314555028
49314560338
49314566076
49314572057
49314577611
49314582250
49314588170
49314594396
49314599340
49314604528
49314610387
49314615087
49314621740
49314626622
49314632665
49314638951
49314646154
49314650914
49314656591
49314662999
49314667760
49314673314
49314678502
49314685521
49314691625
49314696935
49314702855
49314709142
49314713475
49314720311
49314725499
49314731297
49314737523
49314742223
49314747716
49314751805
49314758153
49314762975
49314769200
49314775121
49314780919
49314786534
49314790807
49314798314
49314802708
49314807469
49314813389
49314818700
49314824315
49314828953
49314835545
49314840611
49314848302
49314853367
49314858861
49314864781
49314869725
49314875645
49314879979
49314885899
49314892186
49314896885
49314902867
49314909825
49314914219
49314919468
49314924900
49314930760
49314936314
49314941075
49314947300
49314952000
49314957432
49314963352
49314968540
49314974949
49314979283
49314985020
49314991245
49314996189
49315000584
49315005406
49315011692
49315017246
49315022617
49315028965
49315033482
49315038914
49315045322
49315050755
49315055759
49315061680
49315066868
49315072666
49315078526
49315084629
49315089390
49315094700
49315100925
49315105686
49315111851
49315118931
49315123691
49315129307
49315134678
49315141086
49315146152
49315151340
49315158787
49315163852
49315168064
49315174839
49315180515
49315186680
49315191623
49315196323
49315202366
49315209446
49315212986
49315219394
49315225071
49315231296
49315235447
49315242649
49315247165
49315252353
49315257724
49315262973
49315268222
49315274326
49315278903
49315285434
49315290073
49315295810
49315302280
49315308078
49315313999
49315319858
49315325595
49315332248
49315337497
49315342929
49315353061
49315357333
49315362582
49315369052
49315374606
49315379916
49315385471
49315389316
49315394931
49315400546
49315405734
49315412021
49315416537
49315421725
49315426730
49315432956
49315439670
49315446078
49315451510
49315455966
49315460727
49315466220
49315471835
49315477878
49315482699
49315488559
49315493747
49315499545
49315504977
49315511081
49315515719
49315523593
49315528415
49315533847
49315539584
49315546664
49315551608
49315556857
49315563204
49315567416
49315574313
49315580050
49315584445
49315590243
49315596469
49315602145
49315608126
49315613009
49315619723
49315624789
49315630831
49315636874
49315642428
49315647250
49315652804
49315658419
49315663973
49315669161
49315674471
49315680880
49315686495
49315692355
49315697848
49315702669
49315708590
49315713351
49315719210
49315725130
49315729647
49315736544
49315741244
49315746920
49315753328
49315759676
49315765291
49315771273
49315776644
49315780916
49315787447
49315792086
49315798983
49315804781
49315809298
49315816500
49315821199
49315827059
49315833162
49315839632
49315844820
49315849214
49315854769
49315860872
49315867098
49315873079
49315878267
49315883821
49315889376
49315892977
49315898775
49315903414
49315910127
49315916414
49315921846
49315926973
49315932100
49315938570
49315942964
49315949495
49315956636
49315960847
49315966890
49315972078
49315977205
49315983064
49315987886
49315993989
49315998628
49316003633
49316008943
49316014680
49316020296
49316026887
49316031892
49316037019
49316041353
49316046846
49316053193
49316058931
49316065523
49316071870
49316077974
49316082551
49316088228
49316093904
49316100679
49316105439
49316110627
49316116365
49316121492
49316128694
49316133699
49316140412
49316147309
49316151765
49316156404
49316162263
49316167695
49316173005
49316178865
49316184602
49316189851
49316195893
49316202241
49316206696
49316212434
49316218537
49316222993
49316228120
49316235261
49316240754
49316246552
49316251374
49316257478
49316262971
49316268159
49316273164
49316279206
49316283906
49316289399
49316294587
49316300263
49316306061
49316312287
49316317414
49316321931
49316328339
49316333649
49316339387
49316344697
49316350312
49316354889
49316360627
49316366486
49316371430
49316378327
49316383454
49316388825
49316395234
49316399445
49316405671
49316413605
49316417450
49316423188
49316429291
49316435456
49316440583
49316445282
49316451935
49316457672
49316462555
49316468781
49316474030
49316479645
49316485138
49316490631
49316496857
49316501373
49316506745
49316511749
49316517487
49316524689
49316531342
49316535919
49316540558
49316545502
49316551056
49316554779
49316560883
49316566742
49316572235
49316576813
49316582123
49316587189
49316592987
49316598907
49316604645
49316609405
49316614593
49316619598
49316625091
49316631439
49316636200
49316642364
49316645965
49316652923
49316658111
49316663055
49316669220
49316673553
49316678802
49316685028
49316690338
49316696136
49316700225
49316707061
49316713226
49316718414
49316723114
49316728363
49316732818
49316738433
49316745269
49316750274
49316755767
49316760162
49316765167
49316769805
49316775787
49316781280
49316787078
49316791107
49316796539
49316801422
49316805877
49316811126
49316817108
49316822234
49316827606
49316832793
49316838348
49316842559
49316848968
49316854766
49316859893
49316863921
49316870330
49316874602
49316878936
49316884246
49316890166
49316895415
49316900542
49316905974
49316912017
49316916472
49316921111
49316928191
49316933623
49316939178
49316943938
49316950225
49316954925
49316959197
49316966033
49316971099
49316976287
49316982695
49316987273
49316993438
49317000029
49317005584
49317011199
49317017302
49317022246
49317027922
49317034880
49317040557
49317045989
49317050749
49317056792
49317061614
49317066863
49317073577
49317078154
49317083830
49317089629
49317094267
49317102568
49317107756
49317114287
49317120085
49317125945
49317130888
49317135588
49317141264
49317147063
49317152007
49317157561
49317163176
49317168242
49317174895
49317179777
49317184782
49317190886
49317196684
49317201933
49317206572
49317212675
49317218352
49317223173
49317228667
49317234526
49317239165
49317245573
49317251372
49317256560
49317262114
49317267729
49317273893
49317279326
49317285673
49317292387
49317297941
49317303129
49317308805
49317313627
49317318754
49317325346
49317330534
49317335661
49317341581
49317345610
49317352812
49317358915
49317364836
49317369413
49317374418
49317380338
49317385343
49317391325
49317397550
49317403288
49317408231
49317414152
49317419584
49317425687
49317430570
49317435575
49317442655
49317447416
49317452482
49317458097
49317464384
49317469877
49317476224
49317480863
49317486295
49317492399
49317497831
49317504117
49317510831
49317515775
49317521879
49317525846
49317533292
49317538724
49317543485
49317549161
49317555387
49317560392
49317564969
49317570524
49317576261
49317580655
49317586026
49317592679
49317596585
49317603482
49317609159
49317615445
49317621183
49317627286
49317632901
49317637052
49317643888
49317648709
49317654080
49317660184
49317666287
49317671842
49317677762
49317693997
49317699796
49317705960
49317711636
49317717923
49317722989
49317730008
49317735989
49317741605
49317745755
49317751065
49317756924
49317761746
49317767361
49317772732
49317778531
49317784085
49317789212
49317794095
49317798550
49317804593
49317809903
49317815152
49317820401
49317826687
49317832974
49317838894
49317844449
49317849759
49317855130
49317859707
49317864529
49317870266
49317875271
49317881680
49317887661
49317892361
49317898770
49317903408
49317908230
49317913967
49317918484
49317925930
49317930386
49317934658
49317942898
49317947964
49317953396
49317959072
49317963467
49317970120
49317976162
49317979397
49317986599
49317991299
49317996365
49318002773
49318007473
49318014004
49318018826
49318024075
49318030605
49318035427
49318041042
49318047329
49318052334
49318058498
49318063686
49318069790
49318074123
49318080166
49318085659
49318091518
49318096645
49318102810
49318107021
49318112575
49318119106
49318123134
49318128872
49318135280
49318141689
49318146206
49318150905
49318157131
49318163662
49318168483
49318174526
49318179104
49318184475
49318190273
49318195644
49318201320
49318205776
49318211574
49318217800
49318222927
49318229641
49318236110
49318241481
49318246364
49318251735
49318257534
49318262111
49318267177
49318273219
49318279018
49318282741
49318289089
49318294948
49318301174
49318305812
49318311549
49318317348
49318321742
49318327968
49318334621
49318339320
49318345851
49318350551
49318356227
49318362514
49318367641
49318373805
49318378871
49318384791
49318390590
49318395167
49318400966
49318405238
49318411891
49318417323
49318422938
49318429286
49318434047
49318439723
49318447535
49318453639
49318458888
49318465602
49318469569
49318476893
49318482631
49318488185
49318494471
49318498988
49318504969
49318510463
49318516017
49318522792
49318527613
49318533473
49318538783
49318544398
49318547999
49318555506
49318561854
49318566249
49318572596
49318577540
49318583460
49318588526
49318594203
49318598780
49318603785
49318610316
49318615992
49318621058
49318627955
49318633936
49318639979
49318645167
49318650721
49318655787
49318660792
49318667017
49318672510
49318677637
49318682215
49318687403
49318691859
49318697047
49318703028
49318707667
49318712855
49318717676
49318721644
49318728724
49318732752
49318738794
49318743799
49318748987
49318753748
49318760767
49318765345
49318770228
49318777247
49318781397
49318786707
49318791285
49318796839
49318801905
49318807276
49318813135
49318818811
49318823999
49318829859
49318835352
49318840784
49318847681
49318854151
49318858484
49318864527
49318870752
49318876978
49318883142
49318889185
49318895044
49318901636
49318907495
49318912500
49318918726
49318925073
49318930566
49318935938
49318941492
49318947473
49318952966
49318957727
49318963708
49318968347
49318975671
49318980432
49318986047
49318990442
49318996423
49319002344
49319006738
49319012903
49319017236
49319023462
49319028161
49319033777
49319039880
49319045984
49319051477
49319056970
49319061548
49319068322
49319072961
49319078637
49319083398
49319089135
49319095544
49319100122
49319105554
49319110681
49319115319
49319120813
49319125390
49319131188
49319137109
49319141503
49319146874
49319153100
49319158410
49319164330
49319168237
49319174645
49319180016
49319185937
49319192101
49319198571
49319205651
49319211450
49319218041
49319223229
49319228661
49319235436
49319240502
49319246239
49319250756
49319257104
49319262658
49319267663
49319273461
49319280358
49319285485
49319290124
49319295312
49319301964
49319306603
49319312951
49319318261
49319323693
49319329186
49319334801
49319339074
49319344811
49319351647
49319356469
49319362633
49319366967
49319373131
49319379052
49319383995
49319389489
49319395287
49319401513
49319405541
49319411766
49319417199
49319421715
49319427330
49319434532
49319439110
49319445519
49319451805
49319456993
49319462975
49319468346
49319472801
49319478966
49319484337
49319490196
49319494774
49319499962
49319505699
49319509728
49319516258
49319521812
49319527977
49319533958
49319538963
49319546715
49319551231
49319557030
49319562157
49319567650
49319572716
49319578087
49319583153
49319589073
49319595482
49319601951
49319607200
49319613487
49319619835
49319625755
49319630577
49319635643
49319641868
49319645836
49319652305
49319658043
49319663231
49319669212
49319674583
49319679527
49319686485
49319691734
49319697044
49319702110
49319707664
49319712791
49319718345
49319723838
49319729698
49319735130
49319739707
49319746055
49319752037
49319756614
49319763877
49319768150
49319774192
49319779075
49319783836
49319788658
49319794517
49319799522
49319805991
49319810508
49319815269
49319820640
49319826560
49319831138
49319836814
49319841697
49319847007
49319853721
49319857993
49319864280
49319870200
49319875510
49319880332
49319885398
49319892051
49319897666
49319903403
49319909080
49319913962
49319920310
49319924827
49319929893
49319936240
49319942527
49319947959
49319954001
49319959067
49319964255
49319969870
49319974509
49319980979
49319986655
49319991843
49319996421
49320001303
49320008811
49320014182
49320019553
49320025717
49320029380
49320035788
49320041464
49320045798
49320052878
49320059775
49320064963
49320070334
49320076193
49320081931
49320086447
49320091757
49320097128
49320102499
49320107810
49320113669
49320118308
49320123679
49320129233
49320134543
49320140402
49320145773
49320151450
49320156821
49320162314
49320168051
49320173300
49320178854
49320185690
49320190146
49320196676
49320202475
49320206991
49320213278
49320218832
49320224997
49320230551
49320235739
49320241171
49320245871
49320251364
49320258871
49320263693
49320267965
49320274252
49320280478
49320285604
49320291586
49320296225
49320302694
49320308737
49320313253
49320319662
49320324667
49320329733
49320335165
49320341452
49320347067
49320352499
49320358236
49320361593
49320369283
49320376058
49320379965
49320386068
49320391378
49320396566
49320401815
49320406637
49320412496
49320418050
49320423238
49320428548
49320432455
49320439596
49320444112
49320449483
49320456502
49320462728
49320468221
49320473531
49320479269
49320484701
49320491231
49320496541
49320500997
49320507345
49320512899
49320518636
49320524190
49320530233
49320534810
49320539815
49320547811
49320552938
49320558736
49320564657
49320570943
49320578084
49320583211
49320588399
49320593709
49320599569
49320604451
49320610860
49320615132
49320621663
49320627828
49320632344
49320639424
49320644246
49320649434
49320655721
49320662007
49320666890
49320673116
49320678243
49320683919
49320690022
49320696309
49320701924
49320707417
49320711507
49320717610
49320723348
49320728963
49320733357
49320739217
49320745259
49320749287
49320755818
49320762898
49320768513
49320774068
49320778706
49320784566
49320789204
49320796590
49320801900
49320808308
49320813435
49320819050
49320823140
49320829915
49320836384
49320841267
49320847493
49320853779
49320857930
49320864460
49320869832
49320874714
49320880146
49320885640
49320892048
49320896504
49320902790
49320907856
49320916218
49320920552
49320926045
49320931294
49320936054
49320941365
49320947712
49320952961
49320959004
49320965046
49320971150
49320977070
49320982319
49320989887
49320994404
49321000507
49321006855
49321011494
49321016438
49321023457
49321029255
49321034870
49321039631
49321045185
49321050922
49321057087
49321062702
49321068500
49321073200
49321078449
49321085041
49321090534
49321096943
49321102436
49321108295
49321112812
49321117450
49321123249
49321129474
49321135029
49321139728
49321146198
49321151447
49321156757
49321161213
49321167621
49321173664
49321179157
49321185016
49321190876
49321196064
49321202106
49321207294
49321213031
49321219318
49321224262
49321230670
49321235248
49321240680
49321245929
49321251544
49321257343
49321261676
49321268207
49321272174
49321279804
49321284625
49321290546
49321295062
49321299762
49321305805
49321311786
49321318317
49321323810
49321329059
49321334857
49321339618
49321344928
49321351276
49321355121
49321362079
49321366595
49321372333
49321376971
49321381976
49321387347
49321392474
49321398150
49321402484
49321407977
49321412982
49321418475
49321424090
49321429217
49321435016
49321439532
49321445331
49321450030
49321455096
49321460894
49321464496
49321472369
49321477923
49321481952
49321486834
49321493304
49321499224
49321503985
49321509661
49321516741
49321523455
49321527606
49321534197
49321540179
49321545001
49321550982
49321557513
49321562335
49321568316
49321574297
49321579546
49321585467
49321591876
49321597674
49321603838
49321608721
49321614153
49321619952
49321624773
49321630450
49321636492
49321641253
49321647845
49321652727
49321656451
49321663409
49321668413
49321674273
49321680987
49321685930
49321691729
49321697283
49321703631
49321708636
49321713579
49321719134
49321724444
49321731402
49321736834
49321740923
49321746538
49321753985
49321759600
49321764788
49321770769
49321776445
49321781206
49321787065
49321792681
49321798418
49321804338
49321810442
49321815081
49321821184
49321827959
49321833330
49321838274
49321843279
49321848345
49321854570
49321860307
49321865679
49321872637
49321878313
49321882341
49321888750
49321893511
49321900224
49321905168
49321908952
49321915788
49321920976
49321925188
49321932512
49321936906
49321943010
49321949358
49321954362
49321959123
49321964128
49321970476
49321975725
49321981401
49321986284
49321991960
49321998063
49322003190
49322008684
49322015275
49322020402
49322026323
49322031816
49322037187
49322042680
49322047868
49322052690
49322058732
49322063615
49322067643
49322074296
49322080033
49322085832
49322092546
49322096757
49322102739
49322108110
49322115007
49322118791
49322125260
49322131669
49322136491
49322142961
49322149003
49322153947
49322159501
49322165360
49322171098
49322177018
49322180741
49322188065
49322195207
49322200822
49322206315
49322211259
49322216691
49322223405
49322227494
49322233170
49322240006
49322245866
49322251176
49322257767
49322262528
49322268815
49322273820
49322279923
49322284562
49322289628
49322295060
49322299943
49322305619
49322310746
49322316117
49322321549
49322326554
49322334000
49322339737
49322343277
49322350296
49322355912
49322361832
49322367264
49322371354
49322378617
49322384049
49322389664
49322393692
49322399124
49322404373
49322410050
49322416825
49322422684
49322427689
49322434281
49322438980
49322444535
49322450394
49322455033
49322461136
49322466446
49322471085
49322477799
49322483536
49322488419
49322494400
49322500382
49322505753
49322511307
49322516190
49322521439
49322527786
49322532059
49322539810
49322544144
49322550064
49322555801
49322560684
49322566482
49322571548
49322577347
49322583877
49322588150
49322593887
49322600357
49322604507
49322610367
49322615494
49322621109
49322626968
49322632034
49322637222
49322641433
49322647842
49322652725
49322658706
49322665298
49322671585
49322676468
49322682022
49322686538
49322693374
49322698257
49322703750
49322709610
49322714553
49322720169
49322726333
49322732131
49322737564
49322743423
49322749099
49322752517
49322759414
49322765762
49322771682
49322776504
49322782302
49322788162
49322792556
49322799270
49322804031
49322809829
49322815627
49322819289
49322825637
49322830154
49322836684
49322843276
49322846755
49322852187
49322857253
49322862197
49322867446
49322873488
49322878188
49322883376
49322888808
49322893935
49322899550
49322903396
49322910598
49322915175
49322920302
49322925368
49322931777
49322936355
49322940932
49322947158
49322952895
49322958083
49322962722
49322968032
49322972548
49322977309
49322984999
49322990309
49322994094
49322999465
49323004164
49323009291
49323013503
49323020461
49323025649
49323030532
49323035109
49323041152
49323045729
49323051344
49323057509
49323061415
49323067092
49323072829
49323077712
49323082106
49323088149
49323093153
49323098830
49323104018
49323109511
49323113295
49323118239
49323124342
49323130263
49323135634
49323140944
49323146559
49323152235
49323160048
49323165114
49323171278
49323176344
49323182509
49323187269
49323194349
49323199110
49323204054
49323211805
49323217238
49323222487
49323228590
49323235304
49323239698
49323245741
49323252455
49323258375
49323263319
49323268873
49323274794
49323280775
49323287306
49323291517
49323297865
49323301832
49323310011
49323314039
49323319471
49323325880
49323331129
49323336683
49323343153
49323348768
49323354017
49323359083
49323364454
49323370619
49323375318
49323381788
49323386549
49323394056
49323399305
49323403883
49323409559
49323416456
49323421888
49323427442
49323432813
49323438062
49323444105
49323450574
49323456373
49323461011
49323465772
49323473035
49323477857
49323483655
49323490247
49323495069
49323499830
49323507032
49323511548
49323517164
49323521741
49323528577
49323533277
49323538953
49323544507
49323549573
49323554822
49323561475
49323567273
49323571057
49323577710
49323583692
49323589002
49323593885
49323599744
49323605847
49323610608
49323616345
49323621106
49323626355
49323633435
49323640271
49323644727
49323650647
49323655713
49323661878
49323667981
49323674085
49323679578
49323685437
49323690259
49323695508
49323701062
49323706982
49323712354
49323718030
49323722546
49323728101
49323734021
49323740674
49323744824
49323751050
49323756726
49323762097
49323766431
49323771496
49323777844
49323783093
49323788586
49323794324
49323799145
49323805615
49323810864
49323815869
49323821667
49323827221
49323832348
49323837780
49323842724
49323848889
49323854992
49323860608
49323866101
49323871045
49323878186
49323883007
49323888867
49323894604
49323899182
49323905346
49323911816
49323917004
49323922436
49323928539
49323934704
49323939770
49323944592
49323949963
49323957226
49323962841
49323967968
49323973278
49323978710
49323983410
49323988598
49323994213
49323998974
49324004589
49324009106
49324014538
49324019543
49324025036
49324029736
49324035351
49324039989
49324045727
49324050976
49324054882
49324060009
49324064953
49324071544
49324077709
49324081798
49324087719
49324092357
49324097606
49324102367
49324108837
49324113842
49324118480
49324124584
49324129833
49324134899
49324141369
49324146495
49324152721
49324157726
49324162181
49324166820
49324172008
49324177929
49324183483
49324189830
49324193676
49324199291
49324203929
49324209728
49324214305
49324220165
49324224925
49324229076
49324234630
49324239940
49324245860
49324251109
49324257274
49324261852
49324267833
49324271922
49324277232
49324282542
49324288341
49324292369
49324299205
49324303661
49324309215
49324313976
49324319591
49324325145
49324330028
49324336009
49324340037
49324346080
49324350413
49324356090
49324360545
49324366099
49324371837
49324378184
49324382884
49324387645
49324392039
49324397960
49324404857
49324410960
49324415538
49324421336
49324425181
49324430797
49324436229
49324441600
49324447032
49324452464
49324458018
49324461436
49324467784
49324472850
49324478953
49324485240
49324489512
49324495066
49324498851
49324505137
49324510020
49324516184
49324522532
49324527049
49324532664
49324536204
49324542430
49324547495
49324551890
49324558299
49324563914
49324569224
49324574046
49324579478
49324585337
49324590647
49324596568
49324602549
49324607554
49324613108
49324619700
49324623911
49324630747
49324636301
49324642588
49324648264
49324653696
49324660471
49324665232
49324671580
49324677073
49324682810
49324688730
49324694895
49324699473
49324706125
49324712168
49324717051
49324722605
49324729563
49324735117
49324741587
49324746836
49324752146
49324756662
49324762461
49324768564
49324773752
49324778879
49324784861
49324791025
49324796762
49324802805
49324807321
49324814035
49324818796
49324824900
49324831064
49324837229
49324842478
49324849069
49324853586
49324859506
49324865427
49324869943
49324876047
49324882089
49324886484
49324892526
49324896310
49324903207
49324907419
49324915475
49324920663
49324926950
49324932504
49324937753
49324943368
49324948373
49324953500
49324958749
49324965097
49324969613
49324975656
49324979806
49324985788
49324992624
49324996774
49325002939
49325007028
49325012399
49325019052
49325024545
49325029794
49325036142
49325041696
49325048471
49325053659
49325059213
49325064584
49325069711
49325075326
49325081002
49325086312
49325092416
49325099374
49325105844
49325110543
49325115975
49325122994
49325128304
49325133676
49325140023
49325145699
49325150460
49325156442
49325162423
49325167428
49325173287
49325179330
49325184884
49325189462
49325195077
49325199776
49325206063
49325210946
49325217049
49325221993
49325226510
49325234444
49325238717
49325244637
49325250924
49325255807
49325260201
49325265328
49325272103
49325278023
49325283089
49325287789
49325292977
49325298653
49325305001
49325309395
49325315560
49325321480
49325325570
49325332467
49325336190
49325342843
49325347298
49325353096
49325359505
49325364083
49325370003
49325375374
49325380623
49325386788
49325392098
49325397286
49325402901
49325406563
49325413643
49325418587
49325424324
49325429024
49325434578
49325440437
49325446724
49325450874
49325457649
49325463326
49325467598
49325473213
49325477669
49325484444
49325490730
49325495857
49325502144
49325509590
49325516243
49325522163
49325527779
49325533638
49325539131
49325544014
49325547981
49325554817
49325562752
49325568672
49325574776
49325579292
49325586799
49325591316
49325597175
49325602424
49325609016
49325613777
49325619941
49325625740
49325631660
49325636909
49325642769
49325647773
49325653816
49325659675
49325667183
49325672432
49325677314
49325683540
49325688606
49325695075
49325700569
49325707832
49325712165
49325718574
49325724677
49325730781
49325737190
49325742072
49325747932
49325753669
49325757881
49325764045
49325768989
49325775886
49325781257
49325787666
49325793525
49325798896
49325805488
49325811652
49325817145
49325821845
49325827521
49325831733
49325838386
49325843757
49325849067
49325855231
49325861823
49325867133
49325871589
49325876410
49325884711
49325890449
49325893989
49325900031
49325903937
49325911506
49325917792
49325922004
49325928534
49325934943
49325939154
49325945075
49325950324
49325956183
49325961676
49325968146
49325974250
49325979315
49325984809
49325988959
49325994696
49326001776
49326006415
49326012152
49326016547
49326021796
49326028815
49326033820
49326039130
49326044684
49326050543
49326054877
49326062018
49326068060
49326072455
49326079169
49326085577
49326090277
49326096625
49326101141
49326106757
49326113776
49326119757
49326124884
49326129889
49326137091
49326141791
49326146185
49326153509
49326158392
49326164068
49326169195
49326175726
49326181341
49326186285
49326191290
49326196478
49326201971
49326208319
49326214789
49326219976
49326224737
49326229254
49326235540
49326242376
49326247625
49326253424
49326258917
49326264532
49326270513
49326275518
49326282537
49326288153
49326293585
49326299444
49326304388
49326311346
49326315985
49326321966
49326327520
49326332586
49326338262
49326344000
49326348516
49326354620
49326360357
49326366399
49326371160
49326376653
49326382330
49326388982
49326393804
49326399236
49326405462
49326410528
49326415288
49326421148
49326426336
49326432378
49326437383
49326443243
49326448675
49326453863
49326459905
49326464178
49326470586
49326476079
49326481511
49326486272
49326491521
49326497197
49326503240
49326508550
49326513067
49326518132
49326523748
49326528203
49326534429
49326540288
49326546209
49326550481
49326555913
49326561162
49326568669
49326574895
49326578679
49326585698
49326590764
49326597051
49326602971
49326609258
49326614385
49326620915
49326626958
49326632146
49326638249
49326643376
49326649114
49326654241
49326661076
49326665898
49326671758
49326676823
49326683354
49326688237
49326693791
49326698491
49326704961
49326711430
49326715459
49326721501
49326727727
49326732609
49326738225
49326743169
49326748418
49326755314
49326759404
49326765629
49326769780
49326775395
49326780949
49326786931
49326793522
49326798771
49326803898
49326809453
49326814274
49326820317
49326826603
49326831364
49326836003
49326841862
49326847172
49326851200
49326857121
49326864079
49326869267
49326875004
49326880192
49326883732
49326890568
49326894963
49326900883
49326906498
49326911930
49326917484
49326923527
49326930058
49326935063
49326941349
49326948185
49326953617
49326957157
49326964726
49326970402
49326976872
49326981754
49326986820
49326993351
49326999638
49327003483
49327010014
49327014713
49327021244
49327025638
49327030216
49327036808
49327041935
49327046757
49327052921
49327057377
49327063785
49327070743
49327076908
49327081302
49327088077
49327093876
49327098270
49327104068
49327109806
49327114994
49327120609
49327126468
49327130863
49327136844
49327143863
49327149234
49327155155
49327161197
49327165409
49327171512
49327175907
49327181827
49327188053
49327193729
49327199222
49327204349
49327210025
49327215701
49327220340
49327225894
49327232852
49327237552
49327243167
49327248905
49327253909
49327260135
49327265140
49327270511
49327275638
49327281009
49327287112
49327293887
49327297855
49327303836
49327308414
49327313968
49327320926
49327326846
49327331851
49327337222
49327343509
49327348208
49327353213
49327360293
49327366336
49327370975
49327377444
49327381839
49327387515
49327393985
49327399356
49327405093
49327409915
49327415286
49327421878
49327426883
49327433535
49327439151
49327445010
49327450869
49327455996
49327461367
49327467044
49327472415
49327477114
49327483279
49327488589
49327493106
49327498355
49327505618
49327510134
49327515750
49327521487
49327527285
49327534426
49327540041
49327547183
49327552004
49327558230
49327563357
49327567873
49327572085
49327578371
49327583743
49327588992
49327595217
49327600344
49327605837
49327612246
49327618166
49327623354
49327629580
49327634402
49327640383
49327648012
49327653200
49327657839
49327663210
49327669192
49327674074
49327679445
49327686342
49327690737
49327695986
49327702273
49327707460
49327713320
49327720095
49327724550
49327731020
49327736635
49327742434
49327748049
49327753542
49327759218
49327763246
49327768801
49327774904
49327780153
49327785524
49327791078
49327796450
49327801149
49327807314
49327813051
49327817751
49327823610
49327829897
49327835024
49327840700
49327845400
49327851137
49327855287
49327862184
49327866884
49327873171
49327877321
49327883546
49327888673
49327893983
49327900392
49327904665
49327910158
49327916200
49327921083
49327926576
49327932069
49327939210
49327943971
49327948854
49327955079
49327960267
49327963991
49327971681
49327976137
49327982362
49327988771
49327994691
49328000978
49328005861
49328011842
49328017640
49328023317
49328028444
49328033265
49328038575
49328043092
49328050050
49328055909
49328061463
49328065675
49328071839
49328076905
49328081849
49328088075
49328092897
49328097596
49328103150
49328107850
49328114259
49328119813
49328125733
49328130372
49328134767
49328140809
49328145936
49328151246
49328155396
49328161378
49328167603
49328173096
49328177186
49328182618
49328189210
49328195252
49328200501
49328205872
49328211426
49328216248
49328222413
49328228638
49328233948
49328240601
49328247498
49328252808
49328259339
49328264283
49328271058
49328275635
49328281556
49328286377
49328292786
49328299988
49328305909
49328311036
49328314881
49328320923
49328326416
49328330567
49328336426
49328342530
49328349305
49328355042
49328358826
49328365967
49328371338
49328377381
49328381897
49328388184
49328393311
49328398804
49328403748
49328408692
49328416260
49328421692
49328426880
49328431030
49328436646
49328442444
49328449219
49328454529
49328459595
49328465881
49328471191
49328475769
49328480774
49328487854
49328493042
49328497742
49328502808
49328507202
49328512024
49328518310
49328522888
49328528076
49328532104
49328537536
49328543091
49328547851
49328553467
49328557861
49328563598
49328568970
49328573486
49328579162
49328583496
49328589294
49328592895
49328598633
49328602295
49328606262
49328609619
49328612487
49328617370
49328620178
49328624878
49328628234
49328631836
49328636230
49328638733
49328643371
49328647949
49328652648
49328656616
49328660705
49328663940
49328668701
49328672973
49328676696
49328681945
49328686523
49328690673
49328694457
49328699890
49328703613
49328707885
49328713500
49328718017
49328723083
49328729614
49328734069
49328736938
49328741454
49328745910
49328749206
49328753906
49328758300
49328762756
49328766906
49328771239
49328776061
49328780029
49328784667
49328789367
49328794006
49328797912
49328802428
49328805602
49328812194
49328817382
49328821105
49328825317
49328830016
49328833251
49328837524
49328842223
49328846618
49328851317
49328854857
49328858886
49328864135
49328868163
49328873168
49328876708
49328880980
49328885070
49328889525
49328894408
49328899596
49328904052
49328907775
49328911559
49328916137
49328921813
49328927184
49328931578
49328935729
49328939452
49328943969
49328947753
49328953185
49328957518
49328961730
49328965026
49328970580
49328974364
49328980651
49328983763
49328988707
49328993590
49328996703
49329000975
49329006713
49329011962
49329016478
49329020629
49329024352
49329028502
49329033080
49329037962
49329042662
49329046629
49329050169
49329055663
49329058836
49329064024
49329068236
49329072569
49329077269
49329081297
49329085814
49329089903
49329094725
49329099974
49329104185
49329107176
49329112364
49329116576
49329121153
49329125853
49329129698
49329135191
49329140318
49329144346
49329148741
49329152830
49329156737
49329161009
49329165159
49329169920
49329174864
49329178953
49329183165
49329186766
49329189573
49329195372
49329198668
49329203611
49329208494
49329212217
49329219481
49329224913
49329232481
49329239927
49329247984
49329254637
49329261228
49329268553
49329275694
49329281492
49329290403
49329295652
49329307554
49329314939
49329322935
49329331297
49329339781
49329344297
49329353086
49329359373
49329365415
49329376646
49329384275
49329391843
49329398801
49329404050
49329410520
49329418638
49329422727
49329434263
49329440671
49329448850
49329455686
49329461484
49329468870
49329475767
49329483579
49329487180
49329496091
49329502317
49329510190
49329517820
49329524350
49329531797
49329537900
49329544858
49329551938
49329559079
49329565671
49329575131
49329579831
49329587033
49329593564
49329600888
49329607663
49329613400
49329621579
49329631101
49329638974
49329644894
49329651059
49329657529
49329665524
49329672849
49329677487
49329685849
49329694028
49329701657
49329705502
49329715451
49329719235
49329726803
49329734250
49329739499
49329749875
49329754941
49329763302
49329770138
49329777890
49329781552
49329788876
49329796017
49329803219
49329810666
49329818844
49329824582
49329833798
49329839413
49329845028
49329852352
49329859616
49329865048
49329873471
49329881100
49329887509
49329895382
49329901180
49329909237
49329914059
49329920712
49329926022
49329935177
49329942684
49329951473
49329959042
49329965572
49329972164
49329978512
49329986202
49329993648
49330005184
49330012325
49330018429
49330025020
49330030819
49330039120
49330043575
49330053829
49330060482
49330067928
49330076046
49330082454
49330088558
49330095211
49330102352
49330110225
49330115902
49330126400
49330131282
49330138301
49330150508
49330156124
49330164730
49330169185
49330175838
49330185787
49330191097
49330199764
49330204158
49330213619
49330220882
49330229122
49330234615
49330239375
49330247981
49330254634
49330262569
49330270381
49330276241
49330285396
49330290095
49330299251
49330307063
49330314754
49330321467
49330329036
49330334346
49330342219
49330348567
49330357356
49330361934
49330373530
49330380488
49330387202
49330394709
49330400386
49330409053
49330415706
49330423579
49330431453
49330437007
49330445430
49330450190
49330457148
49330466975
49330472468
49330478938
49330485469
49330493647
49330501704
49330510493
49330515986
49330520564
49330528803
49330538874
49330544062
49330552912
49330557307
49330567194
49330574641
49330582514
49330588374
49330596674
49330602961
49330609797
49330614619
49330623469
49330628046
49330641413
49330646174
49330655573
49330663202
49330667658
49330676447
49330682978
49330691279
49330698420
49330705927
49330714533
49330721552
49330727961
49330734980
49330741693
49330749384
49330755670
49330763971
49330770685
49330778559
49330788324
49330790827
49330801386
49330806024
49330815180
49330823175
49330828302
49330837030
49330841425
49330851495
49330860468
49330873102
49330884393
49330890741
49330899286
49330903802
49330910943
49330918573
49330925714
49330932428
49330939386
49330947442
49330955194
49330961114
49330969232
49330973810
49330981073
49330988519
49330994134
49331006585
49331014703
49331020990
49331027459
49331034784
49331039605
49331046563
49331052423
49331058160
49331063714
49331072442
49331079095
49331084954
49331090875
49331097955
49331104852
49331110833
49331116570
49331122552
49331128167
49331137933
49331145074
49331152337
49331158318
49331163995
49331170220
49331176812
49331184014
49331188653
49331194329
49331201165
49331211785
49331218987
49331226189
49331233513
49331240777
49331248162
49331254693
49331262444
49331269463
49331276909
49331284478
49331290520
49331298699
49331303338
49331311150
49331318474
49331325249
49331333794
49331339592
49331345269
49331351494
49331357842
49331364678
49331371514
49331376885
49331382744
49331387627
49331398369
49331405022
49331413567
49331420525
49331425530
49331432365
49331438469
49331443962
49331449944
49331456169
49331466240
49331471550
49331479423
49331485954
49331491447
49331497368
49331503227
49331510612
49331514641
49331522636
49331533317
49331538505
49331546074
49331551689
49331559318
49331563225
49331572014
49331577934
49331584526
49331592888
49331601188
49331607353
49331613578
49331619682
49331626640
49331633476
49331638908
49331644889
49331650138
49331658317
49331667228
49331673088
49331681083
49331686820
49331692924
49331698844
49331705680
49331709648
49331717094
49331726615
49331731925
49331739799
49331745231
49331752799
49331757194
49331763725
49331770866
49331777640
49331786124
49331792655
49331799369
49331805350
49331812369
49331819388
49331826041
49331831962
49331837943
49331844474
49331851920
49331860770
49331866080
49331870109
49331879874
49331885795
49331892386
49331897696
49331901603
49331911856
49331916190
49331924002
49331930899
49331939994
49331945853
49331954337
49331961966
49331968558
49331975150
49331981558
49331989493
49331997000
49332003653
49332012015
49332016470
49332024527
49332031912
49332037894
49332048941
49332056754
49332062918
49332071524
49332078360
49332085379
49332092764
49332102408
49332108572
49332116263
49332123953
49332132193
49332139456
49332145682
49332152456
49332159231
49332166861
49332173636
49332184622
49332189322
49332199392
49332206656
49332214529
49332222647
49332229849
49332239370
49332248342
49332255117
49332262625
49332270132
49332277822
49332282888
49332291494
49332295828
49332303213
49332311208
49332317373
49332327139
49332335317
49332340505
49332348562
49332355215
49332364004
49332370657
49332377126
49332384145
49332391531
49332397207
49332406362
49332413564
49332420583
49332427541
49332435171
49332441945
49332448598
49332455068
49332463125
49332471731
49332479238
49332485402
49332492055
49332498830
49332506337
49332512563
49332521352
49332527822
49332534780
49332543325
49332550099
49332558461
49332565724
49332572377
49332578847
49332583913
49332592580
49332597218
49332604787
49332615285
49332620900
49332629323
49332636464
49332642812
49332649464
49332656850
49332662221
49332669057
49332675893
49332687001
49332693349
49332701161
49332708180
49332714589
49332721425
49332727772
49332736378
49332743519
49332749379
49332757679
49332766652
49332772450
49332780262
49332786488
49332793446
49332800770
49332806202
49332814503
49332822316
49332829884
49332837879
49332845692
49332854176
49332862293
49332869984
49332879444
49332884388
49332896046
49332901356
49332907948
49332917530
49332926136
49332933155
49332940662
49332948841
49332955006
49332960011
49332972156
49332979542
49332985828
49332994617
49333002430
49333009205
49333016590
49333024586
49333032947
49333041065
49333050525
49333055225
49333065235
49333072010
49333079761
49333088672
49333095386
49333104297
49333109485
49333121448
49333126514
49333134693
49333143054
49333151172
49333160327
49333165149
49333172779
49333181262
49333189746
49333197131
49333206226
49333211963
49333219592
49333225818
49333234424
49333238757
49333245715
49333253772
49333259937
49333272144
49333277576
49333286059
49333293933
49333299548
49333307178
49333313952
49333320361
49333327014
49333334155
49333342761
49333349231
49333358630
49333365832
49333372180
49333379077
49333384082
49333392566
49333397387
49333405505
49333416125
49333422534
49333430590
49333436816
49333443164
49333450183
49333457446
49333465258
49333472827
49333480761
49333487902
49333496142
49333504077
49333510119
49333515917
49333522265
49333528979
49333536730
49333542895
49333550280
49333556811
49333563464
49333571703
49333577624
49333586169
49333590441
49333599474
49333607043
49333613268
49333621081
49333628283
49333633715
49333642443
49333646898
49333654650
49333658434
49333665026
49333671984
49333677904
49333688768
49333696947
49333703356
49333709642
49333714647
49333721544
49333728258
49333733629
49333739550
49333746996
49333755419
49333762499
49333768846
49333774889
49333781481
49333788378
49333794542
49333799913
49333805711
49333810472
49333823167
49333830736
49333835924
49333839891
49333849901
49333855760
49333860338
49333868150
49333871995
49333880968
49333887071
49333895616
49333903123
49333907335
49333914903
49333921739
49333926439
49333933275
49333938707
49333948900
49333955980
49333964341
49333970811
49333976915
49333983751
49333990525
49333996507
49334002366
49334006456
49334015550
49334023667
49334029710
49334035630
49334041062
49334049790
49334053697
49334061570
49334067369
49334073045
49334081529
49334089890
49334095628
49334103318
49334108994
49334115342
49334121323
49334128465
49334134934
49334141282
49334146958
49334155869
49334163071
49334170090
49334179246
49334186997
49334194688
49334201279
49334209275
49334214036
49334222886
49334230332
49334237168
49334245286
49334249619
49334257187
49334264573
49334270676
49334280686
49334290207
49334296799
49334303452
49334310471
49334315903
49334324875
49334330918
49334337509
49334342575
49334351609
49334358994
49334366928
49334371079
49334378525
49334385300
49334391220
49334398972
49334403061
49334409409
49334421860
49334428879
49334435959
49334442001
49334447617
49334453720
49334462021
49334467087
49334474655
49334481430
49334487839
49334494614
49334502182
49334508102
49334515854
49334521896
49334527878
49334533920
49334541672
49334549911
49334555587
49334563034
49334567062
49334575119
49334582016
49334586898
49334594894
49334598861
49334604599
49334613021
49334620590
49334627914
49334632003
49334637863
49334646713
49334651107
49334658676
49334663009
49334669357
49334679733
49334686447
49334692306
49334699752
49334705367
49334711715
49334716781
49334724471
49334730697
49334736190
49334743636
49334751144
49334758285
49334763229
49334768844
49334774947
49334781661
49334788497
49334795394
49334801864
49334809188
49334815169
49334823043
49334825118
49334835921
49334842086
49334846969
49334853988
49334863143
49334872054
49334877547
49334885909
49334889876
49334897017
49334903975
49334910567
49334918563
49334922469
49334929122
49334936263
49334944197
49334952376
49334958663
49334964339
49334970503
49334976607
49334983992
49334989852
49334998457
49335005538
49335015547
49335021590
49335029158
49335037032
49335044051
49335051863
49335058272
49335065352
49335072066
49335079878
49335088484
49335095320
49335101668
49335108259
49335119185
49335135481
49335156233
49335161970
49335167891
49335177412
49335183882
49335193037
49335198347
49335205549
49335212751
49335221418
49335228498
49335235273
49335241438
49335249861
49335255964
49335262617
49335267927
49335272016
49335283857
49335287946
49335295393
49335303327
49335313154
49335319746
49335324628
49335333845
49335339704
49335346662
49335353010
49335362409
49335368696
49335374738
49335381879
49335388471
49335394575
49335402875
49335408735
49335416913
49335424848
49335433271
49335439802
49335446271
49335452985
49335460065
49335468183
49335474164
49335484601
49335493024
49335499250
49335507184
49335512860
49335521833
49335526410
49335535565
49335543195
49335547833
49335557111
49335564130
49335573224
49335579999
49335585614
49335594098
49335599286
49335608930
49335615826
49335621991
49335632672
49335639691
49335645856
49335652692
49335659161
49335667584
49335675336
49335682049
49335689191
49335696454
49335705670
49335713116
49335719403
49335726239
49335733868
49335739544
49335747113
49335753460
49335760357
49335769818
49335779095
49335784588
49335793621
49335798016
49335805889
49335813946
49335820782
49335830120
49335834698
49335843304
49335854901
49335862286
49335867840
49335876629
49335882916
49335889691
49335897076
49335904827
49335910687
49335917767
49335924603
49335932903
49335940777
49335947735
49335954021
49335960796
49335968853
49335976543
49335982281
49335991863
49335996685
49336005840
49336012615
49336020916
49336026470
49336034649
49336041179
49336047893
49336055767
49336063701
49336072185
49336078289
49336086650
49336092327
49336100078
49336106792
49336113567
49336120098
49336127544
49336137126
49336142925
49336151897
49336160320
49336166911
49336174053
49336181621
49336187114
49336195293
49336200847
49336208965
49336215190
49336223735
49336228496
49336237956
49336244670
49336253032
49336258525
49336263103
49336272624
49336281779
49336289836
49336297526
49336303874
49336310161
49336316997
49336325297
49336330913
49336335673
49336348735
49336355937
49336365275
49336371989
49336380168
49336389079
49336397441
49336405741
49336413493
49336420329
49336428080
49336436137
49336443461
49336450236
49336456034
49336462321
49336470072
49336477885
49336480021
49336491496
49336499003
49336504923
49336512492
49336519450
49336525309
49336531779
49336538187
49336546183
49336550455
49336564310
49336572123
49336577982
49336585917
49336594889
49336600504
49336609537
49336615336
49336624613
49336631754
49336638468
49336646219
49336654764
49336659708
49336668253
49336673014
49336680948
49336688883
49336695841
49336702372
49336712015
49336718485
49336725260
49336730692
49336739725
49336747965
49336754190
49336761026
49336766397
49336775186
49336782266
49336788980
49336795633
49336804056
49336811563
49336817850
49336824503
49336831277
49336838296
49336846170
49336855447
49336861490
49336870279
49336876565
49336883279
49336891092
49336896463
49336901040
49336913492
49336921731
49336929422
49336935281
49336939615
49336951028
49336957864
49336965066
49336970742
49336979104
49336986367
49336993692
49337001260
49337009378
49337011636
49337023049
49337029946
49337035073
49337043191
49337049966
49337059915
49337065225
49337075295
49337082192
49337087197
49337095620
49337100137
49337108010
49337115578
49337122903
49337134377
49337142556
49337148965
49337156106
49337163735
49337171731
49337177529
49337186013
49337192849
49337197365
49337206460
49337213723
49337222024
49337228859
49337234169
49337242287
49337249917
49337256325
49337263344
49337270974
49337280129
49337288247
49337294045
49337301979
49337307228
49337315346
49337323525
49337329079
49337337502
49337343178
49337351418
49337360451
49337366005
49337370644
49337381630
49337388466
49337395546
49337401222
49337408058
49337413918
49337424232
49337431252
49337439369
49337446327
49337452797
49337459572
49337468605
49337474281
49337481850
49337491310
49337496193
49337504616
49337512123
49337517616
49337526466
49337533973
49337539344
49337547401
49337554603
49337561500
49337568641
49337578407
49337585243
49337592262
49337597877
49337604957
49337613380
49337620277
49337625465
49337635169
49337643043
49337649696
49337656776
49337664832
49337672645
49337678382
49337686622
49337693275
49337700233
49337708839
49337714332
49337723060
49337727576
49337735267
49337742957
49337750404
49337757117
49337763587
49337771827
49337784339
49337792518
49337798255
49337807349
49337813758
49337820594
49337826148
49337834693
49337839270
49337847144
49337855628
49337863684
49337871619
49337878943
49337885352
49337892188
49337900672
49337906409
49337915320
49337922766
49337927649
49337938391
49337945532
49337949988
49337958777
49337963355
49337970923
49337978430
49337980628
49337993567
49338002356
49338008948
49338015479
49338020422
49338028723
49338033057
49338040015
49338047766
49338054724
49338063635
49338070105
49338076147
49338082129
49338089392
49338094336
49338098120
49338107763
49338113989
49338118261
49338127661
49338134253
49338142859
49338146826
49338153784
49338160742
49338166113
49338173803
49338180761
49338187841
49338194494
49338202551
49338209753
49338216711
49338221533
49338229101
49338233618
49338240576
49338246984
49338255224
49338262914
49338269384
49338275243
49338281347
49338288061
49338293615
49338299474
49338305334
49338310583
49338321508
49338326696
49338334875
49338338903
49338345495
49338354345
49338359899
49338365880
49338371740
49338377904
49338388524
49338394933
49338402685
49338409093
49338414647
49338420690
49338426061
49338433324
49338439977
49338446508
49338452855
49338459874
49338469701
49338476842
49338483373
49338488439
49338497960
49338502843
49338512487
49338519383
49338528356
49338535802
49338541783
49338547887
49338553868
49338560521
49338567235
49338576329
49338583592
49338591710
49338597142
49338604832
49338611180
49338616124
49338625279
49338629552
49338639989
49338646641
49338654942
49338662511
49338668858
49338674962
49338681431
49338688511
49338690831
49338704320
49338713963
49338720372
49338725071
49338736363
49338740880
49338747593
49338755589
49338762547
49338771702
49338780491
49338785679
49338792942
49338799351
49338805638
49338811985
49338819371
49338826451
49338834934
49338843785
49338850437
49338860203
49338866734
49338873692
49338879917
49338887791
49338894321
49338905918
49338911228
49338919773
49338926487
49338933140
49338940647
49338945530
49338954990
49338958652
49338968540
49338975681
49338983982
49338988498
49338996677
49339004612
49339010959
49339017185
49339024021
49339031162
49339041599
49339048618
49339056430
49339063572
49339069797
49339076633
49339083957
49339089450
49339096897
49339102756
49339113986
49339121982
49339127414
49339131931
49339143955
49339148593
49339156894
49339164890
49339170505
49339176791
49339185642
49339194370
49339201877
49339208286
49339214328
49339221103
49339227695
49339235141
49339241611
49339250888
49339255710
49339264194
49339271274
49339276645
49339284823
49339289218
49339296786
49339303988
49339312594
49339321505
49339328280
49339334140
49339340060
49339346103
49339352755
49339356723
49339366183
49339371981
49339376071
49339385226
49339392550
49339401400
49339408175
49339412753
49339419711
49339425753
49339433871
49339437838
49339444369
49339455233
49339463961
49339471652
49339477511
49339482943
49339489047
49339495028
49339501742
49339507906
49339516634
49339520846
49339530428
49339537142
49339542147
49339549654
49339553744
49339560152
49339566805
49339572603
49339583101
49339587557
49339598116
49339602083
49339610079
49339616854
49339621431
49339629244
49339635164
49339639132
49339647982
49339657564
49339662874
49339666780
49339676485
49339682344
49339688753
49339695589
49339700167
49339709688
49339715731
49339725374
49339732149
49339737825
49339744661
49339748934
49339756746
49339762666
49339767671
49339776582
49339785432
49339791292
49339797639
49339803804
49339810701
49339815706
49339823213
49339829256
49339836336
49339845613
49339854280
49339859529
49339867341
49339872835
49339878755
49339885103
49339889863
49339897798
49339900911
49339913667
49339920259
49339927583
49339933564
49339941072
49339946992
49339952546
49339959260
49339964326
49339972932
49339979036
49339986299
49339993501
49340000642
49340005708
49340012849
49340017610
49340024873
49340030793
49340040803
49340048554
49340054353
49340060395
49340066926
49340073640
49340079621
49340085420
49340091279
49340096040
49340104829
49340111787
49340117768
49340123505
49340130646
49340135712
49340143769
49340152253
49340156586
49340163483
49340173127
49340179474
49340186493
49340194001
49340201569
49340207245
49340213227
49340219147
49340225190
49340234406
49340242402
49340248261
49340253571
49340261261
49340267304
49340274079
49340278900
49340282929
49340290436
49340297394
49340307831
49340314972
49340323212
49340330780
49340338165
49340345856
49340351837
49340362091
49340366119
49340376251
49340383087
49340390900
49340397064
49340402924
49340409943
49340415863
49340424286
49340431244
49340440643
49340444855
49340452484
49340460052
49340467499
49340474518
49340480682
49340493438
49340498993
49340507477
49340512115
49340520721
49340527984
49340532928
49340541107
49340548248
49340555511
49340562042
49340570343
49340578765
49340580963
49340592315
49340596893
49340605377
49340613067
49340618743
49340627715
49340636077
49340642730
49340649444
49340655303
49340663909
49340668243
49340676299
49340684356
49340692840
49340701141
49340708770
49340715362
49340722381
49340728789
49340736541
49340743133
49340751617
49340758452
49340764861
49340773345
49340782317
49340787993
49340795073
49340803924
49340810943
49340815459
49340824309
49340832488
49340838103
49340845916
49340853545
49340861541
49340868376
49340875090
49340881621
49340889189
49340895171
49340902007
49340910918
49340917388
49340925505
49340931487
49340939971
49340946745
49340953520
49340960722
49340966521
49340975676
49340983366
49340990263
49340996245
49341003935
49341010222
49341019011
49341023772
49341030730
49341040739
49341048369
49341056242
49341063322
49341070341
49341076994
49341084746
49341092619
49341097624
49341106352
49341113005
49341120390
49341130034
49341135344
49341145353
49341149748
49341160795
49341167814
49341174284
49341182218
49341188993
49341196073
49341203459
49341209928
49341218046
49341224455
49341233549
49341241178
49341246427
49341254362
49341260282
49341271024
49341278532
49341283964
49341291715
49341299223
49341307279
49341313932
49341319913
49341326566
49341333036
49341343717
49341350248
49341357084
49341364042
49341372037
49341379667
49341386747
49341393216
49341399564
49341406095
49341415372
49341423612
49341429166
49341433194
49341443021
49341448941
49341454190
49341461637
49341468717
49341477628
49341483914
49341490750
49341498746
49341505582
49341512418
49341520535
49341529447
49341535855
49341545011
49341550626
49341559171
49341565884
49341572110
49341578214
49341585049
49341593411
49341599820
49341605984
49341615445
49341622098
49341627957
49341633939
49341641080
49341647977
49341654629
49341660367
49341666409
49341673489
49341680386
49341689297
49341695645
49341701626
49341707242
49341713467
49341719937
49341726895
49341733792
49341741177
49341748379
49341755642
49341765957
49341772549
49341780056
49341786709
49341794827
49341801480
49341808560
49341815823
49341823452
49341831143
49341839138
49341845608
49341851956
49341858791
49341867886
49341870449
49341885281
49341891262
49341899441
49341903408
49341910305
49341917324
49341924526
49341930447
49341936367
49341944301
49341953029
49341960598
49341967983
49341973171
49341977871
49341985073
49341991054
49341998623
49342002590
49342010463
49342019130
49342029079
49342034389
49342040798
49342048305
49342054653
49342059719
49342066616
49342072719
49342084621
49342090908
49342097011
49342103054
49342110683
49342117641
49342123012
49342128444
49342134426
49342141322
49342151210
49342157619
49342163539
49342167506
49342175075
49342182521
49342189113
49342195888
49342198268
49342211513
49342217433
49342224452
49342232143
49342234279
49342245021
49342251735
49342256434
49342263331
49342269252
49342277308
49342285914
49342292140
49342298304
49342305751
49342310817
49342317408
49342323024
49342329493
49342337062
49342344752
49342351283
49342359462
49342364039
49342370631
49342377528
49342383998
49342391688
49342395777
49342401942
49342411769
49342418421
49342426112
49342433192
49342438807
49342444972
49342450282
49342457667
49342463099
49342471339
49342479700
49342485560
49342492030
49342498804
49342505885
49342510950
49342518824
49342525050
49342528895
49342538782
49342547816
49342553370
49342560145
49342565088
49342571985
49342579249
49342584620
49342592615
49342599695
49342606653
49342613550
49342621363
49342627588
49342633326
49342639673
49342646509
49342653528
49342659815
49342671961
49342678308
49342684351
49342692163
49342699610
49342707910
49342715296
49342722681
49342728906
49342737879
49342742395
49342752466
49342756494
49342766687
49342772668
49342776575
49342784265
49342788171
49342797388
49342805566
49342813501
49342821985
49342827173
49342834680
49342838647
49342845178
49342851953
49342859582
49342867578
49342874963
49342882837
49342889123
49342894250
49342901391
49342907434
49342913293
49342919580
49342925561
49342934900
49342942895
49342948938
49342953210
49342963220
49342969262
49342973779
49342981347
49342985437
49342993127
49343003015
49343009423
49343017236
49343023583
49343029260
49343035607
49343042687
49343047631
