49266776037
49266782079
49266787817
49266793615
49266798559
49266804296
49266810155
49266815771
49266820348
49266826330
49266832250
49266836462
49266842626
49266847204
49266854040
49266859838
49266864843
49266871862
49266876195
49266883275
49266889867
49266896459
49266901830
49266908422
49266915563
49266922033
49266927831
49266935216
49266941137
49266949010
49266955602
49266962377
49266968236
49266975988
49266982396
49266990209
49266996862
49267002416
49267008031
49267016881
49267023168
49267030004
49267037694
49267043981
49267049596
49267055943
49267062840
49267070470
49267079259
49267086400
49267093419
49267099767
49267106480
49267112340
49267121068
49267128697
49267136143
49267142491
49267149815
49267156102
49267161778
49267172154
49267179967
49267187047
49267193272
49267199009
49267207066
49267213292
49267221226
49267228062
49267234654
49267241551
49267248936
49267255284
49267262059
49267269017
49267274937
49267283116
49267289402
49267295872
49267302647
49267309422
49267317600
49267323826
49267331761
49267339329
49267345799
49267352879
49267359837
49267367100
49267373814
49267380955
49267386753
49267393223
49267400486
49267407932
49267414463
49267421055
49267430576
49267436252
49267442844
49267450840
49267456516
49267464878
49267469089
49267479954
49267487217
49267492893
49267500705
49267506260
49267514682
49267523655
49267530918
49267537387
49267543979
49267551120
49267558261
49267564365
49267573459
49267580722
49267589389
49267594943
49267603427
49267609348
49267619357
49267627475
49267635166
49267644321
49267651462
49267659091
49267664584
49267673801
49267680820
49267689426
49267695834
49267705051
49267712985
49267721103
49267727450
49267735812
49267744662
49267751193
49267760165
49267766818
49267776095
49267783297
49267790561
49267798983
49267807467
49267815341
49267822787
49267829989
49267835788
49267844577
49267851413
49267861666
49267868624
49267875827
49267884188
49267891757
49267898409
49267907076
49267914584
49267922396
49267929354
49267939242
49267947299
49267955233
49267961764
49267970187
49267978548
49267988436
49267995150
49268003573
49268011019
49268017367
49268027621
49268037630
49268046175
49268055697
49268064791
49268073885
49268082735
49268092989
49268100313
49268110140
49268117281
49268126741
49268134127
49268143221
49268150301
49268158602
49268169527
49268176363
49268185457
49268191988
49268198824
49268208284
49268213655
49268224703
49268231111
49268242952
49268251070
49268259432
49268267732
49268274080
49268283113
49268290071
49268300508
49268306856
49268315950
49268322175
49268330842
49268339143
49268347383
49268356050
49268365693
49268374299
49268382783
49268388765
49268399324
49268409517
49268416047
49268424958
49268434968
49268442964
49268450227
49268460237
49268465303
49268476289
49268485139
49268493623
49268502290
49268508454
49268517976
49268524262
49268533112
49268542085
49268553010
49268558564
49268569672
49268579499
49268588166
49268597626
49268604645
49268614777
49268621735
49268630402
49268636750
49268646332
49268653412
49268664033
49268671113
49268682343
49268689972
49268697907
49268706696
49268714142
49268721528
49268729828
49268739350
49268747101
49268754914
49268761505
49268768402
49268775543
49268783478
49268791962
49268798248
49268805206
49268810944
49268818573
49268826447
49268833099
49268842438
49268849518
49268857330
49268865265
49268872772
49268880280
49268887604
49268897980
49268904877
49268910187
49268922577
49268929718
49268935333
49268945099
49268952789
49268960785
49268969330
49268975677
49268985260
49268989837
49268999237
49269007110
49269014312
49269023407
49269032257
49269040191
49269046722
49269055389
49269063140
49269071502
49269078399
49269086822
49269096343
49269104400
49269112518
49269118926
49269127960
49269137176
49269144317
49269149505
49269156707
49269160064
49269167876
49269174163
49269179839
49269185577
49269190887
49269195953
49269201263
49269206267
49269212005
49269218291
49269224273
49269229522
49269233977
49269239287
49269244964
49269250030
49269257537
49269262908
49269268584
49269275420
49269281096
49269285064
49269291106
49269297027
49269303069
49269307708
49269313262
49269319121
49269323821
49269329558
49269334990
49269341216
49269348845
49269352080
49269359770
49269365630
49269371184
49269376616
49269382109
49269387908
49269393950
49269399016
49269404387
49269409026
49269414885
49269420378
49269426665
49269431975
49269436919
49269441985
49269447478
49269452727
49269458159
49269462431
49269468291
49269472807
49269478300
49269482634
49269488982
49269493803
49269499235
49269505888
49269510100
49269516020
49269521391
49269526518
49269530241
49269536162
49269541655
49269546416
49269550810
49269557097
49269562895
49269567717
49269572661
49269577788
49269584379
49269588652
49269593962
49269598173
49269604033
49269608305
49269614714
49269620207
49269625395
49269630400
49269635405
49269641447
49269646330
49269651091
49269656156
49269663114
49269667509
49269672392
49269677702
49269683317
49269687589
49269692655
49269698026
49269704496
49269710417
49269715360
49269719816
49269725980
49269730924
49269736906
49269742277
49269746366
49269751920
49269755949
49269762296
49269766386
49269771452
49269778959
49269784208
49269788908
49269793729
49269798917
49269803861
49269808927
49269814908
49269819791
49269825040
49269829496
49269834928
49269839689
49269845121
49269849943
49269855436
49269862150
49269865201
49269871793
49269876554
49269882596
49269886075
49269893338
49269898893
49269904813
49269909391
49269914823
49269919645
49269923795
49269929715
49269934110
49269940641
49269945584
49269951200
49269956082
49269961087
49269966275
49269971524
49269977994
49269983548
49269988065
49269993497
49269998197
49270003751
49270009122
49270013699
49270020047
49270025418
49270030545
49270035611
49270040616
49270043607
49270050687
49270056912
49270062711
49270067349
49270072720
49270077420
49270082669
49270088284
49270093045
49270099148
49270104031
49270109524
49270112393
49270119900
49270124905
49270130215
49270136990
49270140957
49270146023
49270151455
49270156521
49270161770
49270166653
49270173489
49270178677
49270181729
49270190640
49270196316
49270202176
49270207486
49270212063
49270218960
49270224575
49270229519
49270234219
49270239102
49270244961
49270249234
49270256497
49270261013
49270266690
49270270779
49270276211
49270280361
49270286831
49270294033
49270298367
49270304592
49270309597
49270314419
49270319424
49270324612
49270330898
49270336697
49270341030
49270347439
49270350430
49270356838
49270361782
49270368557
49270374294
49270379971
49270385036
49270389370
49270395595
49270400295
49270405849
49270411709
49270417202
49270422573
49270427578
49270433437
49270438686
49270443752
49270448269
49270454555
49270457790
49270464321
49270470424
49270475307
49270480800
49270486232
49270492397
49270498134
49270503200
49270507228
49270512111
49270517543
49270522548
49270529872
49270535366
49270541164
49270546230
49270550685
49270555568
49270561306
49270565212
49270572048
49270576442
49270582302
49270586391
49270592677
49270597133
49270609767
49270622585
49270627895
49270636562
49270642238
49270647792
49270654079
49270659084
49270665431
49270671291
49270677211
49270683192
49270688808
49270694362
49270699184
49270704616
49270710292
49270715419
49270720546
49270724635
49270730922
49270736659
49270742396
49270748073
49270753200
49270758143
49270762233
49270768336
49270774501
49270779628
49270785060
49270790065
49270796351
49270800258
49270806117
49270812526
49270817714
49270822169
49270827052
49270833155
49270837001
49270842982
49270849391
49270854457
49270858973
49270863734
49270868983
49270874842
49270880458
49270885279
49270891932
49270897669
49270902674
49270907801
49270911402
49270919459
49270924403
49270929530
49270935450
49270940455
49270945704
49270951319
49270957667
49270963587
49270968958
49270974512
49270979578
49270984705
49270990443
49270995264
49271001856
49271006983
49271011622
49271018885
49271023829
49271028895
49271036158
49271041163
49271047449
49271052393
49271057581
49271062525
49271067713
49271074122
49271079859
49271084253
49271089991
49271095240
49271100000
49271105188
49271111414
49271116663
49271122583
49271127344
49271131983
49271137415
49271142420
49271148462
49271153833
49271158777
49271162805
49271169275
49271175012
49271179224
49271185449
49271190698
49271197046
49271201929
49271206629
49271212244
49271217737
49271223474
49271228052
49271233911
49271238428
49271243189
49271248193
49271255029
49271260522
49271264734
49271269983
49271275049
49271281091
49271286768
49271291894
49271298120
49271303125
49271309412
49271313318
49271319726
49271323816
49271330713
49271337671
49271342248
49271348413
49271352319
49271359460
49271365869
49271371118
49271376672
49271382776
49271388147
49271393274
49271398706
49271405297
49271410730
49271417382
49271422143
49271428186
49271433801
49271439355
49271444604
49271449975
49271455468
49271461145
49271466455
49271471398
49271477136
49271483361
49271489221
49271493493
49271499413
49271505151
49271510095
49271515771
49271521020
49271526818
49271529687
49271537743
49271542382
49271547631
49271553246
49271558129
49271564294
49271570031
49271575768
49271580468
49271586694
49271590905
49271598046
49271603051
49271608666
49271612694
49271618798
49271622887
49271628747
49271636193
49271641198
49271645836
49271651330
49271656701
49271660668
49271666710
49271672570
49271678307
49271684044
49271689049
49271693871
49271699852
49271704430
49271711022
49271716271
49271720909
49271725914
49271731102
49271736046
49271741539
49271748192
49271753441
49271759850
49271764977
49271769432
49271774864
49271779930
49271786156
49271790978
49271796349
49271801964
49271806786
49271813866
49271819054
49271825646
49271829552
49271836510
49271841087
49271846275
49271852074
49271857140
49271862572
49271867699
49271874168
49271879295
49271883995
49271888939
49271894615
49271899925
49271905846
49271911827
49271916466
49271921959
49271927391
49271932457
49271938621
49271944053
49271949486
49271954246
49271959434
49271964866
49271970237
49271974876
49271979210
49271985862
49271989036
49271995689
49272001060
49272006492
49272012535
49272017601
49272023582
49272028038
49272033165
49272039573
49272043357
49272050010
49272054771
49272060996
49272066612
49272071739
49272077537
49272082054
49272088523
49272094627
49272099326
49272105613
49272110862
49272115623
49272122337
49272127586
49272132713
49272138206
49272143577
49272149986
49272155357
49272161338
49272166404
49272171592
49272175681
49272182700
49272187339
49272192710
49272199180
49272204246
49272210288
49272215232
49272219871
49272224753
49272230308
49272236777
49272241721
49272247825
49272252341
49272257224
49272263266
49272268332
49272274863
49272279075
49272283957
49272289634
49272294700
49272300620
49272305747
49272311606
49272315390
49272321006
49272326377
49272331870
49272336508
49272341635
49272347983
49272354026
49272359702
49272363669
49272369528
49272374472
49272379782
49272385336
49272391013
49272395773
49272400168
49272406271
49272412070
49272416403
49272424094
49272428061
49272434531
49272439352
49272444724
49272449423
49272455038
49272460715
49272465720
49272471457
49272476767
49272481711
49272487692
49272493979
49272499289
49272505087
49272509848
49272514792
49272519858
49272525778
49272531454
49272537008
49272541891
49272546713
49272551718
49272556540
49272562338
49272566916
49272573263
49272578390
49272583029
49272587912
49272593100
49272599142
49272604513
49272611593
49272617941
49272623190
49272628561
49272634848
49272640341
49272646566
49272651388
49272657614
49272661825
49272668173
49272672750
49272678243
49272685079
49272689169
49272694906
49272700948
49272705953
49272711263
49272716268
49272722677
49272726644
49272732870
49272738790
49272743795
49272749288
49272753988
49272759420
49272765523
49272770223
49272776144
49272781271
49272786825
49272792013
49272796712
49272803548
49272807455
49272813131
49272817830
49272823507
49272830587
49272836568
49272841817
49272847921
49272853963
49272859639
49272865621
49272871846
49272875997
49272881002
49272885701
49272892476
49272897298
49272902974
49272908529
49272913594
49272919820
49272923787
49272929708
49272934896
49272940755
49272947286
49272953328
49272957601
49272962667
49272968221
49272973653
49272978902
49272984700
49272988790
49272994893
49273000997
49273005940
49273011495
49273016377
49273024861
49273028767
49273034871
49273039571
49273044942
49273048970
49273055684
49273061238
49273067097
49273072041
49273077168
49273083028
49273087300
49273093281
49273098958
49273104146
49273110188
49273115315
49273120442
49273124776
49273131184
49273136372
49273141438
49273147297
49273151204
49273157307
49273161030
49273167195
49273173726
49273178669
49273184102
49273189595
49273194722
49273198750
49273204792
49273211811
49273216938
49273221943
49273226887
49273231770
49273236775
49273241596
49273247700
49273253742
49273258503
49273264302
49273269856
49273273945
49273279255
49273286762
49273292439
49273298115
49273303303
49273307881
49273312214
49273317951
49273325520
49273329792
49273335590
49273340656
49273345722
49273350910
49273356098
49273363544
49273369099
49273373432
49273378132
49273383808
49273388019
49273393757
49273399982
49273405048
49273410358
49273415729
49273420978
49273425312
49273430561
49273435200
49273441669
49273447712
49273451801
49273457966
49273461811
49273468097
49273474262
49273479999
49273484882
49273489582
49273494159
49273499103
49273504657
49273511066
49273516742
49273521869
49273527423
49273532489
49273536396
49273543048
49273549579
49273554584
49273559711
49273565082
49273570209
49273575946
49273580951
49273586566
49273591632
49273596088
49273600971
49273606647
49273611957
49273617389
49273623920
49273629596
49273634174
49273638934
49273644672
49273648883
49273655109
49273660724
49273665363
49273670489
49273676654
49273681903
49273685565
49273692340
49273696979
49273703509
49273708575
49273713275
49273720233
49273724811
49273730487
49273736224
49273741290
49273747210
49273753009
49273757708
49273763019
49273768573
49273773272
49273779559
49273784747
49273790606
49273796649
49273801348
49273806170
49273813006
49273817950
49273822894
49273827960
49273833453
49273839068
49273844134
49273850299
49273855731
49273859881
49273865740
49273869708
49273875323
49273882281
49273886187
49273892779
49273897906
49273902972
49273907244
49273912615
49273916949
49273923968
49273928423
49273933733
49273940142
49273944292
49273949358
49273957171
49273962481
49273968096
49273971636
49273978228
49273981890
49273987566
49273994036
49273998919
49274003863
49274009478
49274014971
49274018816
49274024798
49274032610
49274038103
49274042986
49274048113
49274052385
49274058245
49274062822
49274070147
49274075518
49274080156
49274085222
49274089678
49274095110
49274101030
49274107317
49274113054
49274117876
49274123064
49274128374
49274132463
49274138445
49274145769
49274150835
49274155718
49274160723
49274166216
49274171343
49274176470
49274180803
49274187700
49274193132
49274197893
49274203020
49274208879
49274214189
49274221574
49274226762
49274232256
49274236101
49274241655
49274246355
49274251176
49274257707
49274262895
49274267046
49274271684
49274276689
49274281633
49274288225
49274293901
49274298662
49274304277
49274309343
49274314653
49274318803
49274324724
49274331437
49274336076
49274342790
49274346818
49274352372
49274358110
49274363542
49274369340
49274374711
49274379899
49274385576
49274390886
49274396135
49274401689
49274407975
49274413530
49274419389
49274424455
49274429582
49274434465
49274440629
49274446305
49274451676
49274456437
49274462174
49274467301
49274473466
49274480180
49274486405
49274491227
49274497025
49274502824
49274508134
49274513139
49274518876
49274524186
49274528947
49274533463
49274539628
49274543290
49274550736
49274556840
49274562272
49274567277
49274571854
49274578324
49274582963
49274588151
49274594742
49274598588
49274604874
49274610489
49274614701
49274619523
49274624161
49274628678
49274635392
49274640702
49274645890
49274650834
49274656144
49274660660
49274666886
49274671524
49274678177
49274683182
49274687638
49274693375
49274698319
49274703385
49274710099
49274714554
49274719254
49274724869
49274729935
49274735794
49274742203
49274748245
49274752762
49274757950
49274766068
49274772476
49274779068
49274784256
49274789566
49274794876
49274798905
49274805924
49274812027
49274816055
49274822220
49274827835
49274833267
49274839188
49274844498
49274849564
49274855057
49274861404
49274865066
49274871719
49274877518
49274882767
49274888809
49274895279
49274902054
49274906936
49274911331
49274917801
49274923355
49274928360
49274933975
49274939041
49274945633
49274950454
49274955154
49274962417
49274967727
49274973526
49274978714
49274983963
49274989639
49274995437
49275000442
49275006668
49275012344
49275016983
49275021865
49275027725
49275032424
49275038101
49275044754
49275049392
49275055068
49275060073
49275065994
49275070571
49275075637
49275082473
49275086318
49275092178
49275097793
49275102493
49275108108
49275112380
49275118545
49275123611
49275128616
49275134170
49275139541
49275143508
49275150283
49275156387
49275161697
49275167251
49275172195
49275177199
49275182937
49275187148
49275192641
49275197829
49275202834
49275207473
49275212478
49275217666
49275222793
49275228469
49275234633
49275240188
49275245986
49275250869
49275255813
49275261001
49275265212
49275271621
49275276503
49275282790
49275287734
49275292922
49275298171
49275302871
49275308608
49275314589
49275319838
49275325392
49275329421
49275336440
49275341628
49275347182
49275352553
49275358107
49275363478
49275367018
49275372695
49275378981
49275382948
49275388686
49275392897
49275399428
49275404006
49275410353
49275417128
49275421706
49275428420
49275433058
49275437819
49275444044
49275448561
49275455214
49275460158
49275465651
49275471327
49275475905
49275482252
49275486220
49275493788
49275497816
49275503920
49275508986
49275514906
49275519484
49275525404
49275531019
49275535353
49275541273
49275545546
49275551405
49275557386
49275563551
49275568739
49275573317
49275578871
49275582960
49275589369
49275594374
49275600294
49275605421
49275611219
49275616468
49275620924
49275626844
49275629774
49275636305
49275642103
49275647535
49275652540
49275656812
49275662855
49275667372
49275673231
49275680555
49275685682
49275691847
49275696363
49275702467
49275707472
49275712782
49275718885
49275723402
49275729444
49275734388
49275739088
49275745985
49275750379
49275755628
49275760267
49275767164
49275772535
49275777601
49275783460
49275788099
49275795179
49275800062
49275805616
49275812086
49275815259
49275823133
49275829847
49275834913
49275840894
49275846387
49275851453
49275857373
49275862012
49275868177
49275874036
49275878736
49275885022
49275890515
49275894971
49275900037
49275906751
49275912549
49275917554
49275922925
49275926526
49275932569
49275937573
49275944837
49275949780
49275954907
49275960645
49275964795
49275971387
49275977368
49275983106
49275988599
49275992688
49275997937
49276004712
49276009839
49276016126
49276021252
49276026868
49276030713
49276036328
49276042554
49276048291
49276052930
49276059033
49276064770
49276068677
49276074841
49276080456
49276086072
49276092663
49276096326
49276103039
49276109387
49276113171
49276119153
49276124280
49276129284
49276135449
49276141003
49276146374
49276151989
49276157055
49276163098
49276168164
49276174084
49276179821
49276184582
49276191052
49276197461
49276203015
49276208447
49276213635
49276219433
49276224987
49276230664
49276236523
49276241406
49276247448
49276252880
49276259167
49276263745
49276269665
49276276501
49276282116
49276286938
49276291638
49276297009
49276302319
49276307873
49276314831
49276319286
49276324535
49276329235
49276335094
49276340160
49276345226
49276350353
49276357067
49276362072
49276367626
49276373241
49276379406
49276385082
49276390758
49276395702
49276400402
49276407055
49276411693
49276416515
49276421947
49276427623
49276433788
49276438915
49276444286
49276448986
49276454601
49276458507
49276464183
49276468456
49276475414
49276481090
49276486339
49276492260
49276498058
49276502819
49276508434
49276513500
49276519603
49276524730
49276530345
49276536083
49276541759
49276547313
49276552379
49276557689
49276562877
49276568248
49276573802
49276578929
49276584300
49276588939
49276594493
49276600292
49276607005
49276611827
49276616466
49276623424
49276628551
49276633128
49276638438
49276644725
49276649791
49276656139
49276661265
49276666698
49276670970
49276677318
49276683238
49276689342
49276695262
49276699229
49276705333
49276711253
49276717235
49276722789
49276728587
49276733897
49276739146
49276744029
49276749766
49276755381
49276759776
49276765330
49276771190
49276776011
49276781138
49276787303
49276791514
49276797679
49276801646
49276808177
49276813426
49276818125
49276824412
49276829844
49276835642
49276840159
49276846079
49276851695
49276856333
49276862193
49276868174
49276873972
49276879221
49276884593
49276889719
49276894663
49276899363
49276905405
49276910105
49276916758
49276920786
49276927195
49276931895
49276939585
49276944651
49276950388
49276955881
49276962595
49276967417
49276971812
49276977305
49276983042
49276988535
49276993601
49276998728
49277004282
49277009897
49277016855
49277021677
49277026743
49277032541
49277038950
49277044077
49277049692
49277055735
49277060312
49277065989
49277071116
49277075937
49277080515
49277088266
49277093637
49277099008
49277103952
49277108042
49277113779
49277119699
49277125742
49277130808
49277136423
49277142404
49277147592
49277152353
49277157846
49277163278
49277169260
49277173776
49277180734
49277185190
49277189890
49277195993
49277200937
49277207285
49277211984
49277217111
49277222849
49277229135
49277233652
49277239511
49277245676
49277250864
49277255991
49277261606
49277266550
49277272348
49277277658
49277283517
49277288949
49277293405
49277299753
49277303049
49277310739
49277316537
49277320993
49277326547
49277331674
49277335885
49277341745
49277346994
49277353341
49277358834
49277364145
49277369333
49277374948
49277378732
49277384896
49277390878
49277396127
49277401071
49277406320
49277412057
49277416207
49277421578
49277429635
49277434091
49277439889
49277444406
49277450021
49277454049
49277459847
49277467233
49277471444
49277477120
49277482125
49277487313
49277491341
49277497384
49277504708
49277508675
49277515267
49277521249
49277526864
49277532967
49277538094
49277543343
49277549020
49277554513
49277560189
49277565621
49277571358
49277576058
49277583016
49277588387
49277593514
49277598580
49277604500
49277609261
49277614998
49277619759
49277626534
49277631234
49277636422
49277641976
49277648629
49277652901
49277658944
49277663765
49277666939
49277674263
49277680977
49277684334
49277691353
49277696053
49277700875
49277706612
49277711922
49277717171
49277722298
49277728462
49277734200
49277739327
49277745308
49277749947
49277755623
49277761116
49277766915
49277772164
49277776741
49277782784
49277788094
49277793770
49277800240
49277804817
49277810249
49277815498
49277821297
49277827583
49277831428
49277837654
49277842232
49277848274
49277854561
49277859749
49277865120
49277869697
49277877510
49277882576
49277888313
49277893379
49277897651
49277903206
49277909248
49277913948
49277920540
49277924568
49277930977
49277937324
49277941475
49277947090
49277952888
49277958137
49277963691
49277968391
49277974861
49277980171
49277985664
49277990486
49277995124
49278000984
49278005073
49278011116
49278016304
49278023872
49278028938
49278034675
49278039985
49278043891
49278049629
49278056342
49278061836
49278066474
49278071235
49278077216
49278082282
49278087104
49278092231
49278098884
49278104621
49278109565
49278114570
49278119331
49278125068
49278132087
49278137214
49278142585
49278147407
49278154243
49278158332
49278164802
49278169746
49278174384
49278181953
49278185615
49278192023
49278198310
49278202338
49278210456
49278213508
49278219977
49278224555
49278230231
49278236457
49278242560
49278247931
49278253119
49278258124
49278263678
49278268805
49278274237
49278278998
49278285346
49278290778
49278295600
49278301764
49278305793
49278311774
49278317816
49278323126
49278328742
49278334845
49278339423
49278345404
49278350531
49278355658
49278360785
49278366889
49278371893
49278377081
49278382697
49278388007
49278394293
49278400031
49278404852
49278410773
49278414374
49278421271
49278427985
49278434088
49278441534
49278447821
49278453680
49278459173
49278464606
49278470953
49278477118
49278482184
49278488531
49278493597
49278499396
49278504767
49278511175
49278515509
49278521185
49278525702
49278532599
49278536017
49278543158
49278549078
49278554510
49278559515
49278563726
49278570501
49278575201
49278581243
49278588446
49278592474
49278598577
49278604010
49278609503
49278614508
49278619696
49278626776
49278630804
49278636358
49278642095
49278646734
49278651678
49278657110
49278663152
49278668279
49278674078
49278679144
49278685674
49278690618
49278695989
49278702215
49278707586
49278712347
49278717596
49278722356
49278728460
49278733038
49278740240
49278745061
49278750616
49278756902
49278759832
49278767339
49278772771
49278778325
49278784734
49278787664
49278794744
49278799627
49278804876
49278810918
49278816472
49278822332
49278826909
49278832647
49278838567
49278842962
49278849126
49278853704
49278859807
49278865239
49278870732
49278876714
49278882634
49278887517
49278893987
49278898015
49278903874
49278908879
49278914067
49278920354
49278925969
49278931584
49278936345
49278943059
49278948247
49278952275
49278959660
49278962529
49278968755
49278973454
49278979009
49278983647
49278990422
49278996159
49279001225
49279007207
49279012273
49279017400
49279023076
49279028447
49279033635
49279037785
49279044743
49279050420
49279054509
49279060429
49279066655
49279073613
49279078435
49279083134
49279088933
49279094487
49279099797
49279106083
49279109196
49279115361
49279121281
49279126469
49279132695
49279136601
49279142277
49279146306
49279152958
49279159123
49279163212
49279169438
49279174198
49279181095
49279186772
49279191471
49279197575
49279201603
49279208256
49279213444
49279218022
49279224919
49279229069
49279236149
49279239140
49279247013
49279253239
49279259220
49279265507
49279271305
49279276432
49279282108
49279286808
49279293339
49279299137
49279304325
49279309208
49279313236
49279320682
49279326786
49279331852
49279338077
49279342167
49279347355
49279351200
49279357609
49279364017
49279367985
49279374393
49279378483
49279385380
49279390995
49279396488
49279402408
49279406559
49279414005
49279418949
49279424259
49279428775
49279434086
49279438907
49279443058
49279450199
49279455265
49279460575
49279464908
49279471378
49279476261
49279481388
49279486637
49279492496
49279496463
49279502628
49279509464
49279514408
49279518863
49279523929
49279528629
49279533756
49279538516
49279545169
49279550052
49279554752
49279559757
49279565250
49279570255
49279575504
49279580692
49279586246
49279591739
49279596805
49279601932
49279607059
49279612613
49279618655
49279623599
49279628726
49279634647
49279639346
49279643069
49279648624
49279655398
49279660342
49279666019
49279671573
49279676761
49279682315
49279688235
49279693423
49279697696
49279703433
49279708377
49279714236
49279718936
49279723941
49279730655
49279734561
49279740847
49279745364
49279751468
49279756472
49279761966
49279767337
49279771243
49279777224
49279781497
49279787539
49279792056
49279797488
49279803591
49279808962
49279814089
49279820193
49279825625
49279830874
49279836733
49279841677
49279847842
49279852175
49279858401
49279863589
49279869875
49279875185
49279880373
49279887026
49279891787
49279898318
49279903933
49279908633
49279914492
49279920412
49279926394
49279932314
49279936526
49279942202
49279947512
49279952822
49279958742
49279964297
49279969362
49279975161
49279978762
49279985293
49279991884
49279997988
49280003298
49280007265
49280012636
49280017824
49280025210
49280031252
49280036684
49280042727
49280048159
49280053469
49280059511
49280065004
49280071352
49280076662
49280082277
49280086672
49280091921
49280096681
49280104494
49280110475
49280115846
49280121218
49280126894
49280131044
49280137392
49280143129
49280148927
49280154726
49280158693
49280164003
49280168581
49280174867
49280180177
49280185426
49280191347
49280196474
49280201540
49280207887
49280213319
49280217836
49280223268
49280229250
49280233888
49280239931
49280245058
49280250551
49280256654
49280261171
49280266969
49280272462
49280277284
49280282594
49280287904
49280293886
49280298280
49280306093
49280311281
49280316407
49280322450
49280328248
49280334352
49280338990
49280344178
49280350587
49280353456
49280360780
49280367372
49280371644
49280377565
49280381593
49280388246
49280393861
49280399415
49280405274
49280410218
49280414674
49280419068
49280424745
49280431519
49280435670
49280442811
49280447083
49280452821
49280457337
49280463075
49280468873
49280473084
49280479432
49280484498
49280491944
49280495911
49280503602
49280508363
49280514405
49280519532
49280523560
49280531434
49280536195
49280541321
49280546693
49280550965
49280557252
49280560181
49280568055
49280573792
49280577820
49280584229
49280590394
49280595093
49280600525
49280606263
49280611939
49280618470
49280622925
49280628540
49280633423
49280639893
49280645020
49280650330
49280655701
49280661194
49280666931
49280672181
49280677246
49280682068
49280687012
49280693238
49280697754
49280704529
49280710999
49280715882
49280722046
49280726135
49280732239
49280737793
49280742554
49280748291
49280753723
49280759094
49280762879
49280768616
49280775086
49280779968
49280785645
49280791321
49280796997
49280802124
49280807495
49280814087
49280819702
49280824707
49280829834
49280834534
49280840515
49280846496
49280850952
49280856750
49280861938
49280867187
49280873047
49280879150
49280883911
49280890259
49280896301
49280901611
49280907165
49280911255
49280917846
49280923584
49280928772
49280935180
49280939636
49280945800
49280951294
49280957458
49280962402
49280967102
49280973388
49280978820
49280984008
49280988952
49280995239
49280999877
49281005187
49281010803
49281016174
49281021850
49281027282
49281033019
49281037475
49281043517
49281048583
49281055602
49281060729
49281065307
49281071716
49281076843
49281082397
49281087524
49281092345
49281099181
49281104308
49281110412
49281115783
49281120483
49281127196
49281131225
49281138427
49281144652
49281150512
49281155822
49281161620
49281166686
49281172301
49281177428
49281183898
49281189940
49281195373
49281199889
49281205443
49281210997
49281218139
49281223204
49281229430
49281234252
49281240050
49281245787
49281251403
49281256530
49281262023
49281267455
49281272643
49281278502
49281283873
49281289977
49281295775
49281301268
49281307006
49281311705
49281317504
49281323668
49281328551
49281334410
49281339842
49281344298
49281350218
49281354979
49281360228
49281366026
49281371764
49281377501
49281381529
49281388976
49281393858
49281399718
49281404417
49281409117
49281416258
49281421934
49281426939
49281432982
49281439818
49281445128
49281450621
49281454893
49281461302
49281465819
49281473143
49281478148
49281483824
49281488402
49281494566
49281499327
49281504332
49281509581
49281515623
49281521055
49281526732
49281531675
49281536558
49281542784
49281548094
49281553709
49281559813
49281565000
49281571165
49281575132
49281580748
49281587644
49281591734
49281597715
49281602781
49281608335
49281613523
49281618955
49281625730
49281631101
49281637266
49281641294
49281647337
49281652464
49281658262
49281664365
49281669981
49281675962
49281680601
49281685239
49281691953
49281697630
49281702695
49281708494
49281713987
49281719175
49281724180
49281729185
49281734983
49281740476
49281745359
49281751035
49281756284
49281762510
49281767270
49281772825
49281779111
49281784238
49281790159
49281794187
49281800596
49281806699
49281810788
49281816892
49281822507
49281827634
49281831846
49281838559
49281843564
49281849118
49281855405
49281861203
49281865781
49281870359
49281876523
49281882138
49281886533
49281892453
49281898252
49281904233
49281907224
49281914853
49281919858
49281925290
49281931943
49281936704
49281941831
49281947324
49281952512
49281957822
49281963193
49281969846
49281974179
49281979245
49281983579
49281990048
49281995175
49282000729
49282006589
49282011655
49282017148
49282023007
49282028012
49282033322
49282037839
49282044125
49282049130
49282055173
49282059140
49282064755
49282070614
49282076840
49282081601
49282086850
49282092526
49282097348
49282102658
49282109066
49282115048
49282119992
49282123471
49282131283
49282136776
49282140805
49282146603
49282152706
49282157528
49282164059
49282169674
49282174252
49282180172
49282186642
49282191647
49282197445
49282203305
49282208676
49282213986
49282219601
49282225704
49282231136
49282234677
49282241940
49282247372
49282252987
49282257443
49282261959
49282269100
49282275021
49282279598
49282285397
49282290096
49282296627
49282303097
49282308102
49282313778
49282317867
49282324581
49282329830
49282335384
49282340999
49282346615
49282352474
49282358394
49282363338
49282369320
49282374874
49282380733
49282385250
49282390621
49282395687
49282401058
49282407589
49282412410
49282418331
49282424312
49282429500
49282435543
49282439937
49282446407
49282451717
49282457210
49282462764
49282466732
49282473262
49282478817
49282484004
49282489315
49282495113
49282500423
49282506282
49282512020
49282517269
49282522395
49282527156
49282533077
49282538143
49282543819
49282548152
49282554866
49282561946
49282565852
49282571773
49282577266
49282582698
49282588008
49282593135
49282597774
49282603145
49282609309
49282614497
49282619014
49282625056
49282630488
49282637202
49282640132
49282646907
49282652217
49282657161
49282662288
49282667171
49282673701
49282679194
49282684016
49282690852
49282695002
49282700313
49282706355
49282711787
49282718318
49282723201
49282729976
49282735225
49282740901
49282747065
49282751094
49282757991
49282763301
49282768489
49282774287
49282779353
49282786921
49282792720
49282797969
49282804255
49282808528
49282815486
49282819087
49282826106
49282832575
49282836482
49282844111
49282848689
49282854304
49282860285
49282865107
49282870356
49282876276
49282881342
49282886164
49282891108
49282897700
49282903132
49282907709
49282913752
49282918940
49282924250
49282930414
49282936030
49282942011
49282945124
49282951716
49282957087
49282962397
49282968073
49282973688
49282978327
49282983881
49282989008
49282994013
49282999689
49283005854
49283011774
49283015741
49283021540
49283026423
49283031061
49283036676
49283042597
49283047235
49283053278
49283057550
49283064142
49283069147
49283074335
49283080927
49283086542
49283092401
49283096674
49283102655
49283108576
49283114374
49283119867
49283125055
49283130670
49283134699
49283141168
49283146600
49283151666
49283158136
49283163202
49283169305
49283173883
49283178949
49283182123
49283188470
49283195123
49283199274
49283205316
49283209466
49283215875
49283220819
49283225763
49283234186
49283238397
49283244379
49283248346
49283254510
49283258844
49283264764
49283272638
49283278192
49283283868
49283287835
49283295221
49283298211
49283306695
49283312310
49283318536
49283323602
49283328607
49283333734
49283339593
49283344354
49283349969
49283354608
49283361505
49283366754
49283371881
49283377557
49283380853
49283388421
49283393792
49283399529
49283404534
49283408380
49283414605
49283421624
49283427361
49283432305
49283438348
49283445428
49283452142
49283459222
49283465936
49283470269
49283476861
49283482598
49283486199
49283492242
49283496819
49283503228
49283508965
49283514947
49283519768
49283524895
49283532403
49283539666
49283544427
49283550713
49283554680
49283560357
49283566094
49283571648
49283578240
49283581353
49283588555
49283593621
49283598992
49283605462
49283609856
49283616265
49283621575
49283626397
49283632744
49283638420
49283643853
49283649285
49283654656
49283661553
49283667229
49283672112
49283679192
49283682976
49283690300
49283696709
49283702141
49283707573
49283713921
49283719231
49283724907
49283730095
49283736138
49283740593
49283747673
49283752739
49283758415
49283764580
49283770195
49283774895
49283781059
49283785759
49283792046
49283797905
49283803398
49283809135
49283813591
49283820366
49283825981
49283831901
49283837578
49283843071
49283847771
49283854545
49283858635
49283864860
49283871147
49283875969
49283881218
49283886528
49283892265
49283898430
49283903557
49283909233
49283914604
49283920158
49283924247
49283930839
49283937065
49283941642
49283946647
49283951408
49283958732
49283963737
49283969474
49283974174
49283980461
49283985710
49283990714
49283995780
49284002006
49284006767
49284014579
49284019279
49284024528
49284031181
49284033988
49284040946
49284045463
49284051444
49284057914
49284061881
49284068229
49284073844
49284078788
49284084281
49284089164
49284096122
49284101310
49284106437
49284112174
49284116447
49284123283
49284129142
49284133842
49284140922
49284144950
49284151359
49284156669
49284161918
49284169791
49284174735
49284180167
49284186149
49284188590
49284192923
49284196280
49284201590
49284207450
49284209952
49284215201
49284219840
49284223380
49284228446
49284233207
49284236930
49284241141
49284245291
49284249564
49284253836
49284257804
49284260855
49284264762
49284268729
49284272940
49284277518
49284281485
49284286429
49284290030
49284294730
49284298636
49284302970
49284307486
49284311392
49284316641
49284319998
49284324149
49284329581
49284333975
49284338431
49284342642
49284346793
49284351187
49284354788
49284361075
49284364737
49284369498
49284373282
49284376395
49284380972
49284386038
49284389761
49284394827
49284399344
49284403616
49284407767
49284411429
49284416800
49284421011
49284425772
49284429495
49284433035
49284438040
49284442129
49284446097
49284450552
49284454825
49284458853
49284462515
49284465811
49284470633
49284476126
49284481253
49284484305
49284488760
49284493704
49284499014
49284502554
49284508291
49284511465
49284515677
49284519888
49284524893
49284528128
49284532339
49284536184
49284541128
49284544912
49284549124
49284554007
49284557730
49284562551
49284566519
49284569692
49284574270
49284577566
49284584097
49284588674
49284592642
49284596182
49284599050
49284603872
49284607656
49284613577
49284618032
49284620168
49284624929
49284629019
49284633291
49284637502
49284640737
49284646108
49284650198
49284653799
49284657461
49284662832
49284667471
49284672170
49284676321
49284680715
49284685964
49284692678
49284696828
49284701406
49284705495
49284708547
49284713186
49284719289
49284723684
49284727895
49284732656
49284737234
49284740896
49284746206
49284750722
49284755605
49284759206
49284764028
49284767385
49284772695
49284776845
49284781423
49284784719
49284790273
49284795217
49284799001
49284803334
49284807424
49284812551
49284817739
49284822499
49284826101
49284830251
49284833669
49284838674
49284843618
49284847341
49284851674
49284855703
49284860463
49284865224
49284869130
49284873525
49284876882
49284881215
49284885549
49284889516
49284894216
49284897206
49284901784
49284907033
49284910329
49284914784
49284918202
49284923757
49284927480
49284931935
49284936818
49284941152
49284946523
49284950002
49284953297
49284958669
49284963124
49284966176
49284970753
49284976369
49284979848
49284985219
49284988576
49284992116
49284997487
49285002370
49285006398
49285010121
49285013966
49285018727
49285022267
49285027028
49285032033
49285036183
49285041554
49285045155
49285049306
49285053212
49285058400
49285063710
49285067555
49285071583
49285075429
49285078541
49285083973
49285088673
49285093129
49285096974
49285101674
49285106190
49285111378
49285114796
49285119191
49285124501
49285129383
49285133168
49285137196
49285142994
49285147267
49285151783
49285156056
49285161366
49285164784
49285169667
49285174061
49285178395
49285181935
49285186451
49285190479
49285193348
49285198170
49285202381
49285208180
49285212147
49285215687
49285220142
49285224049
49285228870
49285232288
49285237476
49285242603
49285245533
49285249683
49285256763
49285260548
49285264576
49285269215
49285271595
49285275928
49285280201
49285286121
49285289722
49285293995
49285298389
49285302418
49285307178
49285311207
49285315723
49285321033
49285324451
49285328663
49285332813
49285338428
49285342151
49285346424
49285351185
49285355030
49285358448
49285363453
49285366871
49285370899
49285375354
49285379505
49285383167
49285387012
49285391102
49285396228
49285400501
49285404285
49285409107
49285412525
49285415699
49285421619
49285425403
49285430286
49285434131
49285437915
49285441577
49285445850
49285451160
49285454395
49285458972
49285462635
49285466663
49285471790
49285475391
49285480274
49285484302
49285488941
49285494251
49285497852
49285502429
49285507495
49285511890
49285516895
49285520923
49285524158
49285528369
49285532337
49285537158
49285540820
49285546008
49285550281
49285554614
49285558826
49285563403
49285567798
49285572070
49285576953
49285581897
49285586780
49285592029
49285596484
49285600146
49285604114
49285609485
49285613757
49285617969
49285623096
49285628039
49285631518
49285636096
49285640124
49285645495
49285649890
49285653613
49285656970
49285660815
49285664233
49285667102
49285671191
49285674731
49285677539
49285681567
49285684558
49285688220
49285691882
49285694873
49285697986
49285700549
49285703540
49285706164
49285708911
49285712024
49285715686
49285718310
49285721301
49285723986
49285727282
49285730151
49285732959
49285735156
49285737780
49285740344
49285742480
49285744799
49285747912
49285750231
49285752185
49285754626
49285757067
49285759326
49285761340
49285763171
49285765429
49285767443
49285769641
49285771594
49285773425
49285775317
49285777209
49285779284
49285781420
49285783312
49285785327
49285787219
49285788989
49285790942
49285792895
49285795031
49285796862
49285798937
49285800646
49285802966
49285805163
49285806933
49285808886
49285810839
49285813036
49285814990
49285817065
49285818896
49285820666
49285822741
49285824572
49285826647
49285828600
49285830248
49285832201
49285834094
49285836230
49285838244
49285839953
49285841723
49285843615
49285846117
49285848071
49285849963
49285851977
49285853930
49285856432
49285858324
49285860217
49285862536
49285864489
49285866442
49285867968
49285870531
49285872546
49285874377
49285876086
49285877856
49285879931
49285881640
49285883471
49285885546
49285887255
49285889452
49285891283
49285893420
49285895617
49285897631
49285900011
49285901842
49285904040
49285905932
49285907763
49285909838
49285911608
49285913927
49285915758
49285917712
49285919359
49285921313
49285923571
49285925219
49285927294
49285929369
49285931261
49285933092
49285934923
49285936693
49285938585
49285940539
49285942370
49285944201
49285946154
49285948046
49285949938
49285951647
49285953356
49285955614
49285957567
49285959704
49285961596
49285963427
49285965563
49285967455
49285969408
49285971117
49285973070
49285975023
49285977099
49285978991
49285980883
49285982775
49285984789
49285986681
49285988634
49285990526
49285992479
49285994249
49285996080
49285998034
49286000170
49286002001
49286003832
49286005785
49286008043
49286009874
49286012072
49286014208
49286016100
49286018541
49286020372
49286022631
49286024462
49286026415
49286028368
49286030321
49286032335
49286034349
49286036119
49286038011
49286039965
49286042345
49286044237
49286046617
49286048326
49286050768
49286052782
49286054674
49286056749
49286058641
49286061022
49286062731
49286064562
49286066454
49286068468
49286070482
49286072496
49286074388
49286076586
49286078356
49286080431
49286082323
49286084093
49286086107
49286087816
49286089830
49286091722
49286093431
49286095384
49286097399
49286099535
49286101610
49286103441
49286105272
49286107164
49286109117
49286111131
49286113085
49286115038
49286116808
49286119310
49286121019
49286122972
49286124925
49286126878
49286128954
49286130785
49286132921
49286134874
49286136461
49286138475
49286140428
49286142259
49286144090
49286146104
49286148119
49286149950
49286152147
49286153917
49286155809
49286157701
49286159776
49286162096
49286163744
49286166185
49286168016
49286170030
49286172350
49286174181
49286176317
49286178087
49286180467
49286182359
49286184251
49286186266
49286188158
49286189867
49286191698
49286193712
49286195665
49286197496
49286199571
49286201402
49286203416
49286205553
49286207323
49286209581
49286211595
49286213975
49286216417
49286218187
49286220506
49286222276
49286224229
49286225999
49286227708
49286229844
49286231676
49286233690
49286235704
49286237657
49286239427
49286241441
49286243333
49286245103
49286247117
49286248765
49286250596
49286252733
49286254686
49286256334
49286258348
49286259874
49286262193
49286264268
49286265916
49286267869
49286269761
49286271837
49286273546
49286275499
49286277330
49286279344
49286281053
49286283311
49286285264
49286287278
49286289109
49286290879
49286292711
49286294725
49286296495
49286298509
49286300279
49286302293
49286304429
49286306321
49286308397
49286310350
49286312242
49286314317
49286316148
49286318223
49286320237
49286322007
49286323960
49286325975
49286328294
49286330125
49286332139
49286334092
49286335923
49286338304
49286340501
49286342332
49286344346
49286346238
49286348069
49286349961
49286351976
49286353685
49286355638
49286357835
49286359910
49286362107
49286364183
49286366136
49286368333
49286370469
49286372850
49286374803
49286376634
49286378831
49286380967
49286382981
49286385118
49286387132
49286388963
49286390794
49286392808
49286394822
49286396531
49286398484
49286400376
49286402268
49286404038
49286406297
49286408311
49286410264
49286412278
49286414170
49286416428
49286418565
49286420335
49286422410
49286424119
49286426377
49286428330
49286430589
49286432481
49286434251
49286436387
49286438340
49286440110
49286442307
49286444383
49286446092
49286447923
49286449937
49286451829
49286453721
49286455613
49286457566
49286459885
49286461961
49286463853
49286465684
49286467820
49286470078
49286472214
49286474412
49286476487
49286478440
49286480576
49286482590
49286484971
49286486802
49286488633
49286490586
49286492600
49286495103
49286496995
49286498948
49286501023
49286502854
49286505051
49286506943
49286508530
49286510483
49286512498
49286514146
49286516099
49286518479
49286520005
49286522263
49286524460
49286526475
49286529099
49286530869
49286532761
49286534897
49286536790
49286539170
49286541062
49286543076
49286545273
49286547288
49286549180
49286550889
49286552781
49286554673
49286556626
49286558518
49286560349
49286562485
49286564438
49286566330
49286567978
49286570054
49286571824
49286573899
49286575913
49286578354
49286580430
49286582688
49286584763
49286586899
49286589097
49286591294
49286593125
49286595139
49286597031
49286599533
49286601242
49286603135
49286605149
49286606980
49286608689
49286610642
49286612778
49286614670
49286616806
49286618576
49286620468
49286622239
49286624131
49286626572
49286628403
49286630539
49286632370
49286634201
49286636582
49286638535
49286640488
49286642746
49286644699
49286646775
49286648850
49286650925
49286653061
49286654892
49286656662
49286658676
49286660446
49286662522
49286664353
49286666245
49286668137
49286670273
49286672104
49286673935
49286675949
49286677841
49286679550
49286681565
49286683762
49286685837
49286687607
49286689804
49286691879
49286694077
49286695969
49286697739
49286699631
49286701523
49286703415
49286705246
49286707077
49286709030
49286710800
49286712998
49286715073
49286717087
49286718979
49286720932
49286722580
49286724716
49286727036
49286728928
49286730820
49286732773
49286735031
49286737351
49286739548
49286741501
49286743576
49286745468
49286747543
49286749191
49286751267
49286753647
49286755539
49286757492
49286759262
49286761276
49286763351
49286765060
49286767136
49286768784
49286770737
49286773117
49286775131
49286776901
49286778915
49286781052
49286782944
49286784775
49286786789
49286788803
49286791061
49286793137
49286795395
49286797470
49286799423
49286801376
49286803390
49286805771
49286807602
49286809616
49286811447
49286813522
49286815536
49286817612
49286819809
49286821457
49286823654
49286825729
49286827682
49286829635
49286831466
49286833481
49286835434
49286837387
49286839157
49286841293
49286843307
49286845321
49286847214
49286849411
49286851486
49286853561
49286855331
49286857406
49286859421
49286861679
49286863693
49286865646
49286867599
49286869491
49286871261
49286873398
49286875473
49286877365
49286879318
49286881332
49286883346
49286885421
49286887314
49286889145
49286891159
49286893478
49286895675
49286897384
49286899704
49286901474
49286903610
49286905563
49286907455
49286909408
49286911605
49286913925
49286915817
49286917770
49286920028
49286922042
49286923812
49286925582
49286927597
49286929794
49286931686
49286933517
49286935165
49286937240
49286939254
49286941146
49286943038
49286944870
49286947311
49286949203
49286951034
49286953170
49286955368
49286957443
49286959335
49286961715
49286963912
49286965805
49286967636
49286969406
49286971786
49286973739
49286975631
49286977401
49286979354
49286981368
49286983200
49286985397
49286987167
49286988876
49286990646
49286992477
49286994674
49286996810
49286998641
49287000717
49287002792
49287005111
49287006942
49287009017
49287011276
49287013168
49287015487
49287017501
49287019515
49287021346
49287023177
49287025070
49287026901
49287028854
49287030624
49287032638
49287034530
49287036544
49287038741
49287040633
49287042464
49287044357
49287046493
49287048629
49287050521
49287052413
49287054427
49287056442
49287059005
49287060714
49287062911
49287064925
49287066695
49287068649
49287070724
49287073226
49287075179
49287076827
49287078963
49287080917
49287082992
49287084701
49287086715
49287088546
49287090316
49287092208
49287094222
49287096297
49287098495
49287100326
49287102401
49287104415
49287106368
49287108321
49287110152
49287111922
49287113814
49287116073
49287117782
49287119857
49287121810
49287123702
49287125777
49287127425
49287129317
49287131087
49287132918
49287134994
49287136641
49287138961
49287140792
49287142501
49287144637
49287146468
49287148543
49287150374
49287152327
49287154159
49287156051
49287158370
49287160201
49287162093
49287164473
49287166488
49287168563
49287170577
49287172347
49287174178
49287176131
49287178084
49287180037
49287181746
49287183638
49287185714
49287187484
49287189559
49287191695
49287193526
49287195296
49287197249
49287199385
49287201400
49287203231
49287205184
49287207076
49287208785
49287210616
49287212569
49287214827
49287216719
49287218734
49287220809
49287222640
49287225142
49287227095
49287228987
49287230941
49287232955
49287234725
49287236556
49287238326
49287240035
49287241988
49287244368
49287246260
49287248213
49287250228
49287252120
49287254256
49287256758
49287258773
49287260909
49287262923
49287264632
49287266707
49287268843
49287270674
49287272383
49287274459
49287276534
49287278548
49287280379
49287282393
49287284285
49287286055
49287287886
49287290083
49287291915
49287293685
49287295699
49287297591
49287299300
49287301314
49287303084
49287305037
49287306807
49287308638
49287310774
49287312850
49287314803
49287316573
49287318648
49287320967
49287322859
49287324568
49287326338
49287328230
49287330000
49287332137
49287334151
49287335921
49287338057
49287340254
49287342085
49287344222
49287346175
49287347762
49287349715
49287351607
49287353621
49287355452
49287357527
49287359419
49287361311
49287363692
49287365523
49287367781
49287369673
49287371504
49287374007
49287375655
49287377974
49287379927
49287381636
49287383833
49287385664
49287387434
49287389387
49287391096
49287393050
49287395247
49287397383
49287399397
49287401167
49287402937
49287404890
49287407393
49287409285
49287411421
49287413191
49287415266
49287417402
49287419417
49287421797
49287423567
49287425276
49287427534
49287429365
49287431196
49287433150
49287434920
49287436812
49287438948
49287440657
49287442549
49287444502
49287446333
49287447920
49287449812
49287451765
49287453535
49287455427
49287457319
49287459273
49287461226
49287463362
49287465376
49287467390
49287469099
49287471052
49287473372
49287475081
49287476973
49287478865
49287480696
49287482771
49287484663
49287486372
49287488386
49287490339
49287492415
49287494123
49287496199
49287498274
49287500288
49287502058
49287504255
49287506453
49287508589
49287510359
49287512312
49287514692
49287516706
49287518354
49287520552
49287522566
49287524763
49287526594
49287528608
49287530622
49287532453
49287534040
49287536177
49287538069
49287540022
49287542036
49287543989
49287545698
49287547712
49287549665
49287551374
49287553572
49287559492
49287561689
49287563459
49287565657
49287567427
49287569563
49287571455
49287573225
49287575239
49287577009
49287578962
49287580854
49287582563
49287584394
49287586469
49287588423
49287590315
49287592146
49287593977
49287595747
49287597761
49287599531
49287601423
49287603193
49287605024
49287607099
49287609113
49287610761
49287613020
49287614729
49287616682
49287618696
49287620710
49287622419
49287624555
49287626325
49287628278
49287630537
49287632307
49287634199
49287636579
49287638349
49287640485
49287642194
49287643964
49287645795
49287647688
49287649946
49287651838
49287653608
49287655500
49287657270
49287659162
49287661115
49287663129
49287664838
49287666669
49287668745
49287670515
49287672712
49287674421
49287676435
49287678571
49287680219
49287682661
49287684492
49287686323
49287688215
49287689924
49287692060
49287693952
49287695661
49287697980
49287699872
49287701581
49287703535
49287705366
49287707197
49287709272
49287711164
49287712934
49287715253
49287716962
49287719465
49287721540
49287723310
49287725812
49287727643
49287729780
49287732282
49287734174
49287736249
49287738080
49287739667
49287741559
49287743390
49287745405
49287747297
49287749311
49287751264
49287753034
49287754926
49287757062
49287759015
49287760846
49287762739
49287764509
49287766340
49287768903
49287770856
49287772687
49287774701
49287776471
49287778730
49287780317
49287782758
49287784528
49287786420
49287788312
49287790265
49287792096
49287794172
49287796125
49287798200
49287800092
49287802106
49287803998
49287805890
49287807599
49287809613
49287811750
49287813520
49287815412
49287817792
49287819501
49287821698
49287823712
49287825849
49287827680
49287829145
49287831586
49287833478
49287835797
49287837934
49287839765
49287841657
49287843732
49287845624
49287847394
49287849347
49287851239
49287853375
49287855634
49287857465
49287859174
49287861249
49287862897
49287864850
49287866742
49287868573
49287870465
49287872357
49287874494
49287876264
49287878827
49287880658
49287882489
49287884320
49287886212
49287888715
49287890363
49287892194
49287894086
49287895795
49287897992
49287899762
49287901776
49287903668
49287905499
49287907575
49287909406
49287911298
49287913190
49287915204
49287916852
49287918622
49287920758
49287922711
49287924725
49287926923
49287928815
49287930951
49287932965
49287934674
49287937116
49287938947
49287941022
49287942914
49287944623
49287947125
49287949017
49287950909
49287952802
49287955121
49287956891
49287958783
49287960675
49287962628
49287964703
49287966656
49287968488
49287970685
49287972760
49287974835
49287976666
49287978680
49287980817
49287982465
49287984479
49287986249
49287988751
49287990460
49287992230
49287994488
49287996319
49287998761
49288000653
49288002606
49288004498
49288006573
49288008526
49288010419
49288012372
49288014264
49288015851
49288017682
49288019696
49288021710
49288023602
49288025494
49288027752
49288029584
49288031964
49288033734
49288035748
49288037640
49288039593
49288041791
49288043500
49288045392
49288047406
49288049176
49288051129
49288053021
49288054974
49288056988
49288058758
49288061017
49288062970
49288065045
49288066632
49288068707
49288070660
49288072613
49288074627
49288076580
49288078412
49288080609
49288082501
49288084698
49288086529
49288088726
49288090619
49288092572
49288094403
49288096234
49288098431
49288100750
49288102520
49288104473
49288106366
49288108685
49288110577
49288112530
49288114300
49288116314
49288118328
49288120282
49288122174
49288123883
49288125958
49288128582
49288130352
49288132366
49288134259
49288136090
49288138043
49288139996
49288142071
49288143963
49288146038
49288147808
49288149884
49288152264
49288154217
49288156109
49288157879
49288159527
49288161602
49288163433
49288165325
49288167156
49288169232
49288171063
49288172955
49288174908
49288176800
49288178875
49288180706
49288182659
49288184735
49288186566
49288188580
49288190594
49288192486
49288194561
49288196575
49288198406
49288200421
49288202007
49288204144
49288205975
49288208050
49288209942
49288211956
49288213909
49288215801
49288217632
49288219585
49288221417
49288223064
49288225201
49288227337
49288229290
49288231548
49288233379
49288235210
49288237347
49288239300
49288241436
49288243267
49288245281
49288247540
49288249432
49288251690
49288253704
49288255779
49288257793
49288259624
49288261517
49288263897
49288265850
49288267925
49288270061
49288271831
49288273846
49288275616
49288277569
49288279949
49288281963
49288284099
49288286236
49288293255
49288295330
49288297100
49288299297
49288301189
49288303264
49288305034
49288307171
49288309246
49288311016
49288313274
49288315349
49288317241
49288319195
49288321087
49288323345
49288325420
49288327678
49288329448
49288332073
49288333843
49288335735
49288337749
49288339763
49288341839
49288343792
49288345928
49288347881
49288349773
49288351665
49288353618
49288355571
49288357586
49288359356
49288361187
49288363201
49288365581
49288367412
49288369487
49288371502
49288373577
49288375774
49288377605
49288379619
49288381633
49288383831
49288385845
49288387798
49288390117
49288391887
49288394268
49288397380
49288399456
49288401592
49288403606
49288405681
49288407390
49288409893
49288411785
49288413738
49288415508
49288417278
49288419658
49288421794
49288423687
49288425640
49288427654
49288429973
49288431804
49288434124
49288436138
49288438030
49288440288
49288442302
49288444622
49288446575
49288448467
49288450481
49288452373
49288454326
49288456096
49288458171
49288459880
49288462017
49288463848
49288465557
49288467815
49288470012
49288471660
49288473857
49288475749
49288477947
49288479961
49288482402
49288484416
49288486858
49288488811
49288490703
49288492473
49288494731
49288496868
49288498821
49288500774
49288502666
49288504680
49288506328
49288508281
49288510112
49288512004
49288514018
49288515849
49288517925
49288520305
49288522136
49288523906
49288526042
49288527873
49288530010
49288532024
49288534160
49288536113
49288538371
49288540263
49288542033
49288544292
49288546184
49288548381
49288550334
49288552470
49288554790
49288556987
49288558879
49288560710
49288562785
49288564616
49288566569
49288568339
49288570232
49288572002
49288574016
49288576030
49288577739
49288580119
49288581706
49288584025
49288585857
49288587749
49288589458
49288591167
49288593303
49288595012
49288597270
49288599101
49288601298
49288603007
49288604716
49288606547
49288608439
49288610332
49288611918
49288613933
49288615764
49288617473
49288619304
49288621440
49288623393
49288625163
49288626872
49288628825
49288631022
49288632915
49288634929
49288636821
49288638896
49288640971
49288642802
49288644572
49288646342
49288648173
49288649821
49288651896
49288653605
49288655314
49288657084
49288659037
49288660685
49288662578
49288664409
49288666057
49288668315
49288669780
49288671794
49288673686
49288675822
49288677714
49288679850
49288681620
49288683696
49288685160
49288687358
49288689433
49288691386
49288693095
49288694682
49288696818
49288698527
49288700358
49288702067
49288703898
49288705607
49288707438
49288709574
49288711467
49288713664
49288715373
49288717692
49288719645
49288721415
49288723368
49288725383
49288727580
49288729350
49288731242
49288733134
49288735270
49288737162
49288738871
49288740458
49288742167
49288744181
49288745890
49288747721
49288749430
49288751383
49288753092
49288755351
49288757182
49288758952
49288760844
49288762675
49288764689
49288766886
49288768839
49288770426
49288772746
49288774516
49288776408
49288778422
49288780314
49288782328
49288783976
49288785929
49288787699
49288789591
49288791667
49288793620
49288795512
49288797160
49288798808
49288800822
49288802836
49288804545
49288806559
49288808268
49288810709
49288812418
49288814311
49288816386
49288818217
49288820231
49288822123
49288824198
49288826212
49288827860
