49289380654
49289390237
49289394936
49289399087
49289402322
49289409951
49289416543
49289423501
49289429116
49289436684
49289443276
49289448281
49289456216
49289464455
49289470620
49289478066
49289485879
49289493508
49289500893
49289507668
49289515114
49289522866
49289530434
49289538369
49289544899
49289550942
49289559670
49289566994
49289573159
49289580300
49289587502
49289595131
49289602761
49289609597
49289615883
49289624245
49289630654
49289637062
49289645241
49289650917
49289657814
49289665199
49289670754
49289679909
49289686196
49289693886
49289700722
49289708046
49289716774
49289726662
49289732582
49289740761
49289746742
49289755104
49289763832
49289770363
49289778114
49289786110
49289793739
49289800514
49289808021
49289815895
49289823829
49289830238
49289838661
49289846168
49289854042
49289861671
49289870643
49289878456
49289885109
49289893776
49289900673
49289907814
49289915443
49289923011
49289929481
49289937843
49289946205
49289951698
49289958900
49289967384
49289974891
49289982581
49289990455
49289996864
49290004798
49290011695
49290018958
49290027930
49290034888
49290043067
49290049598
49290057044
49290065040
49290072669
49290081031
49290088233
49290095313
49290101600
49290109962
49290116065
49290124244
49290130713
49290137916
49290146583
49290152564
49290160743
49290170264
49290177649
49290186499
49290193824
49290202124
49290210608
49290217444
49290226844
49290233679
49290241797
49290249549
49290257910
49290267188
49290275794
49290283484
49290290930
49290298865
49290308203
49290315711
49290324377
49290333533
49290342017
49290350256
49290359595
49290367285
49290375952
49290384131
49290391211
49290400854
49290408850
49290416296
49290425635
49290433386
49290442663
49290451208
49290459326
49290466833
49290473486
49290482885
49290490332
49290500402
49290509497
49290515844
49290525854
49290533911
49290543249
49290549291
49290558752
49290568090
49290576513
49290585180
49290591894
49290601843
49290609350
49290617529
49290627477
49290636083
49290646886
49290654211
49290663183
49290670568
49290680334
49290688756
49290698095
49290706335
49290715246
49290724584
49290731420
49290740392
49290749303
49290759313
49290767186
49290775487
49290783483
49290793065
49290799596
49290809972
49290820165
49290827428
49290836888
49290845494
49290855382
49290865392
49290873143
49290883702
49290891637
49290900060
49290908482
49290917455
49290926427
49290933812
49290946934
49290955174
49290964452
49290972813
49290981663
49290991185
49290998021
49291009495
49291017674
49291027012
49291036534
49291043126
49291049473
49291061131
49291069249
49291077122
49291087559
49291095127
49291101292
49291109776
49291116795
49291127537
49291135899
49291144566
49291151951
49291160252
49291167820
49291175755
49291183567
49291194431
49291202976
49291210728
49291217991
49291225437
49291234470
49291241367
49291248142
49291259434
49291266025
49291273533
49291278843
49291288425
49291296299
49291303440
49291311497
49291319187
49291325840
49291333042
49291339451
49291345920
49291352939
49291360019
49291367405
49291375217
49291382114
49291388828
49291395359
49291402622
49291410434
49291418491
49291428073
49291435398
49291443881
49291451450
49291458164
49291465549
49291473300
49291482333
49291488437
49291496555
49291502536
49291509799
49291520053
49291528842
49291537021
49291544223
49291549411
49291557956
49291562900
49291571750
49291576633
49291588229
49291595492
49291603427
49291610202
49291617221
49291625033
49291632358
49291639377
49291646579
49291656894
49291664096
49291670810
49291678012
49291685336
49291692965
49291700961
49291711032
49291715670
49291721408
49291728305
49291732272
49291738192
49291744235
49291748385
49291755099
49291761386
49291766757
49291771334
49291777499
49291782137
49291788668
49291796481
49291802462
49291808016
49291814181
49291817904
49291824740
49291828524
49291835177
49291842074
49291846346
49291852450
49291856417
49291862521
49291868197
49291873202
49291879977
49291885714
49291890658
49291897371
49291902498
49291908358
49291913363
49291918978
49291924471
49291929537
49291934420
49291939608
49291944918
49291950045
49291955233
49291960970
49291966829
49291971956
49291976961
49291981600
49291987581
49291992159
49291997103
49292002108
49292008638
49292011568
49292017549
49292023592
49292028963
49292033113
49292037508
49292044649
49292049654
49292054720
49292059358
49292064790
49292069429
49292074556
49292080721
49292086580
49292091158
49292096468
49292100923
49292106050
49292111971
49292117342
49292122713
49292127473
49292134309
49292140108
49292145967
49292152376
49292157808
49292163423
49292168306
49292173250
49292178987
49292184175
49292189729
49292194307
49292200715
49292205781
49292211336
49292216218
49292220796
49292225496
49292232271
49292237703
49292241853
49292247957
49292253267
49292258149
49292262056
49292267183
49292274018
49292278657
49292284944
49292289766
49292295564
49292299287
49292305085
49292310701
49292316194
49292320649
49292327119
49292331819
49292337434
49292341035
49292347077
49292353364
49292358857
49292363618
49292367646
49292373628
49292377839
49292382905
49292389497
49292395478
49292400422
49292407319
49292413544
49292417817
49292424531
49292429658
49292435090
49292441132
49292446503
49292451020
49292456391
49292460725
49292466706
49292471955
49292476594
49292482819
49292488068
49292493806
49292499970
49292505646
49292511994
49292515473
49292523835
49292529633
49292534211
49292540558
49292546967
49292553376
49292559113
49292563813
49292569977
49292576325
49292581391
49292588532
49292593537
49292600556
49292607392
49292611969
49292618378
49292625458
49292630707
49292637970
49292643891
49292649018
49292654999
49292659577
49292666962
49292672028
49292677277
49292682465
49292688202
49292693695
49292700226
49292705841
49292711578
49292716339
49292722076
49292727020
49292732758
49292737579
49292743256
49292749176
49292753570
49292760589
49292765594
49292771026
49292775848
49292781647
49292786712
49292793609
49292797149
49292803619
49292807403
49292814117
49292819916
49292825836
49292831329
49292837860
49292842132
49292846954
49292852447
49292858184
49292864105
49292870025
49292876312
49292881439
49292886261
49292891815
49292897796
49292903717
49292909210
49292913909
49292920013
49292926116
49292930999
49292936004
49292941986
49292948455
49292952789
49292958465
49292964507
49292970062
49292975494
49292981719
49292988128
49292993011
49292998687
49293003448
49293008392
49293014007
49293019927
49293025176
49293031402
49293035979
49293042083
49293046844
49293051604
49293057586
49293065276
49293069671
49293075591
49293080535
49293087432
49293092620
49293096770
49293104217
49293108794
49293115325
49293120208
49293125152
49293129973
49293135711
49293143096
49293147857
49293154265
49293158904
49293164336
49293169158
49293175139
49293181487
49293185820
49293191619
49293197844
49293202605
49293207427
49293213347
49293219817
49293225981
49293231291
49293236113
49293241606
49293247832
49293251860
49293258940
49293263457
49293268950
49293275298
49293280730
49293284392
49293290801
49293297636
49293302092
49293307341
49293313445
49293318755
49293323576
49293329619
49293334990
49293340727
49293346220
49293350432
49293356718
49293361662
49293368620
49293373686
49293379484
49293384917
49293389250
49293394804
49293400969
49293405974
49293412321
49293418059
49293423430
49293427824
49293433745
49293439604
49293445280
49293451201
49293456816
49293462492
49293466764
49293472990
49293477812
49293483671
49293489225
49293494902
49293500639
49293506071
49293510649
49293516752
49293522245
49293527067
49293532438
49293538786
49293544340
49293549162
49293553495
49293559355
49293565580
49293571684
49293576627
49293580595
49293587370
49293591581
49293597868
49293604398
49293609953
49293615202
49293620695
49293625150
49293630643
49293636198
49293642789
49293647306
49293652555
49293658781
49293665616
49293669950
49293676786
49293682584
49293689115
49293692838
49293700406
49293706083
49293710477
49293716947
49293721891
49293727384
49293732755
49293738431
49293744962
49293749723
49293754300
49293759916
49293766263
49293772733
49293776517
49293782804
49293788907
49293794400
49293799771
49293805753
49293811734
49293817105
49293821744
49293827664
49293833463
49293838834
49293844571
49293849454
49293854886
49293860806
49293865201
49293870816
49293878568
49293884366
49293888699
49293894132
49293900235
49293904569
49293909940
49293916165
49293921353
49293927090
49293932645
49293937772
49293941983
49293948392
49293955655
49293960721
49293966153
49293971768
49293976773
49293981106
49293987088
49293993313
49293998562
49294003628
49294008694
49294015042
49294019192
49294025357
49294032437
49294037686
49294042508
49294047635
49294053677
49294057949
49294064297
49294070950
49294076443
49294082058
49294085842
49294092495
49294097012
49294102993
49294109646
49294115261
49294120693
49294125820
49294130886
49294136440
49294142422
49294147671
49294154019
49294159268
49294164517
49294171597
49294175869
49294181912
49294186367
49294193081
49294197903
49294203396
49294206814
49294212307
49294218777
49294222927
49294229946
49294234341
49294239895
49294245754
49294250820
49294255337
49294260830
49294266628
49294272304
49294275783
49294281948
49294287563
49294292873
49294298183
49294303127
49294309047
49294313198
49294319240
49294323940
49294329006
49294333645
49294340053
49294344936
49294350246
49294356228
49294361415
49294365505
49294370754
49294375698
49294382228
49294386867
49294392910
49294397914
49294404628
49294411159
49294417263
49294423183
49294428981
49294433681
49294439418
49294444484
49294450649
49294454799
49294460170
49294466274
49294472987
49294477260
49294483363
49294489650
49294494838
49294500758
49294506435
49294511256
49294515834
49294522426
49294527187
49294532863
49294537807
49294543544
49294549037
49294554652
49294559840
49294566127
49294571010
49294578029
49294583156
49294588649
49294594691
49294599269
49294604884
49294610804
49294615565
49294622096
49294627406
49294633143
49294636866
49294641932
49294649134
49294653651
49294659571
49294664759
49294670436
49294675257
49294681178
49294687098
49294691676
49294698512
49294703517
49294708827
49294713709
49294719386
49294725794
49294730311
49294737635
49294742457
49294747340
49294752284
49294757716
49294764124
49294768824
49294775233
49294781458
49294785914
49294791834
49294796900
49294801966
49294807825
49294813929
49294818873
49294824488
49294829188
49294834681
49294840357
49294846033
49294850855
49294857386
49294862513
49294867396
49294873255
49294878687
49294884974
49294890406
49294895594
49294901209
49294905909
49294911951
49294917139
49294923243
49294928492
49294935144
49294940821
49294944422
49294950403
49294956263
49294962122
49294967249
49294971888
49294978113
49294982996
49294989344
49294994532
49294998743
49295006006
49295012171
49295016931
49295023096
49295028040
49295032984
49295038355
49295043909
49295049646
49295055200
49295060022
49295065454
49295070093
49295075891
49295082666
49295088281
49295093225
49295099390
49295104395
49295109216
49295114893
49295122400
49295126672
49295133142
49295137842
49295143884
49295148706
49295153772
49295159204
49295164819
49295170434
49295175134
49295182031
49295187036
49295192773
49295198266
49295203576
49295209680
49295214013
49295221032
49295225854
49295230981
49295237390
49295243432
49295248620
49295252832
49295258447
49295264550
49295268823
49295275537
49295280542
49295286157
49295291894
49295297021
49295301354
49295308435
49295313378
49295318810
49295324365
49295329919
49295335656
49295339745
49295345544
49295352319
49295357385
49295362145
49295368920
49295374047
49295378320
49295384728
49295390221
49295397057
49295402184
49295407250
49295413659
49295417870
49295423791
49295430260
49295435876
49295439355
49295445214
49295450951
49295456566
49295461571
49295468163
49295473107
49295479821
49295484093
49295490380
49295495751
49295501122
49295505639
49295512047
49295516991
49295522912
49295528466
49295533959
49295538903
49295545128
49295550805
49295557091
49295562889
49295566613
49295573754
49295579186
49295583641
49295590355
49295595238
49295600365
49295605248
49295611229
49295615013
49295622460
49295627403
49295633690
49295638146
49295643089
49295649742
49295654625
49295660362
49295666771
49295671898
49295677635
49295682213
49295688683
49295692284
49295698387
49295705528
49295709801
49295715172
49295721275
49295726646
49295731895
49295737816
49295743187
49295747764
49295754356
49295759056
49295764488
49295769249
49295774986
49295781639
49295787315
49295792564
49295796898
49295803245
49295808006
49295813377
49295819786
49295825645
49295830528
49295836509
49295841453
49295846397
49295852317
49295858909
49295864708
49295869346
49295875328
49295880516
49295885459
49295892356
49295898094
49295903770
49295908714
49295915000
49295920005
49295924766
49295930015
49295936729
49295942771
49295948020
49295952476
49295958823
49295963706
49295969322
49295975303
49295980796
49295985984
49295991416
49295997092
49296001426
49296008140
49296014182
49296019309
49296022971
49296029990
49296035911
49296040855
49296047019
49296053062
49296056968
49296063865
49296068259
49296074546
49296078635
49296084434
49296090842
49296096213
49296101890
49296107322
49296111777
49296117759
49296123130
49296128013
49296133811
49296140220
49296143882
49296150290
49296155295
49296161460
49296167319
49296173484
49296178855
49296184348
49296190879
49296195151
49296202109
49296206931
49296213217
49296216757
49296222556
49296227194
49296233298
49296236777
49296242148
49296249533
49296255209
49296259482
49296264792
49296269736
49296273886
49296279623
49296284323
49296290488
49296295554
49296301474
49296308676
49296313071
49296319357
49296326315
49296330405
49296336996
49296342551
49296347677
49296353842
49296357992
49296365561
49296371298
49296377035
49296381247
49296386801
49296392843
49296396994
49296404684
49296410421
49296415121
49296421286
49296425741
49296430502
49296436056
49296442953
49296448019
49296453268
49296459372
49296464376
49296469198
49296474752
49296481344
49296485556
49296492208
49296496420
49296502889
49296507833
49296512289
49296518881
49296524252
49296529684
49296535299
49296540975
49296545370
49296550985
49296557455
49296562948
49296568441
49296574117
49296578634
49296583273
49296589437
49296597250
49296602010
49296608297
49296613912
49296619100
49296624593
49296629842
49296634420
49296640829
49296645772
49296650960
49296656820
49296661642
49296665059
49296671041
49296677083
49296682638
49296687520
49296693502
49296697774
49296701803
49296707296
49296714437
49296719564
49296724263
49296729512
49296734273
49296739217
49296745198
49296750753
49296755819
49296760335
49296766378
49296770589
49296776631
49296781270
49296785848
49296792928
49296798665
49296804036
49296807820
49296813863
49296819173
49296824056
49296828389
49296834981
49296840108
49296844991
49296850850
49296855184
49296859822
49296865193
49296870503
49296875996
49296882344
49296887654
49296892049
49296897298
49296902730
49296907552
49296913594
49296917805
49296925862
49296931538
49296936299
49296942647
49296948079
49296953999
49296959859
49296964009
49296970112
49296975056
49296979573
49296984761
49296990986
49296997395
49297003621
49297009114
49297014058
49297019001
49297026265
49297032246
49297037434
49297041645
49297048420
49297053181
49297058735
49297066120
49297070088
49297076130
49297080525
49297086384
49297092488
49297096821
49297103596
49297109638
49297114277
49297118733
49297124592
49297130634
49297136311
49297141987
49297147358
49297153889
49297157551
49297163654
49297169880
49297175251
49297180073
49297186359
49297191425
49297197041
49297201923
49297206379
49297213276
49297218098
49297224384
49297229206
49297234272
49297240864
49297244953
49297250934
49297255451
49297261860
49297267109
49297272846
49297279133
49297283222
49297289448
49297293964
49297300434
49297305683
49297311481
49297318317
49297322223
49297328388
49297334797
49297339618
49297344745
49297351215
49297356098
49297361042
49297366046
49297371479
49297376667
49297382404
49297387104
49297393024
49297398151
49297403461
49297409442
49297414447
49297420551
49297425128
49297431354
49297436115
49297441852
49297446430
49297451679
49297457294
49297462665
49297468219
49297472369
49297478412
49297482501
49297487567
49297492999
49297499835
49297505084
49297510699
49297517535
49297524005
49297528644
49297535846
49297539996
49297546100
49297551532
49297556659
49297562640
49297567401
49297574115
49297579547
49297585833
49297591632
49297596881
49297601825
49297608661
49297613543
49297619342
49297624163
49297630267
49297636004
49297639666
49297646197
49297652240
49297657916
49297662738
49297668902
49297673236
49297679583
49297684954
49297689837
49297695574
49297701129
49297705523
49297711260
49297717364
49297721514
49297728350
49297734088
49297738848
49297744280
49297748980
49297755145
49297759417
49297765826
49297771197
49297777117
49297782793
49297787737
49297791949
49297798296
49297803179
49297809283
49297815203
49297819048
49297826189
49297830645
49297836260
49297842974
49297848406
49297853838
49297858843
49297864336
49297869951
49297875322
49297882342
49297886919
49297892962
49297898638
49297903582
49297909014
49297914385
49297919085
49297926470
49297930254
49297935869
49297942034
49297947466
49297953264
49297958513
49297965715
49297971880
49297976030
49297982866
49297987444
49297994463
49297999468
49298005632
49298010698
49298015642
49298020647
49298027361
49298031084
49298036699
49298043718
49298049089
49298053911
49298057939
49298063860
49298068010
49298073808
49298079057
49298084428
49298090837
49298096147
49298102800
49298109331
49298113176
49298121110
49298125322
49298131731
49298136125
49298142412
49298148576
49298153520
49298158952
49298164873
49298170671
49298174943
49298181047
49298187211
49298191728
49298198320
49298204301
49298209001
49298215165
49298219438
49298225541
49298229875
49298236711
49298242082
49298247270
49298252885
49298257890
49298263993
49298268876
49298273881
49298280229
49298285539
49298291337
49298296098
49298301591
49298307206
49298313310
49298319596
49298325211
49298330583
49298335221
49298340714
49298346146
49298352494
49298357316
49298362260
49298368913
49298374284
49298378373
49298384171
49298390885
49298396622
49298401810
49298406998
49298413224
49298418900
49298423783
49298430192
49298434891
49298441056
49298445634
49298450822
49298457047
49298462052
49298467789
49298473649
49298478653
49298483841
49298487443
49298492142
49298497879
49298503556
49298507584
49298515274
49298519669
49298525589
49298529801
49298535355
49298541214
49298546097
49298551468
49298556961
49298563004
49298568436
49298573563
49298577591
49298583878
49298588944
49298594254
49298600235
49298605606
49298610672
49298614700
49298620194
49298624466
49298631485
49298636429
49298641800
49298646561
49298651444
49298656021
49298661392
49298667618
49298673172
49298678604
49298683975
49298688919
49298692886
49298698379
49298702591
49298709183
49298714127
49298719925
49298724502
49298729812
49298734451
49298739761
49298746170
49298751846
49298756790
49298762588
49298767105
49298771194
49298777298
49298782791
49298788040
49298792679
49298798477
49298803543
49298808548
49298813858
49298819900
49298825088
49298831375
49298836563
49298841201
49298846389
49298851089
49298856338
49298863418
49298868606
49298873489
49298878738
49298883438
49298888687
49298894302
49298898757
49298904800
49298911209
49298917129
49298923721
49298928848
49298934890
49298939895
49298945998
49298951553
49298957046
49298962783
49298967178
49298973891
49298978835
49298984573
49298989944
49298995559
49299001479
49299005691
49299011733
49299018874
49299024612
49299029311
49299035598
49299040359
49299045180
49299050735
49299057021
49299062880
49299068252
49299072524
49299078566
49299084792
49299090041
49299095900
49299101577
49299106459
49299111892
49299118178
49299123061
49299128310
49299133315
49299139296
49299144545
49299150038
49299155165
49299161269
49299165908
49299171828
49299177687
49299182936
49299187941
49299194960
49299201186
49299206191
49299213881
49299219435
49299224501
49299230605
49299237135
49299242445
49299248427
49299254775
49299259291
49299265395
49299271681
49299277357
49299282362
49299287489
49299294020
49299299269
49299305250
49299309279
49299315810
49299319472
49299326063
49299330336
49299336317
49299341383
49299346693
49299351332
49299356703
49299361403
49299366652
49299372999
49299377150
49299383070
49299388319
49299393019
49299398451
49299403395
49299407789
49299414564
49299419386
49299425856
49299431166
49299436781
49299443983
49299449293
49299454786
49299459974
49299466078
49299471144
49299476393
49299482008
49299487684
49299493055
49299497633
49299504103
49299508070
49299513197
49299518995
49299523329
49299530164
49299535291
49299538831
49299544569
49299549757
49299554945
49299559827
49299565748
49299570936
49299575330
49299581190
49299586988
49299591077
49299597120
49299601881
49299606885
49299612806
49299616285
49299622327
49299628248
49299633619
49299637830
49299644056
49299649976
49299655286
49299660230
49299666273
49299671460
49299676771
49299680494
49299688916
49299692823
49299698255
49299703748
49299708692
49299714551
49299719068
49299724317
49299730237
49299736463
49299741712
49299747327
49299751538
49299757337
49299762464
49299767713
49299772412
49299779065
49299784864
49299789136
49299795484
49299800488
49299806836
49299812573
49299818311
49299823682
49299828015
49299834363
49299839673
49299845532
49299850537
49299857007
49299862622
49299867871
49299873669
49299879834
49299884961
49299891492
49299898511
49299903821
49299908887
49299916089
49299919934
49299926465
49299932385
49299937512
49299943127
49299948987
49299954419
49299958935
49299965161
49299970776
49299976452
49299980420
49299987927
49299991955
49299998974
49300003857
49300009350
49300014111
49300020825
49300025830
49300032971
49300037548
49300043469
49300049328
49300053845
49300061291
49300066845
49300072033
49300078137
49300083508
49300088635
49300095898
49300101696
49300107678
49300113781
49300119030
49300124584
49300130993
49300135998
49300140942
49300147595
49300152905
49300157848
49300163097
49300171276
49300177502
49300183300
49300189709
49300194042
49300200695
49300207470
49300212475
49300218700
49300223339
49300229137
49300235851
49300242504
49300248119
49300254223
49300258678
49300265880
49300270580
49300276928
49300282848
49300289562
49300294811
49300300609
49300304332
49300310314
49300316845
49300321483
49300327953
49300334056
49300339366
49300346141
49300350475
49300356517
49300361583
49300368358
49300374706
49300381053
49300385692
49300393016
49300398998
49300404613
49300410472
49300415172
49300420421
49300427135
49300432994
49300438426
49300443370
49300450084
49300455455
49300460460
49300468028
49300473155
49300478465
49300484508
49300489818
49300495128
49300502208
49300508067
49300513805
49300519969
49300524058
49300531138
49300537547
49300543101
49300548717
49300553599
49300558665
49300564830
49300569896
49300576121
49300580821
49300586192
49300592601
49300596751
49300603831
49300608836
49300613963
49300620127
49300625499
49300631236
49300636485
49300641856
49300647959
49300652415
49300658457
49300664012
49300669444
49300673472
49300679881
49300685435
49300691905
49300697215
49300702097
49300708079
49300712901
49300719004
49300725474
49300731699
49300735911
49300742808
49300749155
49300755137
49300759715
49300764903
49300771128
49300774973
49300780588
49300786692
49300792368
49300797983
49300805430
49300809092
49300816965
49300822459
49300827708
49300833323
49300838999
49300844858
49300851206
49300855906
49300861887
49300866465
49300871714
49300878061
49300882700
49300888865
49300896006
49300901560
49300906626
49300912546
49300918222
49300924143
49300930857
49300936289
49300942270
49300947580
49300953623
49300958200
49300963877
49300969065
49300974802
49300979929
49300985849
49300990244
49300995554
49301001352
49301007334
49301013010
49301018808
49301022226
49301028207
49301034067
49301040598
49301045908
49301051706
49301055673
49301062143
49301066965
49301072885
49301078806
49301085336
49301089670
49301094308
49301099802
49301104745
49301110544
49301116403
49301121042
49301126413
49301132028
49301137582
49301143381
49301148507
49301154611
49301160592
49301165292
49301170480
49301174875
49301180551
49301186288
49301192819
49301197824
49301203256
49301208505
49301212960
49301219430
49301224679
49301231027
49301235421
49301241830
49301247323
49301253915
49301260140
49301265145
49301270089
49301275033
49301280709
49301285775
49301293344
49301299325
49301303903
49301309457
49301314218
49301320687
49301326608
49301332528
49301337960
49301342843
49301348824
49301354134
49301358834
49301364754
49301370065
49301375375
49301381295
49301387704
49301393136
49301398629
49301404854
49301410409
49301416268
49301422982
49301428353
49301433785
49301439950
49301444649
49301450814
49301458016
49301463631
49301468087
49301475594
49301479500
49301486397
49301491646
49301497017
49301503182
49301509346
49301514656
49301520516
49301526986
49301532112
49301537117
49301543099
49301548226
49301553475
49301558174
49301564949
49301568917
49301575630
49301580635
49301586312
49301592903
49301598519
49301602730
49301609566
49301613350
49301619759
49301625618
49301631172
49301635689
49301641609
49301646797
49301653633
49301659370
49301664558
49301669441
49301675606
49301679695
49301685615
49301691841
49301696724
49301703621
49301708565
49301713997
49301719185
49301725166
49301731270
49301736336
49301743171
49301749885
49301754463
49301759651
49301767769
49301772712
49301778084
49301784065
49301789314
49301794990
49301802192
49301808174
49301813179
49301818977
49301824958
49301830085
49301834663
49301842109
49301846504
49301852973
49301857978
49301862434
49301868659
49301874092
49301879218
49301886360
49301890998
49301896736
49301902534
49301907356
49301914131
49301918647
49301924506
49301929389
49301933662
49301939643
49301945319
49301950446
49301956611
49301961127
49301967109
49301970588
49301977668
49301984748
49301990058
49301996589
49302002387
49302008185
49302014045
49302020453
49302024848
49302031623
49302037482
49302042670
49302049018
49302054328
49302059699
49302066108
49302071906
49302076362
49302081916
49302087836
49302093268
49302099738
49302105353
49302111335
49302115546
49302121772
49302127204
49302134406
49302139594
49302145270
49302151496
49302157233
49302162238
49302168036
49302172858
49302180365
49302185736
49302192572
49302198432
49302203986
49302208136
49302215216
49302220404
49302225775
49302231879
49302237799
49302243781
49302249335
49302255560
49302260260
49302265692
49302271490
49302276373
49302282904
49302288641
49302293829
49302298895
49302304693
49302310126
49302315375
49302321539
49302327643
49302331793
49302337713
49302342413
49302348578
49302354315
49302359869
49302364813
49302369269
49302376288
49302380987
49302388617
49302393194
49302399115
49302404119
49302409857
49302415045
49302422064
49302428717
49302433844
49302439215
49302445196
49302450628
49302456610
49302462652
49302468267
49302473028
49302478094
49302484075
49302490545
49302495672
49302501714
49302506963
49302512457
49302518560
49302524664
49302530462
49302535528
49302541082
49302546209
49302552496
49302558294
49302564092
49302569158
49302576055
49302581731
49302586797
49302592412
49302597784
49302603826
49302608953
49302614446
49302620183
49302624761
49302630742
49302636480
49302641790
49302647649
49302654302
49302659429
49302665288
49302670537
49302676763
49302681402
49302687261
49302692022
49302696660
49302702459
49302709294
49302713262
49302718816
49302725469
49302729009
49302736150
49302740850
49302747563
49302753423
49302758489
49302763860
49302769475
49302774419
49302780156
49302785283
49302791081
49302795049
49302801396
49302806218
49302811833
49302819524
49302825810
49302830632
49302835210
49302840886
49302845219
49302849309
49302856633
49302861211
49302867009
49302871037
49302876897
49302881230
49302886784
49302893742
49302899724
49302905644
49302910710
49302916020
49302921391
49302925603
49302932133
49302938054
49302943181
49302947880
49302952580
49302958378
49302963505
49302970829
49302975163
49302980900
49302986271
49302990727
49302995976
49303002201
49303006230
49303012577
49303016972
49303022404
49303027287
49303032719
49303038822
49303043339
49303051029
49303055851
49303060307
49303065861
49303072148
49303077519
49303083439
49303088383
49303093266
49303099674
49303103642
49303110539
49303116947
49303121098
49303126164
49303131901
49303137760
49303142277
49303149052
49303154789
49303160160
49303165958
49303171268
49303176090
49303182377
49303187748
49303193546
49303199528
49303204288
49303210026
49303216801
49303222965
49303228824
49303233829
49303239017
49303244877
49303250431
49303256473
49303261539
49303267643
49303273075
49303279728
49303284366
49303290165
49303294742
49303301822
49303307376
49303313541
49303317264
49303325016
49303329166
49303336490
49303341739
49303347293
49303353336
49303358158
49303364017
49303370059
49303374454
49303381534
49303386783
49303391666
49303398563
49303402713
49303410648
49303415653
49303419742
49303425662
49303431094
49303436282
49303442447
49303447330
49303453677
49303460147
49303465091
49303471378
49303476504
49303482425
49303488101
49303494571
49303498721
49303504703
49303509707
49303515384
49303520022
49303525943
49303531558
49303538211
49303543948
49303550540
49303554507
49303560794
49303566714
49303570926
49303577700
49303584109
49303589480
49303595401
49303599978
49303606570
49303612307
49303617739
49303623355
49303629397
49303634829
49303639651
49303644656
49303650393
49303656130
49303661196
49303666079
49303670230
49303676089
49303683535
49303692751
49303699282
49303707400
49303715823
49303722903
49303730837
49303739443
49303747805
49303752627
49303762453
49303770083
49303777956
49303784487
49303792727
49303799380
49303805788
49303815554
49303822756
49303831301
49303838137
49303843935
49303850161
49303855105
49303860415
49303866579
49303871645
49303876589
49303881350
49303888247
49303893129
49303898439
49303903383
49303908571
49303913515
49303919741
49303925539
49303930422
49303935366
49303940554
49303945925
49303949892
49303955446
49303959902
49303966860
49303971865
49303977541
49303981081
49303987062
49303992250
49303998049
49304004518
49304008852
49304013857
49304019655
49304024538
49304029298
49304034486
49304040163
49304046266
49304051027
49304056703
49304062135
49304067445
49304072572
49304077028
49304083559
49304087953
49304093446
49304097475
49304103944
49304108583
49304113832
49304119813
49304125184
49304129762
49304135316
49304140687
49304145997
49304149232
49304156434
49304162538
49304167238
49304172975
49304177552
49304182924
49304188905
49304193177
49304200013
49304204347
49304209108
49304215760
49304220948
49304224671
49304230043
49304236207
49304242005
49304246339
49304251710
49304257569
49304261964
49304266725
49304272340
49304279054
49304282960
49304288819
49304294190
49304298707
49304304078
49304308778
49304314393
49304320252
49304325074
49304330323
49304334962
49304340028
49304344788
49304349793
49304356446
49304362000
49304365113
49304371888
49304375123
49304381959
49304386780
49304392579
49304398438
49304403565
49304408753
49304413331
49304418397
49304422974
49304428284
49304433350
49304439026
49304444642
49304449952
49304454590
49304460022
49304465577
49304472657
49304478028
49304483216
49304489502
49304495179
49304501038
49304506409
49304513184
49304518189
49304523865
49304530335
49304536133
49304541565
49304548279
49304555176
49304560181
49304566529
49304572266
49304578552
49304584351
49304591736
49304597107
49304603027
49304607910
49304613220
49304619690
49304625244
49304631165
49304636597
49304642334
49304646973
49304652527
49304657532
49304663513
49304668884
49304675537
49304680603
49304686157
49304692444
49304697815
49304702576
49304709411
49304714294
49304719665
49304726196
49304733215
49304738647
49304746093
49304752258
49304757446
49304763305
49304767700
49304774963
49304781799
49304786621
49304792785
49304797668
49304804321
49304809936
49304815918
49304821044
49304826049
49304831420
49304836730
49304842041
49304848510
49304854614
49304859008
49304866577
49304872497
49304877075
49304884704
49304888793
49304895812
49304901061
49304905883
49304912414
49304919128
49304923522
49304931823
49304937011
49304942138
49304948180
49304955871
49304960876
49304965514
49304972167
49304976623
49304982909
49304989013
49304994811
49305000243
49305005553
49305011230
49305015685
49305022033
49305027282
49305032836
49305038817
49305043273
49305048766
49305053893
49305060302
49305065123
49305071044
49305076354
49305081481
49305086608
49305092040
49305098082
49305103453
49305108702
49305115355
49305121093
49305127379
49305131652
49305138732
49305143859
49305149352
49305155455
49305160521
49305165892
49305172606
49305176879
49305183409
49305190184
49305194151
49305200194
49305205260
49305211913
49305217955
49305222350
49305228026
49305233885
49305238829
49305246336
49305251829
49305257750
49305262755
49305268736
49305275206
49305280699
49305285948
49305290892
49305296446
49305301268
49305305113
49305311522
49305318663
49305324034
49305328856
49305334837
49305339171
49305345091
49305350035
49305357054
49305363096
49305367552
49305372191
49305377378
49305384275
49305388853
49305394896
49305401182
49305406248
49305411985
49305415831
49305421141
49305428221
49305433470
49305439390
49305443968
49305449583
49305454954
49305460813
49305465757
49305471983
49305477171
49305482298
49305487669
49305492552
49305498411
49305504942
49305509519
49305515196
49305519712
49305524656
49305531126
49305535276
49305541929
49305546568
49305552122
49305557310
49305560850
49305566404
49305572019
49305578611
49305583127
49305589048
49305592344
49305598264
49305604917
49305609311
49305614377
49305619138
49305624875
49305630369
49305635434
49305640073
49305646848
49305651792
49305658139
49305664243
49305669675
49305676633
49305681577
49305688230
49305693296
49305698789
49305705136
49305711728
49305715940
49305723813
49305729550
49305735288
49305740781
49305746640
49305752133
49305758115
49305763364
49305768491
49305773313
49305779538
49305785764
49305791806
49305797421
49305802243
49305807614
49305813718
49305818234
49305823605
49305831418
49305837216
49305842099
49305847043
49305853451
49305859921
49305865720
49305870663
49305876889
49305882870
49305888608
49305894040
49305898617
49305904599
49305910519
49305915890
49305921322
49305925717
49305932736
49305937802
49305944455
49305951535
49305956234
49305961239
49305967526
49305973813
49305979306
49305983212
49305989010
49305995358
49305999447
49306005612
49306010678
49306015866
49306022335
49306029232
49306034115
49306039303
49306045468
49306050472
49306055844
49306060299
49306066036
49306072079
49306077450
49306084164
49306088680
49306094479
49306100948
49306106503
49306112362
49306118404
49306122860
49306129513
49306135983
49306141476
49306148006
49306153316
49306158260
49306164120
49306170284
49306175411
49306180660
49306186642
49306192196
49306197262
49306203487
49306208675
49306214901
49306219967
49306227230
49306233028
49306239681
49306244564
49306250301
49306256466
49306262813
49306268978
49306273372
49306279659
49306285701
49306290279
49306296077
49306302364
49306306758
49306313716
49306317501
49306323299
49306329219
49306335445
49306340084
49306345149
49306352596
49306357967
49306363155
49306368648
49306374507
49306379817
49306386470
49306390926
49306396968
49306402156
49306408321
49306413387
49306418025
49306423152
49306429683
49306435176
49306440547
49306445735
49306451900
49306457393
49306462276
49306467525
49306473628
49306479549
49306484370
49306490840
49306495845
49306501216
49306506282
49306511531
49306517451
49306523799
49306528743
49306534541
49306541194
49306548640
49306553401
49306558772
49306565974
49306570430
49306576533
49306581233
49306587825
49306594111
49306599177
49306605159
49306611750
49306616389
49306621943
49306629512
49306633845
49306640071
49306645930
49306650752
49306656733
49306662715
49306668025
49306673029
49306678217
49306686335
49306691706
49306695918
49306702326
49306706416
49306709956
49306715632
49306720576
49306724787
49306729426
49306734309
49306739741
49306743403
49306746455
49306749995
49306755122
49306758601
49306762568
49306766474
49306770197
49306773859
49306777460
49306781855
49306786494
49306791315
49306794550
49306798884
49306803766
49306807429
49306811457
49306815912
49306820185
49306824396
49306827753
49306833979
49306837763
49306843866
49306847590
49306851435
49306855646
49306860590
49306864924
49306869257
49306873652
49306876825
49306882135
49306886408
49306891108
49306896234
49306899836
49306904596
49306908808
49306913446
49306919001
49306923395
49306927667
49306932184
49306936579
49306940485
49306946161
49306950189
49306954523
49306959039
49306963556
49306968195
49306972772
49306977045
49306982599
49306986322
49306991144
49306995722
49307000421
49307003595
49307007990
49307012445
49307016718
49307020624
49307025323
49307030634
49307035211
49307040094
49307043451
49307047845
49307052606
49307056512
49307060968
49307065729
49307070734
49307074762
49307078058
49307082391
49307086053
49307090082
49307094781
49307098993
49307102777
49307106195
49307110162
49307115350
49307119989
49307124627
49307128106
49307131707
49307136102
49307139276
49307143121
49307146844
49307151910
49307156121
49307159295
49307163202
49307167718
49307171991
49307176873
49307180413
49307184930
49307188165
49307191949
49307197137
49307201348
49307205499
49307209527
49307212457
49307217218
49307222650
49307227044
49307231805
49307235406
49307239862
49307242791
49307247247
49307253411
49307257195
49307261224
49307265252
49307269525
49307273492
49307277215
49307280877
49307285333
49307289544
49307293939
49307297356
49307301812
49307307244
49307311395
49307316094
49307319817
49307325677
49307330193
49307334405
49307338494
49307343133
49307346856
49307351128
49307354851
49307359246
49307364007
49307368890
49307373345
49307376946
49307381829
49307387017
49307391167
49307395501
49307400200
49307403802
49307408074
49307413140
49307417840
49307422173
49307426384
49307430413
49307434685
49307439446
49307442742
49307447991
49307450982
49307455437
49307459954
49307463005
49307468499
49307473626
49307478081
49307482537
49307486199
49307490105
49307495354
49307499626
49307504753
49307510002
49307513359
49307518303
49307521721
49307526055
49307531365
49307536247
49307540520
49307545098
49307549858
49307554619
49307559502
49307562920
49307567070
49307570854
49307575249
49307577873
49307582390
49307586113
49307589714
49307593254
49307596184
49307600945
49307604057
49307606987
49307610161
49307612968
49307616386
49307619377
49307622307
49307624626
49307627556
49307630486
49307632805
49307635063
49307637138
49307639580
49307641716
49307644096
49307646904
49307648735
49307650932
49307653191
49307655266
49307657280
49307659172
49307661064
49307662956
49307665092
49307666618
49307668571
49307670647
49307672905
49307674736
49307676750
49307678703
49307680595
49307682793
49307684868
49307687187
49307689445
49307691398
49307693352
49307695305
49307697441
49307699272
49307701164
49307703300
49307705253
49307707145
49307709343
49307711113
49307712822
49307714653
49307716667
49307718742
49307720817
49307722648
49307724968
49307726982
49307728813
49307731071
49307732963
49307735100
49307737053
49307739067
49307741264
49307743339
49307745170
49307747001
49307748832
49307751274
49307753166
49307755058
49307756889
49307759147
49307761222
49307762748
49307764824
49307766777
49307769157
49307771049
49307773002
49307774955
49307776847
49307779045
49307780693
49307783195
49307785087
49307786979
49307788688
49307790763
49307792839
49307794853
49307796928
49307798698
49307800468
49307802726
49307804557
49307806571
49307808403
49307810295
49307812004
49307813896
49307815849
49307817863
49307819755
49307821586
49307823417
49307825553
49307827384
49307829399
49307831352
49307833305
49307835685
49307837516
49307839530
49307841545
49307843437
49307845634
49307847587
49307849479
49307851615
49307853568
49307855644
49307857414
49307859367
49307861564
49307863517
49307865348
49307867240
49307869254
49307871269
49307873100
49307875358
49307877189
49307879508
49307881278
49307883537
49307885368
49307887321
49307889701
49307891593
49307893852
49307895805
49307898063
49307899894
49307901786
49307903861
49307905875
49307907584
49307909476
49307911552
49307913810
49307915702
49307917655
49307919608
49307921561
49307923148
49307925101
49307927238
49307929252
49307930961
49307932609
49307934562
49307936576
49307938529
49307940787
49307942496
49307944938
49307946830
49307948661
49307950492
49307952628
49307954887
49307956657
49307958610
49307960502
49307962272
49307964164
49307965995
49307967887
49307970328
49307972220
49307974174
49307976371
49307978385
49307980216
49307982169
49307984183
49307985892
49307988395
49307990165
49307992179
49307994193
49307996085
49307998466
49308000358
49308002494
49308004569
49308006278
49308008414
49308010428
49308012443
49308014090
49308015983
49308017936
49308019950
49308021842
49308023856
49308025809
49308027701
49308029654
49308031852
49308033744
49308036002
49308037711
49308039542
49308041800
49308043815
49308046012
49308047904
49308049979
49308051871
49308053885
49308056266
49308058036
49308059867
49308062003
49308063956
49308066092
49308067984
49308069693
49308071585
49308073783
49308075797
49308078177
49308080069
49308082267
49308084159
49308085990
49308087760
49308090079
49308091849
49308093680
49308095755
49308097708
49308100089
49308102042
49308104178
49308105948
49308107779
49308109793
49308111685
49308113517
49308115409
49308117362
49308119803
49308121634
49308123587
49308125479
49308127310
49308128958
49308130973
49308133231
49308135062
49308136832
49308138663
49308140677
49308142813
49308144705
49308146903
49308148673
49308150504
49308152884
49308154715
49308156973
49308158804
49308161185
49308163199
49308165213
49308167349
49308169119
49308170950
49308172904
49308174735
49308176688
49308178641
49308180411
49308182181
49308184256
49308186209
49308188040
49308189932
49308191885
49308194022
49308196768
49308198477
49308200430
49308202506
49308204825
49308206717
49308208609
49308210501
49308212881
49308214896
49308216849
49308218558
49308220938
49308222830
49308224600
49308226492
49308228873
49308230765
49308232718
49308234610
49308236685
49308238760
49308240591
49308242728
49308244986
49308246878
49308248709
49308250540
49308252798
49308254813
49308256644
49308258902
49308260794
49308263052
49308265127
49308267142
49308269339
49308271231
49308273306
49308275137
49308277212
49308278860
49308280813
49308282950
49308284903
49308286734
49308288504
49308290518
49308292288
49308294302
49308296499
49308298330
49308300100
49308302176
49308304312
49308306570
49308308462
49308310537
49308312552
49308314505
49308316275
49308318350
49308320608
49308322622
49308324637
49308326712
49308328726
49308330984
49308332693
49308334707
49308336721
49308338553
49308340567
49308342764
49308344717
49308346731
49308348684
49308350637
49308352652
49308354666
49308356619
49308358694
49308360891
49308362967
49308364920
49308366751
49308368826
49308370840
49308372854
49308375113
49308377005
49308378897
49308380606
49308382803
49308384878
49308386892
49308388723
49308390615
49308392385
49308394278
49308396170
49308398184
49308400076
49308401724
49308403677
49308405569
49308407644
49308409658
49308411489
49308413442
49308415640
49308417532
49308419485
49308421560
49308423330
49308425466
49308427725
49308429617
49308431936
49308433889
49308435720
49308437734
49308439504
49308441458
49308443411
49308445303
49308447256
49308449270
49308451467
49308453665
49308455557
49308457510
49308459402
49308461965
49308463796
49308465749
49308467703
49308470083
49308471914
49308474050
49308476248
49308478018
49308479971
49308481985
49308483816
49308485891
49308487966
49308489980
49308491811
49308493642
49308495779
49308497610
49308499441
49308501272
49308503164
49308504995
49308506948
49308509023
49308511037
49308512807
49308514516
49308516531
49308518850
49308520803
49308522817
49308524770
49308526907
49308529226
49308531118
49308532949
49308535207
49308537344
49308539358
49308541128
49308543142
49308544973
49308546865
49308548940
49308550893
49308552663
49308554677
49308556509
49308558401
49308560476
49308562490
49308564321
49308566213
49308568044
49308570363
49308572622
49308574453
49308576711
49308578786
49308580923
49308582754
49308585012
49308587270
49308589223
49308590993
49308592824
49308595205
49308597280
49308599172
49308601064
49308602834
49308605092
49308606801
49308608754
49308610525
49308612600
49308614858
49308616628
49308618581
49308620839
49308622732
49308624929
49308626699
49308629079
49308631337
49308632924
49308635183
49308637075
49308639272
49308641347
49308643117
49308645131
49308646840
49308649282
49308651174
49308652883
49308654592
49308656667
49308658681
49308660512
49308662770
49308664785
49308666738
49308668508
49308670461
49308672536
49308674245
49308676259
49308678212
49308680593
49308682973
49308685170
49308687001
49308689138
49308691091
49308693410
49308695424
49308697255
49308699208
49308701039
49308703359
49308705312
49308707204
49308708974
49308710927
49308712758
49308714650
49308716970
49308718984
49308720937
49308722707
49308724477
49308726857
49308728810
49308731130
49308733083
49308735036
49308737111
49308739064
49308741323
49308743031
49308745046
49308746755
49308748708
49308751027
49308752980
49308755055
49308756947
49308758717
49308760976
49308762929
49308764638
49308766530
49308768422
49308770375
49308772206
49308774342
49308776235
49308778127
49308779897
49308781728
49308783925
49308785878
49308788258
49308790273
49308792226
49308794423
49308796254
49308798207
49308800160
49308801930
49308804433
49308806447
49308808400
49308810414
49308812428
49308814442
49308816579
49308818227
49308820241
49308822133
49308824025
49308826405
49308828419
49308830312
49308832143
49308833913
49308835988
49308838185
49308839894
49308842091
49308843861
49308845814
49308848317
49308850148
49308852406
49308854481
49308856496
49308858510
49308860402
49308862416
49308864369
49308866139
49308868031
49308870045
49308871693
49308873707
49308875844
49308877797
49308879689
49308881764
49308883595
49308885548
49308887684
49308889943
49308891774
49308893605
49308895863
49308897816
49308900014
49308902089
49308904286
49308906361
49308908314
49308910267
49308912098
49308914479
49308916554
49308918629
49308920277
49308922291
49308924305
49308926259
49308927968
49308929982
49308931813
49308933644
49308935475
49308937489
49308939381
49308941334
49308943043
49308944996
49308947377
49308949147
49308951222
49308953053
49308954884
49308957447
49308959156
49308961171
49308963124
49308964955
49308966847
49308968739
49308970570
49308972340
49308974171
49308975941
49308977955
49308979908
49308981739
49308983876
49308985829
49308987660
49308989430
49308991505
49308993275
49308995289
49308997181
49308999501
49309001393
49309003346
49309005665
49309007496
49309009571
49309011585
49309014027
49309015797
49309017811
49309019947
49309021778
49309023854
49309025746
49309027821
49309029652
49309031422
49309033375
49309035267
49309037159
49309038990
49309040821
49309043080
49309045094
49309047047
49309048878
49309050831
49309052784
49309055164
49309057179
49309059010
49309060963
49309062977
49309064869
49309067494
49309069203
49309071278
49309073109
49309074940
49309076954
49309078968
49309080799
49309082508
49309084461
49309086475
49309088306
49309090382
49309092091
49309094227
49309096058
49309097706
49309099842
49309101612
49309103565
49309105518
49309107227
49309109608
49309111500
49309113758
49309116077
49309118214
49309120289
49309122364
49309124500
49309126331
49309128406
49309130665
49309132679
49309134449
49309136219
49309138233
49309140003
49309142078
49309144092
49309146107
49309147877
49309149769
49309151600
49309153797
49309155750
49309158253
49309159962
49309161976
49309164295
49309166065
49309168323
49309170154
49309172108
49309173878
49309176197
49309178272
49309180225
49309182117
49309183948
49309185840
49309187855
49309189869
49309191700
49309193775
49309195789
49309197559
49309199512
49309201648
49309203663
49309205616
49309207325
49309209705
49309211719
49309213794
49309215809
49309217701
49309220081
49309221851
49309223865
49309225940
49309228016
49309230152
49309232227
49309233997
49309236133
49309237964
49309240039
49309241871
49309244007
49309246021
49309247913
49309249805
49309251819
49309254017
49309256092
49309258167
49309259998
49309262378
49309264453
49309266162
49309268360
49309270374
49309272937
49309274829
49309277088
49309279285
49309281421
49309283374
49309285511
49309287769
49309289783
49309291797
49309293689
49309295642
49309297840
49309299671
49309301746
49309303577
49309305530
49309308155
49309309925
49309312000
49309314014
49309316028
49309318286
49309320239
49309322559
49309324817
49309326770
49309329090
49309330982
49309332996
49309335254
49309337085
49309339221
49309341113
49309343189
49309345142
49309346851
49309348865
49309350696
49309352710
49309354846
49309356616
49309358631
49309360462
49309362537
49309364551
49309366443
49309368335
49309370105
49309372119
49309374378
49309376392
49309378467
49309380542
49309382251
49309384387
49309386462
49309388232
49309390247
49309392200
49309394214
49309396106
49309398059
49309400012
49309401843
49309403980
49309405872
49309407886
49309409839
49309411792
49309413684
49309416492
49309418384
49309420337
49309422473
49309424548
49309426807
49309428821
49309430713
49309433215
49309435229
49309437305
49309439319
49309441699
49309443530
49309445544
49309447681
49309449756
49309451831
49309453845
49309455798
49309457690
49309459521
49309461658
49309463611
49309465869
49309467639
49309469836
49309471850
49309473926
49309476123
49309478076
49309480212
49309482043
49309484179
49309486438
49309488208
49309490222
49309492053
49309494555
49309496448
49309498340
49309500232
49309502002
49309504077
49309505908
49309507861
49309509814
49309511401
49309513659
49309515429
49309517566
49309519458
49309521350
49309523303
49309525256
49309527514
49309529406
49309531299
49309533252
49309535205
49309537280
49309539111
49309541064
49309542956
49309544909
49309547107
49309548877
49309550647
49309552539
49309554858
49309556750
49309558642
49309560412
49309562548
49309564318
49309566394
49309568530
49309570422
49309572253
49309574389
49309576403
49309578601
49309580432
49309582995
49309584948
49309586962
49309588793
49309590747
49309593188
49309595080
49309596911
49309598986
49309600817
49309602832
49309604907
49309606921
49309608996
49309610888
49309612841
49309614672
49309617053
49309618823
49309621508
49309623522
49309625414
49309627551
49309629565
49309631701
49309633776
49309635729
49309637988
49309640063
49309641955
49309643969
49309646166
49309648058
49309650012
49309651843
49309654223
49309656359
49309658129
49309660021
49309661913
49309663928
49309665698
49309667590
49309669726
49309671679
49309673510
49309675402
49309677416
49309679919
49309681811
49309684008
49309685961
49309688158
49309690417
49309692431
49309694201
49309696276
49309698473
49309700610
49309702563
49309704516
49309706469
49309708422
49309710314
49309712328
49309714342
49309715990
49309717944
49309719958
49309722338
49309724230
49309726366
49309728258
49309730334
49309732409
49309734484
49309736864
49309738818
49309740771
49309742724
49309744799
49309747057
49309749010
49309750902
49309752917
49309754809
49309757006
49309758959
49309760851
49309762926
49309765002
49309766772
49309768603
49309770800
49309772936
49309775072
49309777209
49309779040
49309781481
49309783678
49309785814
49309787584
49309789293
49309791796
49309793566
49309795397
49309797411
49309799669
49309801745
49309803698
49309805590
49309807421
49309809313
49309811083
49309813036
49309814867
49309816759
49309818590
49309820482
49309822497
49309824267
49309826098
49309828173
49309830126
49309832445
49309834520
49309836351
49309838182
49309839953
49309842211
49309844286
49309846117
49309848131
49309850023
49309852221
49309854052
49309855883
49309857775
49309859728
49309861742
49309863756
49309866014
49309867846
49309869982
49309871813
49309874071
49309875841
49309878038
49309880236
49309882067
49309884447
49309886461
49309888231
49309890245
49309892321
49309894579
49309896410
49309898363
49309900438
49309902452
49309904344
49309906114
49309908373
49309910204
49309912096
49309914049
49309916002
49309918321
49309920519
49309922472
49309924425
49309926317
49309928758
49309930528
49309932176
49309934557
49309936449
49309938341
49309940233
49309942858
49309944628
49309946459
49309948351
49309950243
49309952440
49309954271
49309956102
49309958055
49309959947
49309962084
49309963976
49309965807
49309967638
49309969652
49309971544
49309973375
49309975267
49309977342
49309979295
49309981188
49309983080
49309985521
49309987352
49309989122
49309991075
49309993028
49309995287
49309997301
49309999193
49310001024
49310002977
49310004869
49310006822
49310009080
49310010789
49310012926
49310015062
49310017076
49310018968
49310021043
49310022752
49310024889
49310026781
49310029039
49310030870
49310032701
49310034959
49310036851
49310038805
49310040697
49310043199
49310045091
49310046861
49310049058
49310051073
49310052721
49310054674
49310056627
49310058519
49310060533
49310062791
49310064683
49310066575
49310068284
49310070177
49310072252
49310074083
49310076036
49310077867
49310079942
49310082139
49310084093
49310086351
49310088243
49310090257
49310092332
49310094041
49310096300
49310098497
49310100206
49310102098
49310104112
49310106065
49310107957
49310110032
49310111924
49310113939
49310115892
49310117906
49310120164
49310122117
49310124437
49310126512
49310128404
49310130540
49310132798
49310134996
49310136827
49310139024
49310140977
49310143052
49310144883
49310146959
49310149034
49310150804
49310152940
49310154771
49310156785
49310158860
49310160691
49310162950
49310164598
49310166734
49310168626
49310170640
49310172898
49310174791
49310176927
49310178819
49310180772
49310183335
49310185289
49310187608
49310189622
49310191880
49310193772
49310195909
49310197557
49310199449
49310201402
49310203233
49310205308
49310207139
49310209031
49310210984
49310212815
49310215013
49310216783
49310218736
49310220506
49310222581
49310224839
49310226609
49310228501
49310230638
49310233201
49310235398
49310237351
49310239243
49310241624
49310243455
49310245347
49310247361
49310249436
49310251389
49310253526
49310255235
49310257005
49310259263
49310261155
49310262986
49310265122
49310267198
49310269456
49310271226
49310273179
49310275620
49310277390
49310279466
49310281358
49310283677
49310285508
49310287278
49310289170
49310291062
49310293259
49310295091
49310297044
49310299119
49310300950
49310303086
49310304856
49310306992
49310308945
49310310960
49310312485
49310314378
49310316331
49310318467
49310320298
49310322373
49310324326
49310326829
49310328843
49310330979
49310332810
49310334702
49310337022
49310338975
49310340806
49310342820
49310344712
49310346604
49310348557
49310350388
49310352280
49310354355
49310355881
49310357834
49310359849
49310361741
49310363572
49310365403
49310367234
49310369431
49310371323
49310373582
49310375474
49310377488
49310379807
49310381760
49310383896
49310385789
49310387742
49310389634
49310391465
49310393357
49310395249
49310397141
49310399277
49310400986
49310403061
49310404892
49310406601
49310408555
49310410508
49310412583
49310414292
49310416123
49310418076
49310419846
49310422043
49310423996
49310426316
49310428208
49310430100
49310432175
49310434128
49310436142
49310438096
49310440049
49310441819
49310443772
49310445847
49310447617
49310449692
49310451462
49310453415
49310455674
49310457505
49310459336
49310461289
49310463364
49310465561
49310467453
49310469590
49310471482
49310473740
49310475693
49310477524
49310479599
49310481491
49310483506
49310485459
49310487534
49310489365
49310491257
49310493088
49310494919
49310497055
49310498886
49310500778
49310502976
49310505051
49310506760
49310508835
49310511154
49310513352
49310515305
49310517685
49310519638
49310522080
49310524033
49310526169
49310528000
49310529831
49310531784
49310534104
49310536057
49310537766
49310539963
49310541916
49310543991
49310546127
49310548020
49310550034
49310551865
49310553940
49310555893
49310557724
49310559677
49310561752
49310564072
49310566025
49310568039
49310570419
49310572434
49310574509
49310576645
49310578842
49310580734
49310582687
49310584641
49310586411
49310588486
49310590378
49310592148
49310594345
49310596176
49310598251
49310600021
49310602097
49310603989
49310606003
49310608383
49310610153
49310612473
49310614426
49310616745
49310618576
49310620590
49310622909
49310624863
49310626999
49310628891
49310631454
49310633285
49310635361
49310637375
49310639267
49310641281
49310643234
49310645309
49310647140
49310648849
49310651352
49310653427
49310655441
49310657455
49310659347
49310661362
49310663437
49310665573
49310668014
49310670090
49310671921
49310673813
49310676193
49310678268
49310680160
49310682236
49310684006
49310686020
49310688034
49310690109
49310692001
49310693954
49310695846
49310697738
49310699936
49310701828
49310703598
49310705551
49310707687
49310710006
49310711776
49310713913
49310715805
49310718063
49310720382
49310722213
49310724106
49310726059
49310727951
49310730209
49310732162
49310734176
49310736313
49310738205
49310739975
49310741928
49310743759
49310746017
49310748153
49310749862
49310751693
49310754074
49310756088
49310758163
49310760177
49310762191
49310764144
49310766220
49310768600
49310770553
49310772506
49310774215
49310776107
49310778488
49310780319
49310782333
49310784225
49310785995
49310788131
49310790084
49310791793
49310793685
49310795455
49310797531
49310799240
49310801559
49310803390
49310805343
49310807418
49310809188
49310811202
49310813095
49310815170
49310817001
49310818771
49310821090
49310822921
49310824935
49310827133
49310828964
49310831039
49310832870
49310834823
49310836654
49310838485
49310840377
49310842513
49310844528
49310846237
49310848129
49310850143
49310852218
49310854110
49310856002
49310857833
49310860214
49310862045
49310864181
49310865829
49310867782
49310869735
49310871627
49310873824
49310875777
49310877548
49310879440
49310881454
49310883285
49310885055
49310887069
49310888961
49310890670
49310892562
49310894332
49310896407
49310898421
49310900436
49310902328
49310904159
49310906417
49310908248
49310910262
49310912154
49310914107
49310916061
49310917770
49310919845
49310921615
49310923385
49310925155
49310927047
49310928939
49310930831
49310932906
49310934859
49310936812
49310939010
49310940841
49310942611
49310944564
49310946273
49310948470
49310950545
49310952560
49310954391
49310956466
49310958358
49310960189
49310962447
49310964522
49310966231
49310968368
49310970138
49310972396
49310974532
49310976180
49310978194
49310980086
49310982100
49310984115
49310986190
49310988082
49310990096
49310992293
49310994246
49310996444
49310998336
49311000045
49311002242
49311004195
49311006392
49311008284
49311010421
49311012679
49311014571
49311016768
49311018783
49311020675
49311022628
49311024642
49311026595
49311028792
49311030501
49311032271
49311034224
49311036055
49311037947
49311039840
49311041732
49311043563
49311045455
49311047408
49311049300
49311051131
49311053450
49311055220
49311057235
49311059310
49311061263
49311063155
49311064864
49311066634
49311068465
49311070235
49311072249
49311074019
49311076522
49311078109
49311080184
49311082259
49311084334
49311086287
49311088057
49311089827
49311091780
49311094344
49311096358
49311098250
49311100203
49311102156
49311104415
49311106307
49311108443
49311110396
49311112410
49311114241
49311116622
49311118697
49311120650
49311122481
49311124556
49311126570
49311128707
49311130477
49311132674
49311134566
49311136580
49311138655
49311140791
49311142867
49311144881
49311146834
49311148787
49311151045
49311153060
49311154891
49311156966
49311159102
49311161726
49311163619
49311165511
49311167769
49311169722
49311171858
49311173628
49311175581
49311177718
49311179732
49311181563
