49344652852
49344658223
49344663533
49344669575
49344674763
49344680439
49344686970
49344692952
49344698689
49344704792
49344711140
49344716084
49344723530
49344728779
49344734700
49344742085
49344749409
49344755879
49344762104
49344766926
49344776692
49344783345
49344789692
49344796101
49344802082
49344809895
49344815144
49344822468
49344828510
49344835468
49344841572
49344847187
49344854878
49344861286
49344868610
49344875141
49344881672
49344887592
49344894794
49344901325
49344908405
49344914875
49344922199
49344929096
49344935016
49344942646
49344949055
49344955585
49344963276
49344969745
49344976581
49344982135
49344990070
49344997699
49345004779
49345012104
49345019367
49345025837
49345033588
49345042316
49345048297
49345054889
49345063922
49345069599
49345077228
49345082782
49345091571
49345098651
49345107196
49345113544
49345119037
49345126911
49345132404
49345140949
49345147968
49345154376
49345161945
49345168964
49345176471
49345183734
49345190326
49345198566
49345205524
49345213092
49345218585
49345226092
49345232013
49345239276
49345245929
49345254352
49345260638
49345268084
49345275470
49345281085
49345289081
49345296039
49345303180
49345310077
49345316546
49345323260
49345330401
49345338397
49345342242
49345352862
49345359942
49345366961
49345373492
49345381365
49345388445
49345392962
49345403887
49345411028
49345418047
49345425555
49345431109
49345438860
49345446001
49345452654
49345461138
49345466631
49345475054
49345481219
49345490130
49345498247
49345507403
49345514605
49345520403
49345528460
49345536394
49345542803
49345550860
49345560320
49345567888
49345575213
49345582964
49345588457
49345595659
49345604082
49345614214
49345621294
49345629839
49345638201
49345646135
49345653154
49345661028
49345670610
49345679033
49345686296
49345694780
49345701616
49345707964
49345717912
49345722429
49345733293
49345742387
49345750383
49345756792
49345764848
49345771684
49345779314
49345788103
49345796648
49345803911
49345810625
49345820756
49345825517
49345835039
49345841936
49345851213
49345858842
49345868120
49345876664
49345885270
49345892961
49345899492
49345908586
49345915117
49345923845
49345930803
49345941056
49345948686
49345955278
49345964433
49345972550
49345980851
49345990251
49345999223
49346005631
49346014298
49346023148
49346031388
49346038712
49346048112
49346055192
49346065812
49346071915
49346082291
49346091019
49346099625
49346108720
49346117814
49346126053
49346133256
49346141617
49346148331
49346157975
49346166153
49346174759
49346179764
49346190751
49346196427
49346207169
49346216446
49346224991
49346233597
49346240372
49346250260
49346256607
49346266617
49346272721
49346282730
49346289932
49346300125
49346308548
49346315323
49346323746
49346334305
49346341690
49346349686
49346357742
49346364212
49346374161
49346383560
49346390457
49346399124
49346408279
49346415420
49346424881
49346430374
49346441360
49346449722
49346455826
49346465591
49346473953
49346483352
49346489761
49346498428
49346507705
49346513809
49346523452
49346532241
49346539505
49346549942
49346556900
49346567398
49346572891
49346582839
49346592910
49346600540
49346608108
49346616531
49346623428
49346630508
49346638076
49346646438
49346654128
49346661636
49346668960
49346676101
49346683608
49346690444
49346697829
49346706130
49346714919
49346722060
49346730483
49346738479
49346746840
49346753615
49346764724
49346773147
49346783217
49346790603
49346799147
49346806533
49346813857
49346823500
49346831374
49346839919
49346848098
49346856215
49346863173
49346870558
49346879653
49346888014
49346896010
49346901747
49346910597
49346915114
49346925246
49346934523
49346942458
49346950514
49346958144
49346964613
49346972304
49346980055
49346987746
49346993971
49347001601
49347009718
49347015578
49347024183
49347030043
49347039320
49347044325
49347052504
49347058668
49347064161
49347069288
49347074049
49347080763
49347088270
49347093885
49347100538
49347104811
49347110365
49347116468
49347122389
49347129347
49347133863
49347140760
49347146986
49347152296
49347158827
49347163160
49347171156
49347176588
49347182142
49347187391
49347192884
49347198377
49347203199
49347210462
49347217054
49347222425
49347227064
49347233717
49347239210
49347244825
49347250929
49347256178
49347262159
49347267713
49347273023
49347279127
49347286024
49347291090
49347297437
49347301343
49347306348
49347311964
49347317396
49347322156
49347327039
49347333570
49347337476
49347344800
49347349195
49347353772
49347360608
49347366163
49347371229
49347377210
49347381055
49347386792
49347393445
49347398328
49347404737
49347408765
49347414807
49347419141
49347425000
49347427686
49347435010
49347440137
49347444776
49347450269
49347455823
49347460950
49347464978
49347470960
49347477063
49347482068
49347487195
49347491956
49347497754
49347502698
49347507886
49347513867
49347519788
49347524548
49347529981
49347535352
49347539990
49347545422
49347551831
49347558484
49347563489
49347569653
49347577222
49347583386
49347588818
49347594861
49347599683
49347605359
49347611706
49347617322
49347623303
49347628552
49347634106
49347639660
49347645947
49347653210
49347658398
49347661816
49347669812
49347674450
49347678845
49347686352
49347689282
49347695202
49347701001
49347705456
49347712048
49347717358
49347722912
49347728710
49347735607
49347740795
49347746960
49347751354
49347759106
49347764172
49347769482
49347775036
49347779919
49347784863
49347792004
49347797802
49347802868
49347809033
49347813854
49347818981
49347825085
49347830517
49347835949
49347841930
49347847057
49347852428
49347857616
49347864513
49347871166
49347875378
49347882030
49347887096
49347892223
49347898632
49347902782
49347909679
49347914867
49347919811
49347924816
49347929088
49347936840
49347943249
49347947643
49347954784
49347959362
49347964184
49347970043
49347975170
49347982067
49347986278
49347991954
49347995861
49348001720
49348005931
49348012401
49348018261
49348023265
49348028514
49348033824
49348038463
49348043651
49348050426
49348055004
49348059886
49348063976
49348070445
49348075206
49348080760
49348086925
49348091869
49348097789
49348102977
49348107921
49348113170
49348117564
49348122813
49348128917
49348133312
49348139720
49348144298
49348149181
49348154247
49348160838
49348167064
49348172557
49348177013
49348182933
49348188609
49348193553
49348198436
49348203380
49348208690
49348213634
49348218516
49348224376
49348229747
49348234447
49348239696
49348245433
49348251353
49348256297
49348261058
49348267161
49348271983
49348276927
49348282054
49348287425
49348292796
49348297984
49348302806
49348307933
49348313609
49348316417
49348324534
49348330027
49348334971
49348340037
49348344981
49348349986
49348354808
49348359812
49348365306
49348371409
49348375620
49348383677
49348389414
49348395152
49348399729
49348405161
49348411204
49348416270
49348422434
49348428355
49348433543
49348439768
49348445933
49348451853
49348457346
49348463389
49348469065
49348474375
49348481150
49348486460
49348492869
49348497629
49348502817
49348508921
49348513193
49348520701
49348524119
49348530894
49348535898
49348540964
49348543833
49348550852
49348556284
49348561350
49348568796
49348572947
49348578806
49348583078
49348589121
49348593332
49348600534
49348605478
49348610544
49348615244
49348620127
49348625986
49348631235
49348636484
49348642160
49348647165
49348651743
49348660044
49348664743
49348670297
49348677011
49348682749
49348687814
49348692148
49348698557
49348703012
49348709787
49348713083
49348720285
49348725900
49348730783
49348735788
49348740671
49348745981
49348750864
49348756479
49348762155
49348767648
49348771677
49348778329
49348782358
49348787851
49348792001
49348799936
49348804941
49348809884
49348814706
49348819772
49348825815
49348829477
49348836191
49348841623
49348848092
49348851266
49348859140
49348866159
49348872018
49348877145
49348884042
49348889596
49348895333
49348900460
49348906198
49348911019
49348916513
49348922250
49348927682
49348932931
49348937997
49348942086
49348948007
49348952096
49348959847
49348963082
49348971078
49348976083
49348979684
49348986093
49348989999
49348996285
49349001779
49349006783
49349012704
49349017709
49349022469
49349027596
49349032784
49349039315
49349043526
49349048470
49349054391
49349057992
49349063607
49349068673
49349076180
49349080331
49349086190
49349091683
49349096627
49349101998
49349107003
49349112130
49349117196
49349122506
49349127450
49349133248
49349138619
49349143502
49349148812
49349154976
49349158516
49349164681
49349169503
49349174935
49349180245
49349185311
49349191170
49349196236
49349201973
49349207405
49349212410
49349217781
49349222908
49349227120
49349235482
49349240303
49349245247
49349250557
49349255440
49349260933
49349266304
49349271309
49349276924
49349283333
49349286751
49349294869
49349301033
49349304817
49349311775
49349316353
49349323372
49349328987
49349334358
49349340218
49349345528
49349351387
49349357063
49349362434
49349366768
49349374275
49349379829
49349383736
49349391060
49349396492
49349401253
49349407661
49349412483
49349415352
49349422371
49349428535
49349433662
49349440254
49349445625
49349450447
49349454536
49349460640
49349465522
49349471321
49349475776
49349481819
49349487251
49349492317
49349497810
49349502815
49349508796
49349513984
49349520027
49349526252
49349531135
49349535835
49349541023
49349546394
49349551399
49349557868
49349561775
49349567573
49349572944
49349578132
49349582221
49349590217
49349595466
49349600410
49349605720
49349610725
49349615730
49349620551
49349626350
49349631965
49349637031
49349641059
49349646613
49349652778
49349657661
49349662727
49349669807
49349674201
49349679145
49349684577
49349689460
49349694770
49349700080
49349706183
49349710151
49349717170
49349722114
49349726935
49349732245
49349737189
49349743537
49349748908
49349754767
49349759223
49349766059
49349772101
49349777350
49349782721
49349788337
49349793830
49349798346
49349804633
49349808905
49349815192
49349819464
49349826728
49349832282
49349837714
49349842902
49349848273
49349854254
49349859625
49349865485
49349871100
49349876532
49349880621
49349885687
49349890997
49349896063
49349900275
49349906561
49349910590
49349916876
49349921576
49349927191
49349932257
49349937201
49349943671
49349949408
49349954535
49349959906
49349964484
49349968573
49349975653
49349978766
49349986151
49349991827
49349996832
49350001776
49350007208
49350012152
49350016424
49350024176
49350029303
49350034186
49350039190
49350044195
49350049261
49350054327
49350060919
49350066595
49350071356
49350075445
49350082342
49350087408
49350092413
49350097906
49350102789
49350107916
49350112921
49350118109
49350123053
49350128179
49350133184
49350138922
49350144232
49350148870
49350154241
49350159918
49350164617
49350170782
49350175787
49350180486
49350184759
49350190496
49350195501
49350201605
49350206548
49350211431
49350217168
49350222295
49350228399
49350232183
49350238714
49350242498
49350248907
49350252935
49350258428
49350263250
49350271673
49350276372
49350282232
49350286931
49350291875
49350297552
49350302862
49350309148
49350313177
49350320012
49350324895
49350329900
49350334539
49350339605
49350344976
49350349859
49350354863
49350360662
49350367376
49350371831
49350377935
49350382329
49350390508
49350395757
49350400945
49350408513
49350412847
49350420049
49350425420
49350430364
49350435308
49350440312
49350444890
49350449773
49350454961
49350461858
49350467107
49350471379
49350476506
49350482366
49350487492
49350490422
49350498784
49350503178
49350508122
49350513799
49350518803
49350524785
49350530156
49350535588
49350540349
49350547124
49350550236
49350556645
49350562260
49350567326
49350573369
49350578679
49350584111
49350589482
49350595524
49350599553
49350604680
49350609990
49350616032
49350620671
49350626530
49350631535
49350637761
49350642827
49350647770
49350653447
49350659062
49350664433
49350669865
49350674931
49350678959
49350684758
49350688908
49350696782
49350700261
49350707768
49350713017
49350717961
49350722843
49350727787
49350732731
49350738407
49350743656
49350748905
49350754154
49350758305
49350764652
49350768864
49350775944
49350781681
49350786686
49350791813
49350796696
49350801396
49350806400
49350812321
49350818546
49350824406
49350829594
49350836735
49350842716
49350846622
49350853153
49350858952
49350865360
49350870121
49350877323
49350883060
49350888370
49350893131
49350899906
49350905094
49350909183
49350915348
49350919559
49350925480
49350929508
49350936893
49350942203
49350948368
49350953190
49350958316
49350963016
49350968143
49350974491
49350980289
49350985965
49350990116
49350996097
49351000309
49351005374
49351009403
49351018192
49351023563
49351028446
49351033695
49351038639
49351043827
49351048831
49351054813
49351060306
49351065860
49351070133
49351075931
49351080203
49351087039
49351092288
49351097537
49351102969
49351107913
49351113773
49351117618
49351123904
49351129214
49351134525
49351139774
49351145877
49351149905
49351156375
49351161136
49351166263
49351171939
49351177005
49351182864
49351188541
49351194400
49351198428
49351204227
49351208499
49351214969
49351218142
49351224978
49351230044
49351236270
49351241031
49351246035
49351251834
49351257449
49351262637
49351268069
49351272158
49351278506
49351283694
49351287783
49351294131
49351299746
49351304690
49351310244
49351315127
49351319705
49351324771
49351330447
49351335574
49351341799
49351347170
49351351809
49351357241
49351362795
49351366885
49351373416
49351378726
49351383853
49351389163
49351394106
49351399539
49351404543
49351410098
49351415347
49351420412
49351425723
49351430544
49351435915
49351441042
49351447207
49351453066
49351458620
49351463564
49351468813
49351473696
49351478518
49351483523
49351490053
49351495547
49351500673
49351506167
49351511172
49351515444
49351521792
49351525881
49351532351
49351538332
49351543398
49351548342
49351553286
49351557924
49351562929
49351569643
49351575319
49351579836
49351585146
49351589785
49351593996
49351600038
49351606386
49351611574
49351616823
49351621889
49351627077
49351631899
49351637087
49351641970
49351647035
49351652223
49351658205
49351663576
49351668093
49351673403
49351679567
49351682680
49351690187
49351695924
49351700807
49351705568
49351710512
49351716249
49351719911
49351726137
49351731935
49351737184
49351741335
49351747072
49351751100
49351757204
49351761415
49351768983
49351774354
49351779298
49351784669
49351789491
49351794130
49351799135
49351805604
49351809938
49351816347
49351819337
49351826173
49351831605
49351836427
49351842775
49351847902
49351853334
49351859071
49351864137
49351867799
49351874330
49351878480
49351886171
49351889527
49351896791
49351899903
49351906251
49351911744
49351916810
49351922731
49351928224
49351933412
49351938783
49351943788
49351949220
49351953126
49351958863
49351966126
49351971803
49351976808
49351979920
49351987428
49351991456
49351997620
49352002503
49352007630
49352013856
49352017762
49352023316
49352028626
49352034180
49352038392
49352045533
49352051942
49352057008
49352062073
49352067078
49352072327
49352077210
49352082093
49352087220
49352093629
49352097718
49352103699
49352107789
49352114869
49352118531
49352126099
49352131104
49352136414
49352140931
49352146302
49352152100
49352156800
49352162659
49352167054
49352173401
49352178650
49352183594
49352188904
49352193970
49352200379
49352205811
49352211853
49352216004
49352221985
49352226074
49352231568
49352235840
49352242981
49352246216
49352252564
49352257507
49352262818
49352268067
49352273132
49352280335
49352285828
49352291199
49352295288
49352300781
49352304810
49352310852
49352315125
49352323364
49352327759
49352332642
49352336121
49352342834
49352348633
49352354004
49352359985
49352364258
49352370361
49352374695
49352382385
49352388183
49352393860
49352398926
49352404602
49352410217
49352414428
49352421142
49352424072
49352431274
49352434143
49352442566
49352446960
49352453064
49352457214
49352461975
49352467712
49352473144
49352479248
49352483398
49352491149
49352494262
49352502563
49352507507
49352513366
49352518981
49352524475
49352531188
49352537292
49352542480
49352546752
49352553344
49352558105
49352563171
49352569763
49352575195
49352579528
49352584899
49352590759
49352594787
49352601196
49352606933
49352611877
49352617065
49352622741
49352628112
49352631957
49352638244
49352643737
49352649596
49352652526
49352660644
49352665282
49352670165
49352676818
49352682250
49352689025
49352695067
49352700133
49352706359
49352712096
49352717833
49352723571
49352729186
49352733642
49352740233
49352743224
49352749999
49352756347
49352761779
49352766478
49352771483
49352776549
49352782592
49352786681
49352791564
49352797057
49352802672
49352808348
49352814269
49352819396
49352825377
49352830443
49352836608
49352842345
49352847716
49352851805
49352857665
49352863585
49352868590
49352871520
49352879393
49352885314
49352890135
49352895934
49352899779
49352906004
49352910460
49352916930
49352922484
49352928038
49352932127
49352938536
49352943175
49352949217
49352953245
49352959654
49352965513
49352969237
49352975767
49352979674
49352985960
49352990172
49352996763
49353002073
49353007139
49353012083
49353018248
49353023131
49353028135
49353033751
49353039488
49353044798
49353050230
49353055235
49353059324
49353065062
49353069090
49353077330
49353081785
49353086729
49353091856
49353096861
49353102232
49353107359
49353113279
49353118467
49353124815
49353129026
49353135740
49353141966
49353146971
49353152952
49353158445
49353164915
49353170103
49353176939
49353181272
49353186521
49353192869
49353198545
49353203672
49353209531
49353215452
49353221128
49353226438
49353232603
49353238096
49353243040
49353248411
49353253416
49353257810
49353264463
49353270322
49353274961
49353280637
49353285642
49353292051
49353296384
49353301694
49353307248
49353313535
49353319639
49353322080
49353329282
49353334043
49353338498
49353343869
49353348142
49353355527
49353360288
49353364927
49353370603
49353374387
49353381467
49353387387
49353392026
49353397275
49353400693
49353406674
49353411130
49353416989
49353423093
49353426755
49353432248
49353437314
49353441892
49353447690
49353452329
49353458737
49353463986
49353468015
49353473447
49353477902
49353482419
49353487912
49353492917
49353498166
49353503537
49353506833
49353512204
49353519223
49353523862
49353530881
49353534787
49353540524
49353544675
49353550351
49353555722
49353560239
49353566342
49353572079
49353576169
49353581235
49353585568
49353591061
49353597287
49353602658
49353606564
49353611813
49353615170
49353621762
49353627499
49353632199
49353638974
49353642819
49353648495
49353652279
49353657834
49353662106
49353667782
49353674069
49353677853
49353683102
49353686642
49353692135
49353696530
49353702084
49353708493
49353713986
49353718441
49353722164
49353727963
49353732784
49353737484
49353743832
49353747677
49353753048
49353756649
49353761837
49353765988
49353772701
49353779110
49353782589
49353788265
49353792111
49353798458
49353802975
49353807247
49353813229
49353818600
49353822811
49353827389
49353833126
49353837643
49353843136
49353848507
49353853817
49353857540
49353862118
49353867245
49353871090
49353878780
49353883663
49353888363
49353893245
49353897152
49353902889
49353906612
49353914058
49353918880
49353923458
49353928280
49353932796
49353937069
49353942073
49353948665
49353955135
49353959896
49353964717
49353969356
49353973690
49353978206
49353984249
49353990596
49353995052
49353999752
49354004207
49354009090
49354013484
49354020931
49354026119
49354030879
49354035335
49354039485
49354045650
49354050594
49354055171
49354061214
49354066036
49354070552
49354075069
49354080623
49354085262
49354090511
49354096675
49354101436
49354105830
49354111324
49354115291
49354119380
49354126155
49354130672
49354136287
49354140742
49354146724
49354151790
49354156367
49354161555
49354167232
49354171687
49354177058
49354179927
49354187007
49354191096
49354197444
49354202632
49354206538
49354212703
49354216914
49354222102
49354226924
49354231685
49354238093
49354241633
49354247859
49354252925
49354257197
49354262019
49354268489
49354273310
49354277522
49354283747
49354288447
49354292964
49354297847
49354303889
49354308283
49354313533
49354318476
49354321833
49354327082
49354333491
49354339045
49354345149
49354349848
49354354487
49354358332
49354364863
49354367487
49354376521
49354382075
49354386836
49354390864
49354395564
49354400202
49354403803
49354410639
49354416315
49354421931
49354426325
49354430842
49354435725
49354439204
49354447382
49354452509
49354457697
49354462092
49354466608
49354471430
49354475031
49354481257
49354486933
49354491450
49354495905
49354500727
49354505854
49354510981
49354516962
49354521784
49354527460
49354531855
49354536493
49354540888
49354545771
49354551447
49354557795
49354562067
49354566156
49354570734
49354576227
49354580683
49354587152
49354591120
49354598078
49354603022
49354608087
49354612970
49354616876
49354624445
49354629022
49354634577
49354640253
49354645258
49354649347
49354654169
49354661676
49354666864
49354670953
49354677423
49354684564
49354688226
49354694879
49354702570
49354708429
49354714349
49354717584
49354725641
49354732233
49354737482
49354744562
49354751520
49354757501
49354762689
49354769769
49354775506
49354781793
49354788019
49354793451
49354799066
49354804315
49354810846
49354815790
49354821283
49354826104
49354832269
49354836419
49354843988
49354849725
49354855096
49354860650
49354866082
49354871392
49354876519
49354880670
49354888482
49354893975
49354898553
49354906121
49354911492
49354916680
49354921746
49354927117
49354932000
49354936212
49354943170
49354948541
49354953790
49354959893
49354965142
49354970330
49354975091
49354979607
49354987054
49354993584
49354998223
49355005364
49355010125
49355015557
49355021722
49355028130
49355032464
49355038689
49355045098
49355050164
49355056023
49355060418
49355067864
49355073540
49355079033
49355085320
49355090935
49355096184
49355100640
49355106926
49355112908
49355117852
49355123162
49355127984
49355133172
49355138604
49355143914
49355149224
49355155327
49355160271
49355165093
49355167961
49355176445
49355181328
49355186150
49355191460
49355196709
49355201409
49355206841
49355213127
49355216423
49355222710
49355226738
49355232537
49355238701
49355243645
49355248100
49355254692
49355260429
49355264336
49355270073
49355275505
49355281426
49355286614
49355292290
49355298149
49355303032
49355307854
49355312675
49355317924
49355322929
49355327629
49355334648
49355339714
49355345207
49355349968
49355355400
49355360161
49355364250
49355372001
49355375236
49355381950
49355385063
49355392936
49355398124
49355403007
49355407585
49355412529
49355418510
49355424003
49355429619
49355433830
49355438713
49355442802
49355451530
49355456779
49355461662
49355465995
49355471000
49355476615
49355481620
49355487480
49355492973
49355499382
49355505424
49355510734
49355516349
49355521903
49355526969
49355532524
49355538871
49355543998
49355549308
49355554679
49355559989
49355566337
49355573478
49355577750
49355583061
49355588920
49355593070
49355599113
49355601981
49355609733
49355614921
49355619926
49355625236
49355630057
49355635123
49355640189
49355648124
49355651603
49355659415
49355665458
49355670951
49355676078
49355681632
49355688590
49355694205
49355699393
49355702384
49355710074
49355714469
49355721061
49355725394
49355732169
49355736564
49355741813
49355747001
49355751090
49355757621
49355761771
49355768546
49355773551
49355778617
49355784354
49355789237
49355793997
49355798941
49355806327
49355810660
49355817008
49355823050
49355828482
49355834647
49355840689
49355846060
49355850577
49355857352
49355860343
49355867301
49355870108
49355877310
49355884085
49355889456
49355895071
49355899100
49355904471
49355908499
49355914358
49355918631
49355926443
49355932242
49355937125
49355942251
49355947195
49355952322
49355957693
49355964041
49355968252
49355975516
49355982168
49355987295
49355993826
49355997671
49356004385
49356008719
49356016287
49356020865
49356027273
49356031851
49356037039
49356043570
49356047659
49356053457
49356058889
49356064627
49356068838
49356073721
49356079214
49356085623
49356091604
49356096548
49356102102
49356107107
49356111746
49356116751
49356122976
49356128408
49356133535
49356137686
49356143545
49356147573
49356153738
49356157949
49356165456
49356170339
49356175405
49356180776
49356185781
49356191152
49356196462
49356202444
49356206716
49356213613
49356217031
49356224172
49356230581
49356236318
49356241811
49356247610
49356253530
49356256338
49356264028
49356269094
49356274160
49356279409
49356285940
49356290822
49356295095
49356301748
49356306569
49356312124
49356314870
49356322561
49356327871
49356332814
49356337941
49356342946
49356349111
49356353139
49356360158
49356364431
49356370229
49356374929
49356381093
49356384145
49356390798
49356396352
49356401662
49356407582
49356412831
49356417714
49356423146
49356427602
49356433034
49356439809
49356443288
49356450124
49356455129
49356460072
49356465993
49356469594
49356475880
49356481435
49356487355
49356491689
49356497243
49356501332
49356507680
49356513173
49356518300
49356524098
49356528920
49356533375
49356538258
49356544606
49356549611
49356556630
49356560170
49356567494
49356572255
49356577199
49356582448
49356587391
49356592763
49356597706
49356604054
49356609486
49356614064
49356619313
49356624196
49356628346
49356636525
49356642140
49356647694
49356652943
49356656544
49356663197
49356667042
49356673573
49356678028
49356684986
49356689198
49356695179
49356700794
49356705677
49356710987
49356718189
49356722767
49356728077
49356733631
49356737721
49356743153
49356747913
49356755055
49356760059
49356766102
49356770252
49356775257
49356781300
49356786671
49356791920
49356797535
49356803761
49356810230
49356815540
49356821644
49356827198
49356832691
49356837086
49356843922
49356850391
49356855579
49356860401
49356865589
49356871570
49356877247
49356882557
49356887806
49356893238
49356897449
49356903431
49356908252
49356914539
49356919300
49356924366
49356929493
49356934314
49356939624
49356944507
49356950245
49356956043
49356961841
49356966297
49356974659
49356980030
49356985706
49356990833
49356995166
49357002613
49357008228
49357013355
49357019153
49357024158
49357029712
49357035266
49357040332
49357046008
49357050403
49357056445
49357060901
49357064929
49357073718
49357077991
49357084216
49357088367
49357093433
49357098743
49357103503
49357110339
49357114795
49357121448
49357128162
49357133227
49357139819
49357144153
49357149768
49357154101
49357161243
49357164233
49357171313
49357176257
49357181201
49357187060
49357192187
49357197558
49357202746
49357207690
49357213061
49357218615
49357222827
49357230395
49357233874
49357240161
49357245471
49357251513
49357256030
49357261035
49357267382
49357273242
49357278369
49357282458
49357288134
49357292346
49357299182
49357304186
49357309191
49357314807
49357319872
49357325183
49357330065
49357334948
49357339953
49357346301
49357351733
49357357775
49357363757
49357369067
49357375597
49357381274
49357386767
49357391405
49357397997
49357403246
49357410082
49357415819
49357421435
49357426623
49357432238
49357437243
49357441332
49357448595
49357454394
49357459460
49357464831
49357469896
49357475939
49357481493
49357487291
49357493151
49357497912
49357502916
49357508104
49357514391
49357519701
49357524035
49357529406
49357534472
49357539782
49357546190
49357551622
49357556688
49357561754
49357566759
49357572374
49357577318
49357582506
49357587938
49357594286
49357598497
49357604723
49357609361
49357614183
49357619005
49357625597
49357631212
49357636095
49357640794
49357645860
49357651598
49357657030
49357663377
49357668443
49357673082
49357677110
49357682603
49357686876
49357693712
49357698778
49357703966
49357710924
49357714769
49357720811
49357726305
49357730394
49357735765
49357741929
49357747056
49357751878
49357756029
49357762315
49357767259
49357772386
49357778917
49357784349
49357789110
49357794481
49357799608
49357804857
49357809434
49357813524
49357820970
49357826341
49357831163
49357836106
49357841111
49357845933
49357850938
49357857225
49357862962
49357867723
49357873582
49357878709
49357881700
49357889024
49357892076
49357900010
49357905931
49357910996
49357915757
49357920579
49357925157
49357929978
49357936265
49357941026
49357948228
49357952927
49357959580
49357964707
49357969041
49357976182
49357981919
49357986802
49357992539
49357997971
49358003281
49358008713
49358015183
49358019517
49358025376
49358030564
49358035813
49358041001
49358045762
49358051438
49358058457
49358063096
49358068345
49358072922
49358078232
49358083359
49358087449
49358096055
49358100876
49358105698
49358110947
49358115891
49358120896
49358125962
49358132370
49358136582
49358142990
49358147202
49358153488
49358159470
49358164292
49358170273
49358175339
49358181015
49358186447
49358191941
49358195908
49358201157
49358205368
49358212998
49358216171
49358222641
49358228073
49358233078
49358238022
49358243088
49358248947
49358255966
49358260910
49358265060
49358271042
49358275253
49358281113
49358286484
49358292709
49358297348
49358302414
49358307541
49358312485
49358318100
49358323349
49358329758
49358333725
49358340561
49358346664
49358352218
49358356918
49358362228
49358368271
49358373642
49358379623
49358384140
49358389145
49358395126
49358400375
49358405807
49358411239
49358416732
49358420761
49358426620
49358430771
49358437301
49358440475
49358449203
49358454269
49358459335
49358464523
49358469589
49358474899
49358480270
49358486801
49358491928
49358496871
49358499679
49358506698
49358509750
49358517623
49358522933
49358528121
49358534713
49358538680
49358544967
49358548995
49358554794
49358558883
49358565536
49358571151
49358575973
49358580795
49358585860
49358591781
49358596603
49358601058
49358608016
49358613143
49358617171
49358622970
49358627059
49358633224
49358638290
49358644515
49358649032
49358654098
49358660445
49358664168
49358669784
49358675155
49358680892
49358685714
49358692489
49358697493
49358702376
49358705245
49358712935
49358723677
49358735030
49358745650
49358751143
49358756636
49358762130
49358767745
49358773970
49358780135
49358785506
49358792037
49358797591
49358804732
49358811751
49358817061
49358822493
49358828902
49358834029
49358839034
49358845931
49358849654
49358857222
49358863020
49358869246
49358875166
49358881392
49358898665
49358904646
49358910689
49358915633
49358922102
49358927046
49358933455
49358938032
49358943281
49358949141
49358954451
49358960737
49358966536
49358972029
49358976912
49358980940
49358987105
49358992842
49358997603
49359002913
49359008101
49359012983
49359017988
49359023298
49359028181
49359034407
49359039961
49359045454
49359051252
49359056196
49359060652
49359065657
49359071028
49359078291
49359082319
49359087019
49359092634
49359098066
49359103254
49359108930
49359114179
49359119612
49359125105
49359130842
49359135542
49359141889
49359147627
49359152876
49359158430
49359163984
49359168623
49359173750
49359178693
49359185468
49359190412
49359195051
49359199689
49359205610
49359212995
49359217512
49359224470
49359228803
49359233747
49359239728
49359244001
49359250043
49359255842
49359261152
49359266767
49359271772
49359276838
49359281171
49359287885
49359293134
49359299054
49359305402
49359309369
49359314618
49359318525
49359327069
49359332135
49359336835
49359341596
49359347089
49359352216
49359357282
49359363629
49359369733
49359373273
49359378583
49359383710
49359389936
49359394086
49359401654
49359405927
49359411664
49359416547
49359422040
49359426495
49359431561
49359437299
49359442853
49359447553
49359453229
49359459027
49359463483
49359467389
49359474591
49359480267
49359484906
49359490399
49359495892
49359501569
49359505719
49359512372
49359518292
49359523358
49359528424
49359532879
49359538251
49359542279
49359550763
49359556134
49359561261
49359567608
49359571637
49359577313
49359584454
49359589276
49359595623
49359600140
49359605511
49359609417
49359615582
49359621441
49359626324
49359632428
49359636456
49359642437
49359647869
49359654034
49359658673
49359665753
49359670330
49359674542
49359680584
49359686260
49359691570
49359696575
49359703411
49359708050
49359712261
49359719647
49359724407
49359729046
49359734539
49359739788
49359746990
49359752667
49359759319
49359764202
49359770306
49359776531
49359782269
49359788189
49359793804
49359801189
49359807659
49359812969
49359817974
49359824444
49359830974
49359836040
49359841717
49359848186
49359854107
49359859539
49359865520
49359871441
49359876568
49359882549
49359889263
49359894268
49359899639
49359905986
49359913433
49359918682
49359923809
49359929973
49359935283
49359940715
49359946453
49359950420
49359957805
49359962871
49359968303
49359974224
49359979778
49359985942
49359991680
49359998027
49360003459
49360009685
49360014873
49360019451
49360023540
49360030559
49360037212
49360041301
49360048198
49360053081
49360059306
49360065532
49360069560
49360075542
49360082133
49360086223
49360092387
49360098796
49360104533
49360110210
49360115520
49360121440
49360126994
49360131267
49360138164
49360142802
49360149455
49360154216
49360158427
49360164226
49360170634
49360176860
49360182414
49360188395
49360193217
49360198527
49360203776
49360210246
49360216777
49360222209
49360228129
49360231669
49360238383
49360244303
49360250712
49360256022
49360261576
49360267070
49360272746
49360277323
49360284037
49360289164
49360293986
49360300089
49360304057
49360310160
49360317362
49360321391
49360327982
49360333781
49360339091
49360344157
49360348368
49360355448
49360361185
49360365458
49360372782
49360377726
49360382914
49360388956
49360394755
49360400126
49360406473
49360412028
49360416971
49360423502
49360427836
49360434916
49360439738
49360444681
49360450724
49360454996
49360462626
49360468607
49360473673
49360479593
49360485270
49360490397
49360496927
49360502543
49360508036
49360512125
49360518290
49360523966
49360528788
49360536356
49360540873
49360548136
49360553934
49360559488
49360567118
49360572977
49360578409
49360583292
49360589334
49360594644
49360600138
49360605325
49360611673
49360616922
49360621805
49360627908
49360634012
49360639200
49360645731
49360651224
49360658060
49360662820
49360669962
49360674722
49360681314
49360685587
49360692544
49360698892
49360703897
49360710733
49360717386
49360722635
49360728982
49360733499
49360738748
49360744424
49360749429
49360755044
49360761209
49360765909
49360772317
49360778055
49360782815
49360789102
49360794900
49360800943
49360807046
49360812478
49360818399
49360822732
49360830117
49360836953
49360843484
49360848428
49360853738
49360859292
49360866983
49360872415
49360878396
49360883767
49360888467
49360896157
49360901406
49360905740
49360912087
49360918496
49360923257
49360928811
49360933938
49360939797
49360944741
49360949502
49360956338
49360961037
49360967751
49360973611
49360979531
49360984231
49360990212
49360995583
49361000954
49361006325
49361013222
49361018288
49361023415
49361029214
49361032204
49361039284
49361045632
49361051125
49361056313
49361062111
49361066872
49361072243
49361076333
49361083230
49361089211
49361094826
49361100747
49361106301
49361113137
49361118874
49361124001
49361128945
49361135170
49361139321
49361147133
49361153298
49361158303
49361163307
49361170571
49361175392
49361180947
49361186440
49361191994
49361197670
49361202858
49361208168
49361212380
49361219216
49361224770
49361229469
49361237160
49361242043
49361247658
49361253273
49361256447
49361264137
49361270607
49361275063
49361281410
49361286415
49361292274
49361297340
49361301979
49361309608
49361316566
49361321876
49361328468
49361334938
49361340797
49361346107
49361351784
49361358253
49361363136
49361368995
49361375404
49361380836
49361386635
49361391517
49361398536
49361404762
49361409462
49361416114
49361420753
49361426796
49361432899
49361438209
49361445045
49361450965
49361456520
49361461647
49361466896
49361472999
49361478919
49361484718
49361489906
49361493873
49361500160
49361504981
49361511329
49361516151
49361521339
49361527625
49361532264
49361537147
49361540565
49361547950
49361553809
49361559364
49361565955
49361571082
49361575721
49361580909
49361586036
49361591834
49361597938
49361603675
49361609412
49361613685
49361619544
49361625220
49361630591
49361636268
49361641822
49361647803
49361652808
49361657386
49361664405
49361669532
49361675635
49361681311
49361686683
49361692054
49361698096
49361703040
49361710913
49361717627
49361721961
49361729956
49361734473
49361738501
49361745887
49361752112
49361756934
49361763404
49361768408
49361773108
49361779151
49361784949
49361791297
49361797949
49361804480
49361809973
49361815894
49361821265
49361827246
49361833655
49361838904
49361845068
49361850378
49361855139
49361861365
49361865576
49361871863
49361878271
49361884436
49361889990
49361895666
49361900976
49361906653
49361912451
49361918677
49361923804
49361929175
49361935339
49361940405
49361947180
49361949988
49361957434
49361964026
49361969519
49361974890
49361980566
49361984716
49361992956
49361998022
49362003454
49362009497
49362015417
49362021032
49362027868
49362033911
49362039160
49362046179
49362051245
49362056494
49362063696
49362068273
49362075353
49362080480
49362085668
49362091162
49362095068
49362101537
49362108129
49362112280
49362119726
49362124731
49362131200
49362135107
49362139623
49362143102
49362147863
49362151220
49362155981
49362159216
49362163488
49362170141
49362173986
49362177892
49362181249
49362184850
49362189977
49362194372
49362197729
49362201086
49362205724
49362208776
49362213903
49362218114
49362221410
49362225805
49362229955
49362234167
49362238317
49362243993
49362248021
49362252355
49362254674
49362260900
49362265783
49362269018
49362274633
49362279332
49362283239
49362287511
49362291661
49362297521
49362301732
49362306127
49362310216
49362314183
49362318151
49362322484
49362328527
49362333409
49362337682
49362341954
49362346410
49362350255
49362353551
49362359288
49362364354
49362368566
49362372960
49362377416
49362381993
49362386754
49362391820
49362394444
49362400548
49362404759
49362408910
49362413365
49362417638
49362423497
49362426183
49362433080
49362437108
49362441991
49362446629
49362451085
49362456029
49362459752
49362465672
49362470555
49362475377
49362479344
49362484105
49362489049
49362493870
49362499425
49362503087
49362507359
49362511632
49362516942
49362519688
49362526097
49362532506
49362537083
49362542332
49362547520
49362552464
49362557652
49362564122
49362568089
49362572606
49362576878
49362582798
49362587010
49362591710
49362595677
49362601719
49362607518
49362613011
49362617405
49362622593
49362628270
49362632176
49362634861
49362643345
49362649510
49362653721
49362658970
49362662876
49362668797
49362672886
49362678990
49362684605
49362690708
49362695042
49362700535
49362705418
49362710301
49362716038
49362723606
49362728611
49362734898
49362740208
49362746372
49362748447
49362756626
49362760410
49362770725
49362777927
49362783237
49362787083
49362795933
49362800449
49362809360
49362816318
49362822544
49362831455
49362839390
49362845432
49362853061
49362858860
49362861423
49362870578
49362877597
49362888401
49362893894
49362902073
49362908481
49362917270
49362923862
49362930576
49362936130
49362941013
49362950473
49362960239
49362966648
49362973850
49362980258
49362985996
49362992893
49363001376
49363004062
49363015476
49363021152
49363030978
49363036105
49363045627
49363052463
49363058871
49363065280
49363071689
49363080966
49363084323
49363094028
49363101291
49363108066
49363114657
49363119784
49363129611
49363136630
49363143893
49363151278
49363159274
49363166110
49363173800
49363180270
49363184909
49363193637
49363200229
49363205478
49363216586
49363222140
49363231234
49363238681
49363245150
49363251803
49363259432
49363266574
49363271090
49363283175
49363290743
49363293673
49363303988
49363311312
49363318026
49363324862
49363327731
49363339877
49363345248
49363353793
49363361666
49363370089
49363375826
49363378451
49363387728
49363394442
49363401949
49363407625
49363410189
49363423556
49363428805
49363438021
49363444613
49363451876
49363457613
49363460299
49363470675
49363474459
49363484591
49363492708
49363500460
49363506624
49363511568
49363518404
49363524446
49363531221
49363537142
49363541963
49363551973
49363559786
49363565767
49363571626
49363578462
49363584383
49363590975
49363597994
49363604280
49363613008
49363619295
49363628206
49363634920
49363640047
49363647798
49363653719
49363660432
49363666719
49363671297
49363680635
49363687776
49363693391
49363699251
49363704072
49363713594
49363717927
49363724885
49363730928
49363735505
49363747712
49363752900
49363761567
49363768159
49363773713
49363779878
49363784761
49363792634
49363798555
49363801179
49363813264
49363821382
49363827607
49363832429
49363840791
49363846894
49363853364
49363859773
49363866242
49363873567
49363880219
49363887788
49363894074
49363899995
49363905854
49363912629
49363919404
49363925202
49363932465
49363939362
49363944978
49363953156
49363959443
49363966523
49363972443
49363977082
49363985688
49363991791
49363994355
49364005952
49364011140
49364019684
49364026459
49364033417
49364039704
49364042267
49364051056
49364058075
49364068512
49364076325
49364081208
49364089386
49364094880
49364100861
49364107758
49364113129
49364118988
49364123688
49364134491
49364139862
49364149140
49364155182
49364160980
49364166901
49364172577
49364180756
49364188019
49364197357
49364203949
49364212128
49364218170
49364223114
49364230927
49364237579
49364242462
49364250275
49364252838
49364264374
49364269195
49364277862
49364284088
49364286774
49364295196
49364301971
49364308685
49364314606
49364321991
49364329254
49364338714
49364345611
49364350067
49364357269
49364363434
49364368255
49364376434
49364383087
49364392486
49364399078
49364408172
49364414398
49364419281
49364426300
49364432281
49364439971
49364446075
49364450714
49364459686
49364467498
49364475128
49364481414
49364487396
49364493377
49364498321
49364505645
49364512298
49364519256
49364525237
49364530975
49364539581
49364546478
49364553863
49364559783
49364566070
49364571929
49364578521
49364585540
49364591765
49364599578
49364606170
49364610808
49364621917
49364625579
49364637603
49364647490
49364654693
49364661040
49364671233
49364676543
49364686187
49364691008
49364697539
49364703826
49364706694
49364719390
49364727751
49364734954
49364740996
49364748015
49364754912
49364760405
49364766692
49364777251
49364783721
49364791655
49364800810
49364804289
49364815703
49364822295
49364829131
49364838652
49364845976
49364853606
49364862334
49364868681
49364871550
49364881743
49364889250
49364896635
49364903105
49364905974
49364919523
49364924833
49364932036
49364938139
49364945036
49364951384
49364955839
49364964689
49364971586
49364978605
49364987761
49364994963
49365003691
49365007597
49365018217
49365024198
49365030180
49365035185
49365045317
49365051115
49365059477
49365066679
49365073637
49365079557
49365086332
49365092680
49365095243
49365108427
49365113737
49365122404
49365130094
49365137235
49365144865
49365148038
49365158536
49365166227
49365175626
49365182279
49365192045
49365198759
49365201749
49365211698
49365218900
49365227384
49365234281
49365237272
49365250760
49365256315
49365264005
49365270780
49365278531
49365285611
49365290738
49365299649
49365306607
49365309598
49365322232
49365327542
49365336820
49365341275
49365351346
49365357877
49365365872
49365372952
49365377835
49365387845
49365395047
49365398282
49365408536
49365416043
49365424283
49365429227
49365437161
49365443997
49365449490
49365459805
49365467801
49365474637
49365481778
49365486966
49365495328
49365502408
49365509183
49365518277
49365521573
49365531521
49365539578
49365547329
49365554226
49365560940
49365569912
49365575528
49365581997
49365588711
49365597622
49365605008
49365614468
49365621670
49365626370
49365635220
49365641995
49365647488
49365657376
49365661770
49365669766
49365679165
49365682583
49365695644
49365702236
49365711453
49365719204
49365726528
49365733974
49365737331
49365752712
49365756191
49365767055
49365772610
49365779568
49365786342
49365791592
49365801113
49365808803
49365817409
49365822719
49365831691
49365838161
49365843410
49365851162
49365857876
49365866359
49365872829
49365878078
49365890224
49365895473
49365904811
49365911647
49365919460
49365925991
49365930385
49365938686
49365945156
49365950405
49365961208
49365969692
49365975246
49365981899
49365988918
49365998195
49366003322
49366010036
49366017055
49366023586
49366032375
49366038112
49366047389
49366053920
49366061305
49366068324
49366073390
49366083522
49366087916
49366097194
49366106715
49366110194
49366119533
49366126857
49366135402
49366141993
49366144801
49366154872
49366162501
49366168971
49366175929
49366182948
49366189235
49366193629
49366202540
49366209315
49366214137
49366220179
49366228297
49366235804
49366243067
49366250453
49366256129
49366258753
49366269129
49366274012
49366281519
49366287501
49366290186
49366301417
49366306727
49366315272
49366321619
49366327418
49366333704
49366338160
49366346827
49366353419
49366364588
49366371485
49366377344
49366385218
49366388758
49366401270
49366410242
49366416468
49366419642
49366432703
49366441309
49366447718
49366453089
49366462000
49366468470
49366475122
49366481043
49366483973
49366496790
49366504969
49366511866
49366520349
49366526697
49366531702
49366540857
49366544885
49366556665
49366564539
49366571069
49366576990
49366579920
49366589197
49366594385
49366602930
49366610132
49366620386
49366629236
49366636133
49366642297
49366649133
49366657007
49366664148
49366670679
49366675928
49366685693
49366693567
49366702661
49366709680
49366716211
49366722375
49366728906
49366735254
49366739953
49366749658
49366755395
49366764062
49366770227
49366776880
49366783349
49366791101
49366797692
49366802697
49366813806
49366819177
49366829553
49366834558
49366841577
49366848107
49366855187
49366863061
49366869958
49366876489
49366886620
49366892968
49366898400
49366907616
49366911767
49366920861
49366926843
49366929894
49366943993
49366951684
49366958153
49366962731
49366972619
49366980126
49366985192
49366991601
49367002099
49367009057
49367018395
49367026085
49367031334
49367040917
49367048119
49367055504
49367061730
49367072045
49367079186
49367082482
49367095238
49367103661
49367112633
49367119835
49367126427
49367129601
49367143395
49367149315
49367160301
49367164879
49367172753
49367178978
49367182030
49367192711
49367197960
49367209190
49367214439
49367223351
49367229759
49367236595
49367242943
49367251182
49367256554
49367266136
49367272362
49367277855
49367288292
49367291344
49367302147
49367306846
49367315086
49367321983
49367329124
49367335472
49367345359
49367351707
49367359825
49367366905
49367372642
49367382042
49367391197
49367397178
49367406028
49367408897
49367418235
49367425498
49367433799
49367440635
49367443504
49367453269
49367460899
49367468284
49367476402
49367483238
49367489097
49367493736
49367501670
49367508140
49367514121
49367520347
49367525108
49367534446
49367543540
49367550193
49367554160
49367562034
49367568259
49367572898
49367581748
49367586082
49367594565
49367600608
49367609214
49367615561
49367620322
49367626670
49367634543
49367637290
49367646079
49367652610
49367659079
49367669028
49367674460
49367680381
49367685019
49367693503
49367699424
49367707602
49367713767
49367719565
49367728476
49367735922
49367741965
49367748068
49367756369
49367762168
49367766806
49367775534
49367781333
49367783957
49367796164
49367803610
49367809775
49367814475
49367822714
49367828513
49367831137
49367841513
49367846091
49367857077
49367863608
49367872519
49367878500
49367881308
49367891440
49367895529
49367902609
49367910727
49367913351
49367924826
49367930868
49367939596
49367946615
49367953085
49367959005
49367964926
49367971212
49367978048
49367985495
49367991720
49367999472
49368008810
49368012228
49368024008
49368031454
49368036886
49368041952
49368051595
49368061910
49368068807
49368073751
49368083029
49368087240
49368094869
49368101278
49368109579
49368116598
49368124899
49368131673
49368139547
49368145162
49368150228
49368159322
49368163717
49368172750
49368181539
49368188558
49368195089
49368202596
49368208944
49368213521
49368221456
49368227804
49368237325
49368243917
49368254293
49368261007
49368267537
49368276021
49368278768
49368288045
49368293050
49368303670
49368311483
49368318746
49368323140
49368332845
49368339192
49368347066
49368353169
49368357686
49368367696
49368373555
49368383260
49368390462
49368397115
49368403279
49368410359
49368416707
49368421346
49368432942
49368438252
49368450459
49368455525
49368463399
49368470357
49368477498
49368484028
49368487019
49368499959
49368506001
49368515339
49368520222
49368529255
49368536091
49368541218
49368550862
49368555623
49368563862
49368573567
49368576985
49368585957
49368593403
49368601033
49368607930
49368615498
49368622029
49368627522
49368637776
49368645039
49368653156
49368660053
49368665302
49368673603
49368680500
49368688740
49368695393
49368700642
49368709431
49368716328
49368725727
49368732441
49368739643
49368746296
49368753864
49368760334
49368767170
49368772541
49368783527
49368791279
49368798664
49368805317
49368813251
49368820331
49368825519
49368833515
49368840168
49368848407
49368855426
49368863849
49368871357
49368878986
49368885883
49368892536
49368900043
49368907062
49368911396
49368921833
49368928607
49368937396
49368945636
49368951312
49368961261
49368969867
49368979083
49368987018
49368993610
49369001117
49369006793
49369018268
49369022418
49369031451
49369038470
49369044757
49369053607
49369059650
49369069537
49369076922
49369085223
49369091876
49369097430
49369104632
49369111224
49369120135
49369126849
49369132098
49369140887
49369148761
49369155413
49369161700
49369166156
49369175128
49369179095
49369186236
49369192523
49369197161
49369209368
49369216754
49369225176
49369229571
49369237017
49369243060
49369247820
49369256854
49369260821
49369270587
49369279925
49369286395
49369293169
49369300066
49369306719
49369312640
49369319292
49369325579
49369332171
49369339861
49369347063
49369354998
49369360918
49369363604
49369374468
49369378985
49369385515
49369392229
49369396807
49369409380
49369415423
49369425066
49369432268
49369437151
49369443377
49369447832
49369455706
49369462664
49369470110
49369476824
49369479570
49369491899
49369494585
49369502642
49369508867
49369516435
49369522417
49369527544
49369537187
49369545671
49369552202
49369556597
49369565691
49369571550
49369576433
49369584245
49369590776
49369594072
49369605119
49369612199
49369618669
49369625566
49369631853
49369638567
49369645586
49369651811
49369656328
49369666154
49369673356
49369680253
49369686296
49369692766
49369698625
49369705278
49369711442
49369717668
49369725541
49369731462
49369737016
49369746415
49369752824
49369758744
49369765092
49369769548
49369777909
49369784623
49369790910
49369796891
49369806474
49369813798
49369818925
49369828935
49369837968
49369844621
49369850236
49369861894
49369868485
49369877213
49369883500
49369890397
49369896989
49369899979
49369911271
49369914140
49369925797
49369933732
49369940140
49369945206
49369953934
49369961259
49369967850
49369973588
49369976456
49369992447
49370000626
49370007157
49370012345
49370021256
49370028092
49370034195
49370040238
49370049637
49370056351
49370064774
49370071976
49370079605
49370085526
49370090531
49370098526
49370105606
49370114334
49370120743
49370131180
49370137894
49370141007
49370153580
49370156937
49370167313
49370172318
49370180313
49370187332
49370195023
49370201736
49370208572
49370214798
49370221695
49370227676
49370234329
49370243912
49370251297
49370256180
49370263992
49370267288
49370277481
49370282120
49370289078
49370295059
49370299881
49370310074
49370315933
49370324173
49370330764
49370337600
49370343338
49370348953
49370355178
49370361160
49370368728
49370374893
49370380752
49370391860
49370399551
49370404983
49370410354
49370419326
49370426773
49370437087
49370442214
49370451125
49370457595
49370464004
49370470474
49370477737
49370486037
49370488784
49370499465
49370505386
49370514541
49370519485
49370526687
49370533523
49370540908
49370548598
49370551467
49370565139
49370572097
49370578567
49370583755
49370592421
49370599257
49370605605
49370612197
49370621047
49370627883
49370637038
49370646071
49370648940
49370657973
49370663161
49370673476
49370679091
49370688552
49370695693
49370703139
49370709120
49370716017
49370722792
49370728041
49370736830
49370743239
49370753066
49370759718
49370768691
49370775282
49370783583
49370790114
49370795180
49370803969
49370811354
49370817824
49370824782
49370834730
49370841261
49370848280
49370855299
49370862318
49370866957
49370875014
49370881972
49370889052
49370898207
49370905409
49370910475
49370920118
49370927076
49370933912
49370940199
49370947218
49370953932
49370963514
49370970777
49370975904
49370984754
49370991712
49370997816
49371004225
49371013502
49371020338
49371028150
49371035108
49371040357
49371049513
49371056532
49371061842
49371067701
49371072645
49371082472
49371088514
49371099012
49371104444
49371112012
49371118482
49371125928
49371134473
49371137342
49371151380
49371156934
49371165418
49371170667
49371179700
49371186963
49371193677
49371199293
49371207044
49371216077
49371223645
49371231397
49371236463
49371246167
49371251111
49371258557
49371264905
49371274549
49371281507
49371290052
49371296887
49371302259
49371312085
49371317884
49371325391
49371332105
49371335034
49371349194
49371354871
49371362744
49371369641
49371376355
49371382642
49371388013
49371394055
49371400952
49371409863
49371416577
49371427258
49371433850
49371437329
49371449292
49371456555
49371462842
49371469372
49371478772
49371484692
49371494885
49371499951
49371507946
49371515210
49371522778
49371528943
49371531811
49371543042
49371550427
49371557324
49371562634
49371573315
49371578198
49371586499
49371593518
49371600659
49371607922
49371615368
49371622082
49371631237
49371637463
49371642956
49371652905
49371658093
49371666515
49371674267
49371677258
49371688488
49371693066
49371700451
49371706982
49371709911
49371718822
49371723400
49371733532
49371740917
49371747814
49371753857
49371756786
49371767223
49371772228
49371778881
49371785351
49371790294
49371800426
49371806164
49371814525
49371820324
49371828624
49371834972
49371840587
49371846447
49371853221
49371858776
49371866771
49371874279
49371881298
49371886241
49371895336
49371899364
49371907726
49371914256
49371918895
49371930492
49371936412
49371945140
49371952342
49371959544
49371965953
49371968517
49371978465
49371983104
49371992748
49372001109
49372006602
49372014842
49372017406
49372025340
49372031688
49372039561
49372045543
49372050609
49372060557
49372068126
49372076610
49372082286
49372088817
49372094737
49372102488
49372108836
49372112742
49372120738
49372129039
49372135203
49372141612
49372148326
49372155101
49372161082
49372167308
49372173716
49372180186
49372190623
49372198863
49372206553
49372212901
49372219126
49372225230
49372232249
49372237681
49372243845
49372249888
49372258433
49372264353
49372273814
49372280711
49372286814
49372293223
49372299693
49372305979
49372310618
49372321787
49372328684
49372331431
49372342844
49372349619
49372354868
49372363047
49372369578
49372374705
49372386057
49372391062
49372400095
49372404917
49372413828
49372417490
49372425608
49372432077
49372437387
49372448740
49372456858
49372463205
49372467844
49372476023
49372482492
49372489939
49372496347
49372507273
49372513681
49372523874
49372530100
49372535959
49372543039
49372547983
49372557016
49372561227
49372569955
49372577951
49372585886
49372592172
49372599435
49372605722
49372610788
49372620126
49372626474
49372635019
49372645334
49372652780
49372659189
49372666513
49372673044
49372678048
49372687387
49372692209
49372700143
49372707528
49372716317
49372723581
49372730600
49372737069
49372739999
49372749276
49372754281
49372764108
49372771676
49372780221
49372787545
49372793405
49372800118
49372808480
49372814828
49372817452
49372831613
49372837472
49372845834
49372853097
49372860299
49372867196
49372872445
49372880929
49372883920
49372896188
49372903268
49372910714
49372915658
49372925118
49372932015
49372938607
49372944222
49372951790
49372960335
49372966622
49372975533
49372981881
49372989327
49372996407
49373001656
49373008370
49373016854
49373023323
49373031746
49373038887
49373044442
49373053841
49373060128
49373062996
49373074044
49373081124
49373090828
49373097847
49373105293
49373110481
49373119332
49373126351
49373132332
49373138741
49373147163
49373156685
49373163582
49373171394
49373179939
49373186409
49373193428
49373199043
49373205330
49373214790
49373221321
49373228828
49373237190
49373240364
49373251594
49373257026
49373264534
49373271126
49373281807
49373289070
49373296943
49373303596
49373311531
49373318184
49373323188
49373330574
49373339058
49373341926
49373353401
49373358650
49373367439
49373374336
49373382698
49373388557
49373394111
49373401802
49373408332
49373418830
49373426704
49373433112
49373439399
49373444831
49373451850
49373456062
49373464423
49373470466
49373475349
49373484626
49373492072
49373499519
49373505805
49373513435
49373519477
49373524604
49373531318
49373537238
49373547614
49373556525
49373563300
49373570136
49373574592
49373583075
49373589057
49373591681
49373600837
49373607428
49373616095
49373623175
49373630011
49373635993
49373640876
49373648688
49373655646
49373662116
49373668158
49373673163
49373682929
49373688239
49373696234
49373702033
49373708685
49373715033
49373719611
49373728034
49373734015
49373741400
49373749518
49373756720
49373763251
49373768012
49373778937
49373787360
49373793402
49373798590
49373806586
49373814642
49373822699
49373829779
49373837042
49373844000
49373850104
49373856207
49373861090
49373872442
49373877936
49373888434
49373893805
49373900824
49373907721
49373914373
49373920782
49373929144
49373937567
49373944586
49373953497
49373956366
49373966436
49373971502
49373978582
49373985479
49373996893
49374003240
49374010748
49374017401
49374027227
49374033758
49374037115
49374046758
49374054327
49374062261
49374068121
49374076849
49374082952
49374088079
49374097234
49374101507
49374109075
49374116521
49374121038
49374133916
49374139654
49374150152
49374154546
49374162420
49374168523
49374173223
49374181890
49374188909
49374194280
49374203374
49374210881
49374219793
49374223027
49374232854
49374240544
49374249211
49374252141
49374264897
49374273564
49374281194
49374286321
49374294988
49374298833
49374307561
49374313481
49374318852
49374329961
49374335027
49374343266
49374350224
49374357427
49374363835
49374366704
49374375798
49374380925
49374392461
49374397832
49374406316
49374413212
49374419987
49374426274
49374433598
49374442814
49374445805
49374456059
49374461491
49374473149
49374476079
49374486088
49374491032
49374497929
49374504277
49374512516
49374520817
49374528141
49374537114
49374543461
49374549015
49374556340
49374564396
49374572026
49374580143
49374586369
49374594731
49374601933
49374608769
49374615055
49374622563
49374628544
49374635197
49374644230
49374650456
49374656742
49374666264
49374673954
49374681156
49374688419
49374695255
49374700138
49374709049
49374715641
49374724186
49374732792
49374737980
49374745060
49374751163
49374758610
49374766117
49374771000
49374779484
49374786258
49374794681
49374800968
49374807010
49374812870
49374819584
49374826847
49374832706
49374835331
49374848392
49374854435
49374863224
49374870059
49374877201
49374883975
49374890567
49374896915
49374901737
49374911380
49374919254
49374926517
49374932803
49374939334
49374945560
49374952152
49374958499
49374964786
49374970767
49374980533
49374985843
49374994266
49375001163
49375007388
49375013736
49375018497
49375025943
49375035098
49375042422
49375048648
49375057742
49375064578
49375069217
49375077517
49375083804
49375086368
49375095340
49375102542
49375108889
49375115664
49375124270
49375130130
49375134829
49375142215
49375149050
49375155886
49375161685
49375166323
49375175479
49375183108
49375190310
49375196108
49375203860
49375210146
49375214724
49375222781
49375229556
49375236514
49375243166
49375248476
49375257082
49375264346
49375269473
49375277651
49375283572
49375289614
49375296633
49375306826
49375314150
49375321413
49375327456
49375333498
49375339541
