49108479750
49108486037
49108491042
49108496230
49108501296
49108509230
49108515089
49108520888
49108527235
49108532545
49108539992
49108548170
49108554701
49108563063
49108570509
49108576857
49108586012
49108593153
49108599501
49108606703
49108613600
49108620070
49108628004
49108633314
49108640028
49108647474
49108653639
49108660475
49108666212
49108673414
49108679335
49108686354
49108692091
49108698378
49108703871
49108710035
49108717237
49108725965
49108732374
49108738478
49108745130
49108750746
49108755689
49108762708
49108770460
49108777296
49108783582
49108789564
49108795667
49108802503
49108808485
49108817701
49108823438
49108830640
49108836561
49108843031
49108850111
49108856214
49108864149
49108872449
49108878553
49108886793
49108893873
49108900770
49108908277
49108915235
49108923414
49108929883
49108937635
49108944593
49108951917
49108958448
49108965650
49108973462
49108979627
49108986585
49108993726
49108999585
49109006116
49109014600
49109022412
49109029859
49109036389
49109043408
49109049817
49109056409
49109064649
49109070996
49109077893
49109084912
49109090222
49109097424
49109103955
49109111768
49109119275
49109126599
49109132275
49109138013
49109145642
49109152966
49109161328
49109169568
49109176953
49109184033
49109191479
49109196911
49109204968
49109210583
49109220776
49109227490
49109234021
49109240246
49109247021
49109253369
49109262890
49109270337
49109276440
49109283520
49109289929
49109298169
49109305127
49109314221
49109320568
49109328076
49109335766
49109341686
49109349316
49109354748
49109364025
49109372326
49109380078
49109388317
49109396496
49109401867
49109409985
49109416210
49109426342
49109433971
49109441540
49109447582
49109458080
49109465160
49109474071
49109481457
49109490063
49109497875
49109504284
49109512768
49109520824
49109528393
49109536693
49109546215
49109552074
49109559581
49109567150
49109576366
49109582958
49109590770
49109599315
49109608409
49109615306
49109621898
49109628551
49109636974
49109643932
49109651744
49109659007
49109667919
49109674510
49109683116
49109690746
49109696910
49109705150
49109717174
49109725963
49109734264
49109742931
49109750987
49109761363
49109767223
49109777965
49109786571
49109794383
49109802989
49109810313
49109816844
49109827037
49109833995
49109842051
49109851756
49109859263
49109866404
49109875499
49109881968
49109889048
49109897044
49109907237
49109914256
49109923960
49109931773
49109939158
49109947520
49109955149
49109963023
49109973216
49109980601
49109989878
49109997019
49110004282
49110011912
49110019358
49110026438
49110036570
49110044505
49110053904
49110059275
49110068674
49110076121
49110083933
49110091746
49110101389
49110110117
49110118662
49110126902
49110133249
49110141611
49110147837
49110154673
49110164072
49110172617
49110181467
49110186228
49110195383
49110202341
49110211740
49110219797
49110226633
49110237253
49110244821
49110252512
49110259348
49110267648
49110273874
49110283640
49110292795
49110300790
49110308786
49110319467
49110327463
49110338022
49110346872
49110358713
49110367136
49110375375
49110387826
49110395883
49110403818
49110411874
49110419504
49110428048
49110436593
49110445810
49110452401
49110459970
49110466806
49110474679
49110481759
49110489206
49110496102
49110503244
49110511850
49110521127
49110528939
49110537972
49110546517
49110554574
49110562448
49110570199
49110579537
49110587228
49110594674
49110602486
49110609506
49110617135
49110623910
49110630929
49110640389
49110649422
49110657296
49110664620
49110671822
49110679635
49110686715
49110693551
49110699471
49110707345
49110713997
49110720528
49110729561
49110736397
49110745675
49110754708
49110761239
49110768319
49110777047
49110783089
49110791817
49110798409
49110807503
49110816841
49110823250
49110831856
49110837471
49110846871
49110852486
49110858528
49110864998
49110871285
49110876289
49110882210
49110887703
49110892952
49110897957
49110904244
49110910957
49110916939
49110921883
49110926460
49110932075
49110938789
49110944099
49110950081
49110956367
49110961006
49110966988
49110971199
49110977180
49110983223
49110988167
49110995857
49111000007
49111006233
49111012092
49111017036
49111022590
49111027534
49111034248
49111039558
49111043892
49111050178
49111054329
49111060554
49111066291
49111071113
49111078315
49111084114
49111094184
49111105476
49111111396
49111118537
49111124031
49111128547
49111134223
49111140571
49111144660
49111151191
49111156013
49111161689
49111166450
49111172065
49111178657
49111183906
49111188606
49111193488
49111199531
49111204353
49111210212
49111215339
49111220161
49111224799
49111229682
49111235236
49111241035
49111246162
49111251899
49111256721
49111262275
49111267707
49111271918
49111277778
49111284308
49111289435
49111294135
49111298957
49111304572
49111308722
49111314765
49111318976
49111325141
49111329963
49111335273
49111339667
49111345343
49111350654
49111357673
49111362555
49111367682
49111373481
49111377509
49111383368
49111387397
49111393927
49111399848
49111404120
49111408881
49111414252
49111419928
49111423529
49111429267
49111436408
49111442633
49111446478
49111452216
49111456610
49111462042
49111467047
49111471869
49111478522
49111482733
49111488348
49111493109
49111498969
49111502570
49111509039
49111514532
49111520758
49111525458
49111531378
49111537543
49111541876
49111549567
49111554694
49111560675
49111566046
49111571844
49111576422
49111582037
49111586432
49111592230
49111597845
49111603583
49111609869
49111614935
49111621100
49111626532
49111632696
49111640020
49111645086
49111649847
49111655462
49111659674
49111665167
49111669561
49111674994
49111680853
49111684759
49111690313
49111696112
49111699713
49111706121
49111711737
49111716864
49111721990
49111726751
49111731207
49111737188
49111742254
49111746649
49111752081
49111757940
49111762335
49111767706
49111773138
49111776678
49111782659
49111789312
49111795416
49111800481
49111804754
49111810369
49111814520
49111819830
49111826238
49111832037
49111836309
49111841619
49111846380
49111852911
49111857915
49111862676
49111867986
49111873907
49111878545
49111884038
49111889348
49111894536
49111899053
49111906255
49111911199
49111913518
49111921026
49111925481
49111931890
49111935735
49111941716
49111947088
49111952886
49111956670
49111962041
49111967290
49111972234
49111978093
49111983831
49111988958
49111994146
49111998662
49112004827
49112009282
49112014165
49112019963
49112026616
49112031072
49112037663
49112042851
49112047551
49112052739
49112057622
49112063420
49112068181
49112073796
49112079289
49112083135
49112088506
49112094548
49112098332
49112104619
49112110295
49112114934
49112120305
49112125005
49112130559
49112135381
49112141545
49112146306
49112150944
49112156438
49112160954
49112166447
49112170842
49112176823
49112183537
49112188664
49112194462
49112198552
49112203129
49112208806
49112214421
49112218998
49112224980
49112230046
49112235417
49112239506
49112244999
49112250859
49112257389
49112262394
49112266606
49112272465
49112276249
49112281987
49112287480
49112292118
49112298344
49112304325
49112309696
49112313481
49112320011
49112323735
49112329594
49112335331
49112341435
49112344242
49112351383
49112356877
49112361027
49112365299
49112371952
49112378117
49112382328
49112388310
49112393681
49112398502
49112403690
49112408268
49112413517
49112419865
49112423954
49112429996
49112433964
49112439762
49112443363
49112449406
49112454349
49112460270
49112464847
49112470280
49112475834
49112481449
49112486088
49112491825
49112496769
49112501713
49112507633
49112511234
49112517032
49112521610
49112528202
49112533024
49112540043
49112544803
49112549930
49112554386
49112558902
49112565006
49112570926
49112575443
49112580387
49112585758
49112589908
49112595340
49112600894
49112606998
49112612979
49112618289
49112623233
49112628238
49112634036
49112639285
49112643863
49112649600
49112655521
49112660648
49112665653
49112670291
49112675174
49112680057
49112687259
49112692264
49112698306
49112704105
49112709110
49112714969
49112720828
49112727542
49112732303
49112738467
49112744388
49112748660
49112754459
49112759402
49112765750
49112771426
49112777408
49112782046
49112786868
49112791690
49112797183
49112801761
49112808597
49112813418
49112817447
49112823306
49112828860
49112833194
49112838565
49112844607
49112850650
49112854922
49112860659
49112864444
49112870242
49112875491
49112881472
49112886904
49112891848
49112896365
49112902163
49112907107
49112913272
49112917239
49112922854
49112928164
49112934573
49112939272
49112943057
49112950015
49112954531
49112960574
49112966311
49112972231
49112976931
49112983340
49112988406
49112993227
49112997866
49113002810
49113008608
49113013613
49113018191
49113024599
49113028811
49113034365
49113039858
49113045718
49113049868
49113055849
49113059634
49113065432
49113069094
49113076357
49113081301
49113087771
49113091372
49113097292
49113101992
49113107363
49113112124
49113118105
49113124209
49113128115
49113133852
49113137392
49113143313
49113148928
49113153627
49113159853
49113166018
49113170595
49113176027
49113180605
49113186159
49113190920
49113195497
49113201113
49113206972
49113211794
49113216555
49113222597
49113226503
49113232240
49113238283
49113243044
49113247560
49113253298
49113258180
49113262331
49113267702
49113273378
49113279115
49113283083
49113288637
49113294008
49113298586
49113304140
49113308717
49113314211
49113320253
49113323915
49113329591
49113334779
49113340089
49113344789
49113349306
49113355470
49113360658
49113365175
49113370607
49113375307
49113378908
49113385682
49113390931
49113396058
49113401185
49113405946
49113410524
49113416322
49113420289
49113427797
49113433351
49113437379
49113442689
49113447389
49113452882
49113458375
49113463075
49113467775
49113474244
49113478944
49113483583
49113488282
49113494020
49113498780
49113504701
49113508973
49113514894
49113520875
49113525880
49113530396
49113535462
49113540223
49113546998
49113552247
49113556947
49113562867
49113567994
49113572205
49113577699
49113583863
49113589722
49113593995
49113600221
49113604005
49113610596
49113614136
49113619691
49113625977
49113630982
49113635804
49113641602
49113645203
49113650880
49113656373
49113660889
49113666993
49113672669
49113677674
49113681214
49113687623
49113691346
49113697327
49113703431
49113708191
49113713563
49113718262
49113723084
49113728943
49113733033
49113738892
49113744019
49113749756
49113754944
49113758606
49113763489
49113768982
49113775086
49113780518
49113785401
49113790222
49113796021
49113801270
49113806641
49113811707
49113815491
49113822205
49113827637
49113832215
49113837647
49113842163
49113846131
49113852112
49113858765
49113863464
49113868347
49113873657
49113878113
49113884033
49113889160
49113894348
49113900452
49113904602
49113910522
49113916870
49113922607
49113929077
49113933227
49113939514
49113944275
49113950317
49113955261
49113962036
49113966736
49113972839
49113977844
49113982849
49113988708
49113993042
49113998962
49114003784
49114008239
49114013977
49114019348
49114025634
49114030456
49114034973
49114038635
49114045532
49114051818
49114056640
49114062194
49114066467
49114071045
49114077026
49114082336
49114088073
49114093566
49114097900
49114103576
49114108886
49114113525
49114118408
49114124511
49114130554
49114135681
49114140991
49114146484
49114151000
49114156494
49114160888
49114166686
49114172241
49114178344
49114182983
49114187988
49114192626
49114198180
49114203063
49114209167
49114214660
49114220031
49114225524
49114230102
49114234985
49114240844
49114246764
49114251464
49114257140
49114261474
49114267211
49114271544
49114276000
49114281737
49114288085
49114292418
49114297973
49114303222
49114309020
49114313414
49114319518
49114325316
49114329955
49114335570
49114339843
49114345092
49114350463
49114354186
49114359862
49114366454
49114370665
49114376525
49114381530
49114386290
49114392211
49114396971
49114402098
49114408446
49114412535
49114418456
49114424071
49114428343
49114432860
49114438719
49114445433
49114450255
49114456175
49114461119
49114465819
49114470824
49114475523
49114481932
49114486510
49114491942
49114497435
49114502623
49114507384
49114512205
49114518126
49114522642
49114528929
49114533507
49114539122
49114544615
49114550413
49114554625
49114561522
49114566466
49114572447
49114576658
49114582518
49114587645
49114592344
49114598082
49114603636
49114607664
49114613096
49114617308
49114624022
49114628721
49114632750
49114639402
49114645140
49114649839
49114654783
49114659544
49114664671
49114669432
49114675230
49114681150
49114685728
49114691160
49114695982
49114700743
49114705564
49114711485
49114717588
49114722044
49114726682
49114731565
49114737425
49114741514
49114747740
49114752683
49114758665
49114763487
49114768858
49114773801
49114778623
49114783994
49114788023
49114795347
49114799619
49114805296
49114809446
49114815305
49114819578
49114825925
49114832029
49114836607
49114841306
49114846860
49114852048
49114857297
49114861875
49114868345
49114873166
49114878232
49114882871
49114888914
49114893247
49114899228
49114905332
49114909482
49114915525
49114921262
49114924863
49114930600
49114936338
49114941098
49114946897
49114953061
49114957029
49114962949
49114968015
49114973508
49114978086
49114983884
49114989255
49114994382
49114999021
49115004026
49115008908
49115013608
49115019101
49115025449
49115030393
49115034604
49115040402
49115045590
49115049741
49115055844
49115060544
49115066892
49115072080
49115076718
49115080441
49115086789
49115092099
49115096799
49115102109
49115108273
49115112668
49115118466
49115122800
49115128110
49115132870
49115137448
49115141965
49115147458
49115153378
49115158566
49115161984
49115167416
49115173215
49115177243
49115184262
49115189267
49115193844
49115199154
49115203793
49115208554
49115214718
49115220700
49115225155
49115230465
49115235836
49115239987
49115245480
49115249874
49115256405
49115262692
49115268490
49115275082
49115279965
49115286007
49115291745
49115295834
49115303524
49115308895
49115313900
49115319699
49115324703
49115329342
49115335446
49115341854
49115346371
49115351803
49115357113
49115361202
49115366757
49115370968
49115377682
49115384457
49115388851
49115394772
49115399776
49115404476
49115410030
49115414852
49115420528
49115426510
49115430233
49115435726
49115441341
49115446285
49115451595
49115457332
49115463741
49115469478
49115475887
49115480282
49115486263
49115492489
49115497310
49115503048
49115508602
49115514156
49115518062
49115523494
49115528316
49115534481
49115539669
49115545162
49115549984
49115555416
49115560054
49115563716
49115570186
49115575862
49115582210
49115585567
49115591487
49115596614
49115602169
49115606014
49115611751
49115618404
49115622249
49115628108
49115631893
49115638118
49115641902
49115647334
49115654414
49115659541
49115664119
49115670284
49115674312
49115679988
49115684566
49115690181
49115694942
49115700740
49115705684
49115710872
49115715511
49115719112
49115725642
49115731807
49115736812
49115741756
49115746455
49115751704
49115756343
49115761470
49115766780
49115773311
49115778132
49115782954
49115788508
49115794063
49115797908
49115803828
49115809810
49115814692
49115819087
49115825251
49115831172
49115836177
49115840449
49115846614
49115852229
49115858027
49115862910
49115867244
49115871394
49115878108
49115882807
49115886653
49115893366
49115897395
49115903987
49115908015
49115913874
49115918818
49115923518
49115929926
49115934626
49115939692
49115945185
49115948969
49115954340
49115958918
49115964777
49115971125
49115975764
49115980463
49115984187
49115991145
49115995356
49115999934
49116005793
49116011896
49116016474
49116021845
49116025263
49116031245
49116036066
49116041804
49116047175
49116052424
49116057062
49116062800
49116067621
49116071528
49116078303
49116085077
49116089777
49116093866
49116099787
49116104731
49116109125
49116115046
49116119745
49116124872
49116130976
49116136347
49116140009
49116144709
49116150263
49116155756
49116162165
49116168512
49116172602
49116178339
49116182856
49116187372
49116191706
49116198175
49116204828
49116209345
49116213983
49116219415
49116223505
49116228937
49116234308
49116238397
49116245233
49116250787
49116255426
49116259882
49116264642
49116269647
49116275690
49116281061
49116287469
49116292657
49116296930
49116302362
49116307794
49116312372
49116317987
49116324701
49116329278
49116335077
49116339227
49116343988
49116348627
49116354730
49116361017
49116365899
49116370965
49116376520
49116390680
49116396478
49116402582
49116406854
49116412225
49116418451
49116423089
49116427911
49116432611
49116439264
49116443658
49116447931
49116453790
49116458490
49116464044
49116468866
49116474725
49116480157
49116484124
49116490472
49116494073
49116500360
49116504510
49116510430
49116515374
49116520623
49116525567
49116531487
49116535577
49116541436
49116545892
49116552056
49116556817
49116562920
49116568047
49116572930
49116576836
49116582513
49116587762
49116594109
49116600579
49116604424
49116610406
49116614617
49116620476
49116624444
49116630974
49116635918
49116641961
49116647332
49116652398
49116658013
49116661797
49116667046
49116672906
49116679131
49116683404
49116688042
49116692315
49116698235
49116703911
49116708550
49116713494
49116719292
49116723381
49116728753
49116734551
49116739739
49116744500
49116749749
49116754814
49116761467
49116766472
49116772515
49116778313
49116784416
49116788750
49116796379
49116800774
49116806694
49116811272
49116817558
49116822014
49116828056
49116832878
49116838799
49116843010
49116848625
49116854241
49116859428
49116864189
49116870354
49116875420
49116879875
49116885735
49116890068
49116895988
49116900993
49116905510
49116911369
49116917351
49116922172
49116927238
49116933586
49116937981
49116942619
49116948967
49116954643
49116959343
49116965019
49116968986
49116974479
49116980644
49116986809
49116992668
49116997246
49117002861
49117007255
49117012565
49117017936
49117023552
49117029533
49117035148
49117039604
49117045097
49117050834
49117055900
49117061637
49117066459
49117072502
49117077262
49117082267
49117087089
49117091972
49117098503
49117103691
49117109428
49117113822
49117119193
49117123710
49117129203
49117134879
49117140312
49117146476
49117151725
49117156486
49117161247
49117167045
49117171928
49117176627
49117183280
49117188956
49117193839
49117197684
49117202872
49117208488
49117214408
49117219901
49117225150
49117230643
49117236014
49117240348
49117246146
49117250785
49117256522
49117263114
49117268546
49117274711
49117279838
49117285636
49117291739
49117297965
49117304313
49117308585
49117314933
49117320426
49117326529
49117330924
49117337394
49117343375
49117348807
49117353568
49117358390
49117364127
49117368094
49117374320
49117378653
49117384940
49117389578
49117394889
49117399405
49117404776
49117408621
49117414969
49117421561
49117426199
49117432120
49117436331
49117441092
49117446768
49117451529
49117457633
49117463370
49117468497
49117472708
49117477042
49117482474
49117486563
49117492239
49117498831
49117504263
49117508963
49117514090
49117518912
49117524161
49117528921
49117535513
49117541311
49117545340
49117550833
49117556326
49117561087
49117564871
49117570669
49117577444
49117583670
49117589529
49117594412
49117600027
49117605520
49117610830
49117617544
49117621878
49117628164
49117632498
49117638906
49117643301
49117649771
49117655020
49117660818
49117665640
49117671438
49117676016
49117681936
49117686575
49117692922
49117698355
49117702383
49117708914
49117713552
49117718374
49117723928
49117728811
49117734853
49117740102
49117745779
49117750051
49117755056
49117760549
49117764394
49117770132
49117776479
49117781911
49117786672
49117791677
49117796438
49117802602
49117807302
49117814870
49117819631
49117825063
49117830495
49117835866
49117839834
49117846059
49117851674
49117856496
49117863149
49117867544
49117874318
49117879629
49117885915
49117890981
49117897329
49117902150
49117907949
49117912709
49117918569
49117924367
49117931630
49117936757
49117942556
49117947866
49117952565
49117958791
49117963246
49117969472
49117974965
49117980947
49117984792
49117990712
49117996877
49118002065
49118007619
49118011586
49118018239
49118022267
49118029653
49118034352
49118040578
49118045522
49118050771
49118056874
49118061330
49118067860
49118073537
49118077504
49118083302
49118089955
49118095204
49118101735
49118107411
49118113454
49118118947
49118122975
49118130116
49118135670
49118140736
49118145924
49118151600
49118156239
49118161854
49118167042
49118171681
49118179738
49118184681
49118190846
49118195485
49118202687
49118207631
49118213429
49118218556
49118224293
49118229359
49118233876
49118238881
49118245228
49118250416
49118255299
49118261463
49118265736
49118270436
49118276112
49118280506
49118285816
49118291615
49118295826
49118301747
49118306019
49118311573
49118317433
49118320973
49118326710
49118333729
49118338795
49118344471
49118350758
49118356495
49118363209
49118368336
49118375172
49118379749
49118385853
49118389820
49118396595
49118401661
49118406544
49118413319
49118424488
49118429188
49118434742
49118440540
49118444752
49118452442
49118457935
49118463611
49118467884
49118473438
49118479664
49118483448
49118491138
49118496265
49118502002
49118505848
49118511402
49118517566
49118523426
49118528492
49118535205
49118539783
49118545642
49118551380
49118556385
49118562000
49118567066
49118572742
49118577686
49118582569
49118588672
49118594959
49118598865
49118605579
49118611682
49118616382
49118622119
49118626392
49118632007
49118637988
49118643115
49118647388
49118653980
49118659595
49118665759
49118669421
49118675769
49118682300
49118686206
49118692126
49118697620
49118703784
49118708423
49118713733
49118718982
49118725024
49118731067
49118736865
49118741504
49118746326
49118752673
49118758960
49118763354
49118768115
49118774463
49118780749
49118786303
49118792651
49118798388
49118804187
49118809924
49118815722
49118820788
49118826892
49118832324
49118837634
49118842700
49118847644
49118853625
49118858142
49118863696
49118868701
49118874560
49118879565
49118885363
49118890368
49118895983
49118901232
49118906298
49118913867
49118918749
49118924731
49118929980
49118935961
49118940905
49118946276
49118951342
49118957507
49118963122
49118969592
49118974413
49118979601
49118984545
49118990832
49118996752
49119001940
49119007555
49119011828
49119017199
49119023363
49119027758
49119033434
49119039232
49119043078
49119050524
49119054979
49119061083
49119066393
49119072130
49119077318
49119083483
49119087999
49119093248
49119099352
49119105150
49119111376
49119116686
49119122728
49119127977
49119134081
49119140428
49119144518
49119150621
49119155260
49119160448
49119167101
49119171190
49119176805
49119182909
49119188158
49119193590
49119199693
49119205919
49119210619
49119216051
49119222521
49119227220
49119231371
49119238573
49119243334
49119249376
49119256151
49119261888
49119266649
49119271959
49119277513
49119283678
49119288805
49119293748
49119299486
49119304796
49119309373
49119316514
49119321214
49119327196
49119332445
49119337572
49119343492
49119349840
49119355272
49119361558
49119366258
49119370897
49119376634
49119383592
49119388963
49119394761
49119400132
49119406297
49119411302
49119415818
49119421373
49119427476
49119433458
49119438584
49119444383
49119449571
49119454148
49119460130
49119466539
49119472398
49119477891
49119481492
49119486802
49119492112
49119496324
49119503160
49119506883
49119512925
49119518540
49119522691
49119528306
49119534226
49119539781
49119545396
49119550889
49119555405
49119561692
49119566270
49119574754
49119579270
49119585435
49119589219
49119595566
49119600816
49119605759
49119610520
49119616746
49119622849
49119627732
49119633469
49119638474
49119643357
49119650376
49119655198
49119660752
49119665940
49119671616
49119677170
49119682602
49119688706
49119693650
49119698227
49119702805
49119708176
49119713913
49119719590
49119725144
49119730149
49119735337
49119740219
49119745102
49119750046
49119755661
49119761521
49119766159
49119771836
49119776963
49119781357
49119787827
49119792710
49119798325
49119802780
49119808396
49119814682
49119819626
49119824753
49119830429
49119835983
49119841049
49119846054
49119851486
49119856247
49119861618
49119867722
49119872971
49119877792
49119882431
49119888046
49119892319
49119898117
49119903488
49119908859
49119914535
49119918991
49119924118
49119929977
49119934372
49119940964
49119946640
49119950729
49119956955
49119962448
49119968246
49119973922
49119979171
49119986679
49119992477
49119997970
49120002792
49120009140
49120014755
49120021774
49120027694
49120033310
49120038986
49120046310
49120051315
49120057235
49120063217
49120069381
49120074081
49120079696
49120086410
49120091598
49120097885
49120103256
49120107040
49120113265
49120119430
49120125289
49120130966
49120136886
49120140975
49120145736
49120151290
49120157943
49120163314
49120167892
49120173995
49120179305
49120184981
49120191817
49120197250
49120202560
49120207503
49120213973
49120218123
49120223861
49120230086
49120235518
49120241073
49120245467
49120250716
49120256820
49120262618
49120267745
49120273116
49120278792
49120283370
49120288314
49120294906
49120301741
49120305953
49120311751
49120316634
49120322310
49120328170
49120333113
49120338301
49120343917
49120349410
49120353926
49120358870
49120365950
49120372786
49120377669
49120383162
49120389449
49120395308
49120400313
49120407210
49120412398
49120418562
49120422591
49120428389
49120434493
49120439681
49120446272
49120451033
49120456831
49120463118
49120468184
49120474654
49120479414
49120484969
49120491133
49120494673
49120501204
49120506087
49120512007
49120516646
49120522078
49120527937
49120532759
49120538252
49120543196
49120547712
49120552595
49120558699
49120564985
49120571394
49120577498
49120582563
49120588423
49120594648
49120599592
49120605879
49120610334
49120615644
49120621260
49120627363
49120633528
49120638227
49120644819
49120649946
49120656050
49120661177
49120668135
49120674116
49120679426
49120685102
49120689863
49120696028
49120701704
49120707929
49120713117
49120719099
49120723798
49120730451
49120736067
49120741132
49120747419
49120751142
49120757246
49120762861
49120769331
49120773847
49120778791
49120784284
49120791059
49120795881
49120801557
49120808149
49120813093
49120819501
49120823713
49120830060
49120835370
49120840680
49120846235
49120852949
49120858564
49120863691
49120868757
49120874921
49120880719
49120885480
49120891462
49120896589
49120901715
49120908429
49120913373
49120919172
49120924787
49120930219
49120935895
49120942243
49120948468
49120952985
49120958295
49120964032
49120969647
49120974835
49120979474
49120985272
49120991315
49120997052
49121002301
49121007550
49121012677
49121017804
49121023358
49121029218
49121034467
49121039655
49121045392
49121050763
49121056073
49121061871
49121067242
49121070843
49121077496
49121081708
49121088116
49121092145
49121098920
49121103619
49121108868
49121113873
49121119733
49121125287
49121131207
49121137738
49121142193
49121147992
49121153363
49121158368
49121162213
49121168499
49121174786
49121180951
49121186078
49121191571
49121197125
49121204449
49121209515
49121215374
49121221600
49121225384
49121231488
49121237225
49121242779
49121248883
49121253887
49121260418
49121267315
49121273785
49121280316
49121285870
49121291546
49121296734
49121304058
49121310101
49121316204
49121321209
49121326885
49121333721
49121338360
49121344402
49121349285
49121355267
49121361431
49121366924
49121371502
49121378338
49121384075
49121389141
49121394085
49121400555
49121405804
49121410198
49121416790
49121421856
49121427227
49121433025
49121439007
49121442425
49121448650
49121454815
49121460186
49121465740
49121471660
49121476299
49121482586
49121487529
49121493755
49121499187
49121505169
49121509014
49121514751
49121520977
49121528911
49121533977
49121539287
49121543865
49121550579
49121556072
49121560893
49121567913
49121572978
49121578533
49121584270
49121589519
49121594585
49121600505
49121606181
49121612529
49121618205
49121623332
49121628093
49121635112
49121640483
49121645549
49121651225
49121655742
49121661662
49121667827
49121673015
49121679668
49121684489
49121691081
49121695537
49121701213
49121707377
49121712932
49121718059
49121723857
49121728740
49121733989
49121739116
49121743815
49121749614
49121754985
49121760356
49121766642
49121771647
49121777873
49121783000
49121788615
49121795085
49121799662
49121804972
49121810221
49121815226
49121820903
49121827677
49121831156
49121837443
49121842631
49121848857
49121854350
49121859782
49121866252
49121870707
49121875651
49121881754
49121887370
49121893473
49121899272
49121904521
49121909770
49121916178
49121922526
49121927165
49121932108
49121938029
49121942606
49121948466
49121953898
49121959757
49121965922
49121972025
49121977335
49121982584
49121988871
49121993326
49122000223
49122004984
49122010905
49122016337
49122022074
49122027201
49122032694
49122038920
49122044657
49122050211
49122055826
49122061991
49122067850
49122073832
49122078837
49122084635
49122090433
49122095011
49122101847
49122108133
49122113993
49122119120
49122124247
49122129557
49122135294
49122140787
49122147074
49122152262
49122158182
49122163065
49122168314
49122172952
49122178873
49122184488
49122189005
49122195841
49122200479
49122206339
49122212869
49122218973
49122223795
49122228799
49122234598
49122240274
49122246500
49122251627
49122257364
49122262918
49122267984
49122274149
49122279031
49122286600
49122291910
49122297891
49122304056
49122308816
49122314554
49122321634
49122326517
49122332315
49122339334
49122343057
49122349405
49122351907
49122359598
49122366678
49122372049
49122376931
49122380410
49122386331
49122391458
49122398660
49122404153
49122407632
49122414529
49122420388
49122425637
49122433145
49122438821
49122444192
49122449685
49122455361
49122459268
49122464700
49122469644
49122475808
49122481790
49122486123
49122491677
49122497659
49122503457
49122507852
49122514626
49122520364
49122524636
49122530251
49122534951
49122540871
49122545144
49122550820
49122557107
49122561501
49122566750
49122572488
49122576821
49122582925
49122588235
49122593545
49122598611
49122604165
49122609353
49122614846
49122620156
49122625954
49122632790
49122639443
49122645363
49122653054
49122657143
49122664040
49122668679
49122675637
49122681374
49122686867
49122693703
49122699196
49122704750
49122710671
49122715187
49122720742
49122726601
49122731972
49122737099
49122742897
49122747597
49122753334
49122758827
49122765175
49122769936
49122775734
49122781349
49122786781
49122792030
49122796852
49122803932
49122809181
49122814552
49122819985
49122825539
49122829628
49122835732
49122841591
49122847145
49122852821
49122858742
49122864174
49122871071
49122875832
49122881142
49122888100
49122892372
49122898842
49122904396
49122908668
49122915565
49122921486
49122925758
49122930336
49122935951
49122942238
49122947670
49122953407
49122960121
49122963600
49122970680
49122975380
49122981239
49122987526
49122992469
49122998207
49123002662
49123008400
49123014564
49123019264
49123024940
49123030677
49123035682
49123041419
49123045936
49123051795
49123058509
49123062660
49123068336
49123075050
49123078407
49123084083
49123089637
49123095252
49123100440
49123107093
49123111671
49123117957
49123123451
49123129554
49123134925
49123141395
49123145789
49123151649
49123157874
49123163978
49123169105
49123175452
49123180518
49123184913
49123190833
49123196448
49123202308
49123207557
49123213294
49123218726
49123224647
49123231727
49123237647
49123242286
49123248023
49123254004
49123259314
49123264380
49123269690
49123276099
49123280738
49123285926
49123291785
49123296912
49123302832
49123309546
49123314734
49123320227
49123325293
49123330847
49123335181
49123340857
49123346656
49123353797
49123358924
49123363989
49123367774
49123373572
49123379004
49123384924
49123391089
49123395789
49123401587
49123408057
49123413550
49123418189
49123425635
49123430151
49123434790
49123440344
49123446143
49123452246
49123458716
49123464087
49123468420
49123476111
49123482947
49123486792
49123493811
49123499853
49123506079
49123512793
49123518652
49123524817
49123529455
49123535071
49123542761
49123547827
49123552954
49123557531
49123564245
49123570532
49123576086
49123581518
49123586523
49123592321
49123599585
49123604956
49123610510
49123616064
49123622168
49123626257
49123632299
49123639257
49123644140
49123650488
49123655554
49123661108
49123666357
49123671423
49123676306
49123682592
49123688329
49123692785
49123698766
49123702795
49123709631
49123715185
49123720861
49123726476
49123731481
49123735815
49123741735
49123747289
49123752782
49123759496
49123765234
49123771764
49123777868
49123783849
49123788671
49123793371
49123800329
49123804784
49123810033
49123816015
49123821691
49123827550
49123832982
49123839330
49123844823
49123851110
49123855809
49123862523
49123867162
49123872167
49123877721
49123882726
49123889440
49123894994
49123900243
49123906285
49123912084
49123916478
49123923070
49123929235
49123933934
49123939916
49123946202
49123950658
49123956700
49123962377
49123968602
49123974095
49123979955
49123984960
49123989903
49123996007
49124001256
49124006871
49124012914
49124018468
49124022679
49124029332
49124036046
49124041905
49124047093
49124052342
49124058629
49124064122
49124068761
49124075169
49124079503
49124085362
49124091099
49124095372
49124101475
49124107762
49124113499
49124118687
49124123936
49124130284
49124135289
49124140843
49124147435
49124152256
49124158177
49124161717
49124168187
49124172886
49124178074
49124184239
49124190220
49124195774
49124200901
49124206578
49124211949
49124218113
49124223728
49124229344
49124234715
49124238499
49124245884
49124252354
49124257603
49124263035
49124269200
49124274693
49124278721
49124285984
49124291050
49124295750
49124300816
49124306370
49124313999
49124318821
49124324192
49124329685
49124335423
49124340916
49124346165
49124351963
49124357700
49124362766
49124368565
49124374485
49124379673
49124384678
49124390171
49124394138
49124400059
49124406162
49124410251
49124415561
49124419529
49124426792
49124432346
49124438022
49124442844
49124448032
49124451450
49124457431
49124463901
49124470554
49124475437
49124480869
49124485752
49124491245
49124497226
49124503147
49124508518
49124514194
49124518711
49124525424
49124530979
49124538120
49124542758
49124547641
49124553562
49124559055
49124564609
49124570407
49124575168
49124581699
49124587131
49124592502
49124597812
49124603061
49124608127
49124613498
49124619113
49124623752
49124629184
49124634433
49124639926
49124645847
49124651401
49124655429
49124660007
49124665988
49124671237
49124676486
49124683505
49124687472
49124692233
49124697482
49124702487
49124710055
49124715671
49124719333
49124724582
49124729159
49124735873
49124741061
49124747104
49124752292
49124756442
49124762362
49124766574
49124772006
49124778903
49124783908
49124787997
49124794162
49124798434
49124804354
49124809848
49124816683
49124822360
49124826876
49124831637
49124836581
49124843234
49124848788
49124854342
49124859591
49124864596
49124870028
49124873995
49124881259
49124886508
49124891757
49124897555
49124902010
49124907870
49124914095
49124918490
49124924776
49124929781
49124934115
49124939059
49124944308
49124949435
49124954623
49124961275
49124964510
49124969698
49124975558
49124980196
49124986849
49124991549
49124994906
49125001314
49125006502
49125010653
49125015047
49125021883
49125027804
49125032198
49125038118
49125042025
49125048189
49125053255
49125058260
49125064425
49125070345
49125076082
49125081759
49125086519
49125092928
49125099520
49125104341
49125110567
49125117159
49125122286
49125126070
49125132357
49125138582
49125144014
49125149629
49125155001
49125160860
49125166292
49125170992
49125177156
49125182710
49125188509
49125193697
49125198702
49125204622
49125208528
49125214937
49125219270
49125225618
49125231538
49125238313
49125243440
49125248872
49125253389
49125259187
49125265840
49125272188
49125275850
49125281831
49125286470
49125292512
49125298555
49125303193
49125309602
49125314668
49125319673
49125326082
49125332185
49125337800
49125341523
49125346711
49125353364
49125357270
49125363069
49125368440
49125373933
49125380159
49125385347
49125390107
49125394868
49125400605
49125405793
49125412080
49125416841
49125422151
49125426301
49125431672
49125437898
49125442048
49125447541
49125454560
49125459626
49125463716
49125470551
49125476045
49125481477
49125486482
49125491731
49125496430
49125501740
49125508271
49125513764
49125519196
49125523896
49125530000
49125534333
49125540742
49125547456
49125552521
49125557221
49125562409
49125567414
49125571503
49125578522
49125582368
49125584687
49125589814
49125594514
49125598237
49125603608
49125608185
49125612092
49125615143
49125618683
49125623627
49125627961
49125632477
49125637604
49125641449
49125644806
49125648224
49125652192
49125656159
49125660859
49125665070
49125668183
49125672394
49125677826
49125682892
49125688507
49125692597
49125696564
49125700837
49125704377
49125707856
49125713776
49125718476
49125722748
49125726044
49125729279
49125734711
49125738129
49125743378
49125748017
49125751129
49125755524
49125758942
49125762970
49125768036
49125772675
49125776642
49125780609
49125785065
49125788544
49125792572
49125795990
49125800995
49125804230
49125808563
49125811676
49125815765
49125819794
49125823456
49125827728
49125832428
49125836029
49125840240
49125844818
49125848480
49125853058
49125857025
49125862213
49125866791
49125871673
49125876495
49125880463
49125885101
49125889923
49125895538
49125901703
49125905304
49125909820
49125914825
49125919220
49125923553
49125927093
49125932037
49125936371
49125939727
49125944427
49125948211
49125951873
49125957122
49125962066
49125965606
49125970001
49125974212
49125978546
49125982147
49125987579
49125991851
49125996734
49126000518
49126003936
49126008209
49126015350
49126019866
49126024383
49126028472
49126032928
49126036163
49126042449
49126046478
49126050689
49126054473
49126058563
49126062225
49126065826
49126070281
49126074310
49126079070
49126084197
49126087249
49126091155
49126095733
49126098846
49126104949
49126109161
49126113067
49126116973
49126121124
49126124847
49126129058
49126133453
49126138091
49126141753
49126145782
49126149139
49126153533
49126157989
49126161407
49126166350
49126169890
49126174346
49126177947
49126181914
49126186980
49126190887
49126194793
49126198699
49126202544
49126205596
49126211028
49126215178
49126220061
49126225066
49126228850
49126234404
49126238250
49126243560
49126247527
49126252288
49126256499
49126260222
49126265288
49126270232
49126273223
49126278167
49126282073
49126285857
49126290740
49126295134
49126299224
49126304778
49126310393
49126314299
49126317961
49126323394
49126327971
49126333281
49126336943
49126341155
49126344390
49126348052
49126351348
49126356047
49126359343
49126362639
49126366911
49126372099
49126375334
49126379668
49126384184
49126387908
49126390471
49126394011
49126397856
49126402373
49126406401
49126410368
49126414275
49126417448
49126421782
49126425993
49126429228
49126432158
49126436064
49126439543
49126443266
49126446501
49126449919
49126453032
49126457304
49126459929
49126463652
49126466215
49126469206
49126472136
49126475249
49126478422
49126481352
49126483732
49126486113
49126488737
49126491972
49126493986
49126496184
49126498320
49126501005
49126503447
49126505522
49126508085
49126510466
49126512358
49126514372
49126516264
49126518583
49126520537
49126522429
49126524199
49126526335
49126528349
49126530180
49126532255
49126534147
49126536100
49126537932
49126539885
49126541899
49126543913
49126545744
49126547636
49126549406
49126551603
49126553434
49126555388
49126557402
49126559233
49126561735
49126563566
49126565397
49126567595
49126569487
49126571623
49126573698
49126575468
49126578032
49126580046
49126582121
49126584013
49126586332
49126588346
49126590239
49126592009
49126594023
49126595976
49126597746
49126599699
49126601652
49126603422
49126605070
49126607145
49126609220
49126610807
49126612760
49126615019
49126616911
49126619352
49126621305
49126623258
49126625334
49126627470
49126629667
49126631803
49126633573
49126635526
49126637419
49126639433
49126641203
49126643095
49126644865
49126646757
49126648710
49126650602
49126652433
49126654264
49126656156
49126657926
49126659879
49126662382
49126664274
49126666166
49126667936
49126669950
49126672147
49126674223
49126676420
49126678129
49126680143
49126682584
49126684416
49126686918
49126688688
49126690580
49126692594
49126694486
49126696745
49126698515
49126700468
49126702360
49126704313
49126706327
49126708341
49126710294
49126712186
49126714079
49126716032
49126717863
49126719633
49126721647
49126723356
49126725858
49126727811
49126730070
49126731962
49126733671
49126743131
49126745145
49126747343
49126749052
49126751249
49126753202
49126755399
49126757291
49126759183
49126760953
49126762784
49126764738
49126766691
49126768644
49126770170
49126772245
49126774320
49126776151
49126777921
49126779935
49126781766
49126783536
49126785428
49126787687
49126789518
49126791410
49126793546
49126795255
49126797513
49126799467
49126801603
49126803678
49126805509
49126807401
49126809232
49126811002
49126813688
49126815519
49126817472
49126819425
49126821744
49126823819
49126825651
49126827421
49126829252
49126831266
49126833097
49126835050
49126837003
49126839017
49126840665
49126842496
49126844571
49126846647
49126848600
49126850675
49126852445
49126854337
49126856778
49126858670
49126860685
49126862699
49126864957
49126866849
49126868863
49126870938
49126873014
49126875089
49126877164
49126879056
49126880948
49126882535
49126884549
49126886441
49126888272
49126889859
49126891935
49126893766
49126895658
49126897916
49126899686
49126901578
49126903592
49126905362
49126907559
49126909574
49126911527
49126913480
49126915372
49126917508
49126919156
49126921414
49126923612
49126925382
49126927518
49126929471
49126931729
49126933621
49126935391
49126937406
49126939359
49126941556
49126943570
49126945218
49126947354
49126949185
49126950955
49126952725
49126954923
49126956754
49126958585
49126960843
49126962674
49126964688
49126966702
49126968594
49126970731
49126972562
49126974637
49126976651
49126978543
49126980557
49126982388
49126984647
49126986661
49126988431
49126990506
49126992398
49126994534
49126996304
49126998196
49127000150
49127001920
49127003812
49127005704
49127007535
49127009732
49127011624
49127013333
49127015225
49127017239
49127019498
49127021512
49127023404
49127025174
49127027615
49127029507
49127031216
49127033597
49127035428
49127037442
49127039822
49127041470
49127043668
49127045560
49127047879
49127049710
49127051541
49127053738
49127055569
49127057522
49127059231
49127061124
49127063321
49127065396
49127067105
49127069119
49127070950
49127073453
49127075284
49127077481
49127079373
49127081570
49127083462
49127085415
49127087552
49127089444
49127091519
49127093472
49127095242
49127097378
49127099270
49127101285
49127103177
49127104886
49127106900
49127108670
49127110806
49127112637
49127114651
49127116421
49127118557
49127120572
49127122586
49127124539
49127126126
49127128140
49127130520
49127132535
49127134366
49127136136
49127137845
49127140103
49127142117
49127144009
49127145840
49127147671
49127149746
49127151699
49127153775
49127155850
49127157559
49127159451
49127161526
49127163235
49127165127
49127166897
49127168789
49127170681
49127172573
49127174466
49127176419
49127178250
49127180142
49127182339
49127184353
49127186428
49127188198
49127190152
49127192349
49127194180
49127196194
49127198086
49127200039
49127202053
49127203945
49127206265
49127208157
49127209988
49127212002
49127213833
49127216213
49127218106
49127219998
49127221890
49127223660
49127225735
49127227810
49127229702
49127231838
49127233608
49127235440
49127237454
49127239468
49127241726
49127243435
49127245449
49127247402
49127249172
49127251492
49127253323
49127255398
49127257290
49127259182
49127261440
49127263394
49127265469
49127267300
49127269741
49127271633
49127273403
49127275723
49127277615
49127279507
49127281399
49127283108
49127285183
49127286953
49127288906
49127290920
49127292812
49127295010
49127296780
49127298855
49127300869
49127302700
49127304897
49127306728
49127308804
49127310513
49127312527
49127314297
49127315884
49127318508
49127320400
49127322109
49127324184
49127325710
49127328213
49127330044
49127331936
49127333706
49127335537
49127337795
49127339626
49127341396
49127343105
49127344875
49127346584
49127348415
49127350490
49127353054
49127354702
49127356777
49127358547
49127360683
49127362942
49127364834
49127366665
49127368618
49127370449
49127372585
49127374538
49127376797
49127378567
49127380398
49127382229
49127384060
49127386562
49127388454
49127390224
49127392177
49127394008
49127396023
49127397915
49127399807
49127401760
49127403713
49127405605
49127407497
49127409206
49127411220
49127413051
49127415432
49127417141
49127419277
49127421352
49127423305
49127425686
49127427517
49127429409
49127431667
49127433437
49127435512
49127437465
49127439418
49127441494
49127443325
49127445400
49127447353
49127449245
49127451259
49127453029
49127454860
49127456752
49127458583
49127460292
49127462001
49127464016
49127465725
49127467739
49127469448
49127471279
49127473537
49127475551
49127477260
49127479396
49127481472
49127483486
49127485439
49127487392
49127489711
49127491420
49127493679
49127495449
49127497463
49127499294
49127501186
49127503078
49127504970
49127506862
49127508693
49127510768
49127512355
49127514247
49127516139
49127517848
49127519680
49127521999
49127524013
49127526210
49127527919
49127529994
49127532070
49127534023
49127536464
49127538417
49127540248
49127542323
49127544338
49127546596
49127548488
49127550441
49127552455
49127554286
49127556178
49127558009
49127559780
49127561488
49127563503
49127565456
49127567287
49127568996
49127571132
49127572963
49127574855
49127576686
49127578456
49127580348
49127582301
49127584255
49127586330
49127588161
49127589870
49127591945
49127594325
49127596401
49127598293
49127600490
49127602565
49127604823
49127606532
49127608608
49127610378
49127612270
49127614406
49127616237
49127618068
49127620021
49127621913
49127623622
49127625636
49127627589
49127629543
49127631496
49127633327
49127635158
49127637111
49127639125
49127640895
49127642909
49127644862
49127646876
49127649013
49127651027
49127653102
49127654933
49127657191
49127659267
49127661159
49127663417
49127665431
49127667567
49127669520
49127671046
49127673427
49127675258
49127677455
49127679286
49127681056
49127683314
49127685084
49127687037
49127688807
49127690639
49127692653
49127694423
49127696254
49127698207
49127699977
49127701747
49127703761
49127705836
49127707667
49127709437
49127711513
49127713466
49127715663
49127717616
49127719447
49127721522
49127723475
49127725734
49127727687
49127729518
49127731654
49127733424
49127735377
49127737208
49127739161
49127740870
49127742946
49127744777
49127746669
49127748622
49127750636
49127752528
49127754359
49127756129
49127758021
49127760096
49127762172
49127764308
49127766566
49127768641
49127770411
49127772242
49127774318
49127776271
49127778163
49127780116
49127782130
49127784327
49127786158
49127788172
49127789820
49127791957
49127794032
49127795985
49127797938
49127799891
49127801722
49127803675
49127805690
49127807582
49127809474
49127811366
49127813197
49127815211
49127817103
49127819300
49127821009
49127822901
49127824549
49127826563
49127828883
49127830836
49127832606
49127834559
49127836451
49127839564
49127841456
49127843470
49127845362
49127847560
49127849452
49127851344
49127853236
49127854884
49127856837
49127858546
49127860255
49127862391
49127864405
49127866053
49127867884
49127869593
49127871668
49127873499
49127875453
49127877467
49127879359
49127881495
49127883265
49127885401
49127887171
49127889185
49127891200
49127892970
49127895472
49127897364
49127899134
49127901026
49127902735
49127905116
49127906886
49127908778
49127910670
49127912501
49127914759
49127916834
49127918543
49127920313
49127922144
49127924097
49127926051
49127927698
49127929896
49127931605
49127933558
49127935511
49127937525
49127940394
49127942103
49127944361
49127946253
49127948145
49127950098
49127952051
49127954188
49127956080
49127957911
49127960291
49127962183
49127964075
49127966089
49127968043
49127969874
49127971705
49127973536
49127975489
49127977442
49127979334
49127981287
49127983240
49127985132
49127986963
49127988856
49127990748
49127992762
49127994593
49127996668
49127998438
49128000269
49128002527
49128004419
49128006495
49128008570
49128010340
49128012476
49128014185
49128016382
49128018458
49128020411
49128022181
49128024134
49128026575
49128028406
49128030176
49128032068
49128033960
49128035853
49128037806
49128039698
49128041712
49128043543
49128045313
49128047205
49128049097
49128051111
49128053064
49128055079
49128056849
49128058802
49128061243
49128063074
49128065393
49128067163
49128069056
49128071131
49128072962
49128074854
49128076807
49128078455
49128081018
49128083094
49128084986
49128086878
49128088770
49128090723
49128092676
49128094446
49128096399
49128098230
49128100244
49128102259
49128104212
49128105982
49128108057
49128110071
49128111963
49128114221
49128115991
49128118128
49128119837
49128121851
49128124353
49128126245
49128128687
49128130396
49128132288
49128134241
49128136194
49128138635
49128140344
49128142237
49128144068
49128146021
49128147974
49128149866
49128151758
49128153650
49128155481
49128157434
49128159387
49128161279
49128163172
49128165186
49128167444
49128169458
49128171228
49128173486
49128175379
49128177698
49128179346
49128181299
49128184229
49128189478
49128192957
49128194788
49128196619
49128198694
49128200525
49128202478
49128204370
49128206201
49128208398
49128210229
49128212183
49128213953
49128216089
49128217798
49128219629
49128221643
49128223291
49128225305
49128227075
49128229028
49128231165
49128232873
49128234949
49128236780
49128238794
49128241174
49128242944
49128245142
49128246912
49128248804
49128250818
49128252771
49128255029
49128256982
49128258752
49128260644
49128262720
49128264673
49128266626
49128268457
49128270349
49128271997
49128274133
49128276208
49128278039
49128280176
49128282068
49128284692
49128286462
49128288354
49128290674
49128292322
49128294885
49128296716
49128298608
49128300805
49128302514
49128304712
49128306421
49128308130
49128310327
49128312158
49128314111
49128315942
49128317773
49128319543
49128321313
49128323327
49128325097
49128326989
49128329126
49128331079
49128332971
49128334924
49128336694
49128338708
49128340478
49128342798
49128344751
49128346765
49128348840
49128350610
49128353112
49128354821
49128356591
49128358545
49128360498
49128362817
49128364709
49128366540
49128368493
49128370507
49128372399
49128374292
49128376123
49128378198
49128379968
49128381921
49128383569
49128385583
49128387353
49128389062
49128390710
49128392724
49128394433
49128396630
49128398645
49128400537
49128402490
49128404199
49128406274
49128408166
49128410424
49128412316
49128414331
49128415978
49128418054
49128420312
49128422082
49128424157
49128425988
49128428002
49128430322
49128432153
49128434045
49128435815
49128437646
49128439660
49128441552
49128443444
49128445275
49128447228
49128448998
49128451379
49128453210
49128455407
49128457604
49128459557
49128461327
49128463342
49128465173
49128467187
49128469079
49128470910
49128472802
49128474938
49128476769
49128479150
49128481225
49128483178
49128485314
49128487023
49128489220
49128491052
49128493066
49128494775
49128496850
49128498742
49128500695
49128502465
49128504418
49128506310
49128508752
49128510583
49128512536
49128514184
49128516076
49128518456
49128520226
49128522301
49128524010
49128525903
49128528161
49128530114
49128532433
49128534447
49128536340
49128538171
49128540124
49128542504
49128544335
49128546227
49128548180
49128550011
49128552025
49128553979
49128555749
49128557458
49128559472
49128561364
49128563378
49128565209
49128567223
49128569176
49128571129
49128573144
49128575219
49128577172
49128579308
49128581200
49128583275
49128585351
49128587548
49128589440
49128591820
49128593651
49128595604
49128597802
49128599694
49128601830
49128603722
49128605370
49128607567
49128609643
49128611657
49128613427
49128615502
49128617211
49128619164
49128621361
49128623314
49128625329
49128627160
49128628930
49128631127
49128632958
49128635094
49128636864
49128638878
49128641076
49128642907
49128644982
49128646813
49128648827
49128651024
49128652916
49128655053
49128656884
49128658776
49128660851
49128662682
49128664757
49128666649
49128668480
49128670433
49128672264
49128674218
49128676110
49128677941
49128679955
49128681847
49128683739
49128685448
49128687462
49128689537
49128691490
49128693260
49128695397
49128697167
49128699242
49128701439
49128703392
49128705101
49128707176
49128708946
49128710778
49128712731
49128714501
49128716393
49128718468
49128720421
49128722130
49128723900
49128725853
49128727623
49128729576
49128732018
49128733727
49128735741
49128737328
49128739342
49128741600
49128743370
49128745629
49128747582
49128749535
49128751610
49128753380
49128755821
49128757897
49128759728
49128761681
49128763451
49128765892
49128767662
49128769554
49128771385
49128773155
49128775353
49128777184
49128779198
49128781151
49128782860
49128784996
49128786888
49128788963
49128790916
49128792748
49128794884
49128796837
49128798851
49128800743
49128802818
49128804832
49128806847
49128808739
49128810875
49128812767
49128814720
49128816978
49128819115
49128821251
49128823326
49128825279
49128827110
49128829185
49128831016
49128832970
49128834984
49128836998
49128838951
49128840538
49128842552
49128844871
49128846580
49128848534
49128850487
49128852257
49128854576
49128856407
49128858299
49128860374
49128862205
49128864097
49128866173
49128868126
49128869713
49128871544
49128873680
49128875389
49128877281
49128878990
49128880943
49128882835
49128884605
49128886619
49128888450
49128890465
49128892479
49128894371
49128896263
49128898155
49128900230
49128902305
49128904197
49128906273
49128908226
49128910179
49128912193
49128914085
49128916099
49128917930
49128919761
49128921898
49128923668
49128925377
49128927330
49128929161
49128931175
49128933006
49128934776
49128937156
49128939171
49128940941
49128942894
49128945091
49128946739
49128948692
49128950950
49128952903
49128954918
49128956871
49128958885
49128961143
49128963035
49128965232
49128967063
49128969200
49128970909
49128972862
49128975120
49128977012
49128979026
49128980674
49128982688
49128984825
49128986717
49128988731
49128990379
49128992210
49128994102
49128996055
49128998130
49129000144
49129002037
49129003868
49129005760
49129008018
49129009910
49129011802
49129014121
49129015953
49129018394
49129020225
49129022178
49129024497
49129026512
49129028343
49129030174
49129032066
49129034141
49129035972
49129037681
49129039695
49129041404
49129043540
49129045493
49129047202
49129049278
49129051414
49129053489
49129055381
49129057517
49129059715
49129062156
49129064231
49129066123
49129068321
49129070274
49129072227
49129074302
49129076194
49129078269
49129080222
49129082176
49129083946
49129086143
49129088035
49129089988
49129091636
49129093650
49129095664
49129097678
49129099509
49129101340
49129103294
49129105125
49129107017
49129108848
49129110984
49129112754
49129114646
49129116538
49129118369
49129120628
49129122276
49129124351
49129125999
49129128074
49129130149
49129132163
49129134055
49129135886
49129137717
49129139670
49129141502
49129143272
49129145103
49129147178
49129149009
49129150657
49129152732
49129154624
49129156516
49129158774
49129160789
49129162803
49129164878
49129166648
49129168601
49129170493
49129173057
49129174766
49129176658
49129178794
49129180747
49129183005
49129184897
49129186912
49129189048
49129190940
49129192771
49129194724
49129196433
49129198569
49129200522
49129202414
49129204123
49129205771
49129207847
49129209800
49129211509
49129213340
49129215232
49129217307
49129219138
49129221213
49129223044
49129224753
49129227012
49129228782
49129230918
49129232932
49129234702
49129236777
49129238608
49129240744
49129242575
49129244651
49129246543
49129248374
49129250327
49129252219
49129254172
49129256064
49129257956
49129259909
49129261740
49129263633
49129265708
49129267783
49129269614
49129271689
49129273642
49129275595
49129277365
49129279380
49129281272
49129283652
49129285605
49129287436
49129289695
49129291648
49129294028
49129295920
49129297690
49129299948
49129302451
49129304465
49129306601
49129308676
49129310813
49129312583
49129315146
49129317099
49129319052
49129320944
49129322837
49129324790
49129326682
49129328879
49129330954
49129333029
49129335044
49129337058
49129339133
49129341147
49129343039
49129345358
49129347067
49129349387
49129351340
49129353354
49129355368
49129357504
49129359580
49129361289
49129363120
49129365256
49129367087
49129368979
49129370932
49129372824
49129374777
49129376669
49129378745
49129380515
49129382468
49129384055
49129386069
49129388388
49129390097
49129392050
49129393759
49129395712
49129397971
49129399558
49129401999
49129403708
49129405722
49129407736
49129409689
49129411581
49129413290
49129415366
49129417380
49129419211
49129420981
49129422873
49129424887
49129426657
49129428549
49129430441
49129432211
49129434225
49129435995
49129438071
49129440207
49129442160
49129444052
49129446005
49129448019
49129450278
49129452048
49129454062
49129456198
49129458029
49129460287
49129462057
49129463949
49129466147
49129467978
49129470358
49129472494
49129474081
49129476156
49129478110
49129479941
49129481833
49129483603
49129485495
49129487509
49129489279
49129491232
49129493002
49129494894
49129496725
49129498739
49129500448
49129502524
49129504233
49129506125
49129508322
49129509970
49129511923
49129513571
49129515768
49129518026
49129519857
49129521689
49129523581
49129525534
49129527609
49129529440
49129531271
49129533102
49129534933
49129536825
49129538534
49129540487
49129542501
49129544455
49129546408
49129548605
49129550314
49129552511
49129554403
49129556662
49129558737
49129560629
49129563009
49129565084
49129566977
49129568991
49129571066
49129573141
49129575155
49129577169
49129579245
49129581015
49129583151
49129584982
49129586935
49129588888
49129590963
49129592672
49129594808
49129596640
49129598349
49129600119
49129602072
49129603903
49129605673
49129607443
49129609640
49129611532
49129613302
49129615377
49129617269
49129619467
49129621298
49129623068
49129625082
49129627035
49129629232
49129631246
49129633016
49129634786
49129636740
49129638998
49129640768
49129642599
49129644369
49129646383
49129648397
49129650289
49129652120
49129654134
49129655966
49129657736
49129659628
49129661581
49129663717
49129665792
49129667745
49129669637
49129671468
49129673605
49129675497
49129677511
49129679342
49129681234
49129683431
49129685384
49129687704
49129689352
49129691305
49129693136
49129695089
49129697408
49129699178
49129701131
49129703024
49129704977
49129706930
49129708944
49129710897
49129712667
49129714742
49129716940
49129718954
49129720907
49129722616
49129724691
49129726888
49129728841
49129730794
49129732870
49129734640
49129736654
49129738546
49129740743
49129742574
49129744466
49129746419
49129748128
49129750326
49129752340
49129754293
49129756124
49129757833
49129759786
49129761617
49129763326
49129765523
49129767415
49129769063
49129771139
49129772848
49129774984
49129776876
49129778707
49129780660
49129782552
49129784749
49129787130
49129788839
49129790914
49129793111
49129795125
49129796956
49129799276
49129801290
49129803365
49129805379
49129807454
49129809469
49129811239
49129813253
49129815328
49129817403
49129819478
49129821309
49129823201
49129825155
49129827047
49129829305
49129831197
49129833089
49129834859
49129836873
49129839010
49129840841
49129843038
49129844991
49129846639
49129848775
49129850789
49129853414
49129855184
49129857076
49129859212
49129861104
49129863362
49129865194
49129867147
49129869100
49129870870
49129873067
49129874837
49129876607
49129878499
49129880391
49129882100
49129884053
49129886006
49129888021
49129889913
49129891683
49129893392
49129895467
49129897542
49129899373
49129901265
49129903157
49129904988
49129907064
49129909322
49129911519
49129913350
49129915059
49129917073
49129918904
49129920796
49129922566
49129924520
