18768135669
18768140918
18768146472
18768152209
18768157580
18768164172
18768170703
18768175280
18768182483
18768188464
18768194262
18768200671
18768206469
18768212451
18768218615
18768224475
18768230395
18768237109
18768243579
18768249255
18768254138
18768259753
18768266101
18768271289
18768275988
18768283190
18768288989
18768294299
18768301989
18768308154
18768313159
18768319994
18768325182
18768331896
18768339159
18768346606
18768354418
18768360705
18768368334
18768373461
18768380541
18768386706
18768393236
18768400744
18768406298
18768413866
18768419115
18768427477
18768435473
18768442309
18768449083
18768455858
18768461901
18768469347
18768476183
18768481432
18768490709
18768503161
18768509630
18768516710
18768523790
18768529345
18768536486
18768544542
18768550768
18768557848
18768563036
18768570299
18768577562
18768584215
18768590196
18768598253
18768602770
18768612352
18768619737
18768626573
18768634020
18768641893
18768650865
18768661424
18768669054
18768677538
18768683458
18768692308
18768702135
18768711473
18768719285
18768724901
18768732652
18768740037
18768746324
18768752305
18768759996
18768766343
18768774705
18768786790
18768798631
18768808824
18768817552
18768827745
18768836412
18768845079
18768853013
18768859544
18768867539
18768875535
18768883775
18768890733
18768898911
18768905564
18768915879
18768923386
18768930833
18768937852
18768945542
18768952744
18768960862
18768968613
18768975327
18768985886
18768993638
18769002305
18769009751
18769016831
18769025986
18769039109
18769047532
18769056931
18769066391
18769072678
18769081101
18769087876
18769097763
18769105698
18769113144
18769120285
18769127915
18769134934
18769142624
18769150559
18769158249
18769166184
18769174423
18769181992
18769187729
18769196579
18769205063
18769213303
18769218979
18769226608
18769232773
18769242355
18769249374
18769256454
18769264145
18769272751
18769279282
18769286240
18769293686
18769301376
18769308823
18769315597
18769324264
18769328232
18769341171
18769346847
18769353805
18769361862
18769370346
18769377914
18769383835
18769391708
18769397873
18769405990
18769412216
18769421493
18769429733
18769437301
18769444320
18769451889
18769459152
18769466720
18769474777
18769480636
18769488265
18769494979
18769503768
18769510909
18769519515
18769526412
18769537338
18769542342
18769553207
18769562850
18769570541
18769578292
18769585860
18769591781
18769599532
18769608321
18769616256
18769623641
18769630965
18769636947
18769644088
18769651351
18769658797
18769665755
18769673201
18769680404
18769687850
18769695052
18769702498
18769709273
18769717818
18769725936
18769734175
18769741378
18769747054
18769754988
18769760970
18769768843
18769775252
18769783980
18769789961
18769797896
18769803999
18769812117
18769818343
18769826949
18769836653
18769843855
18769851180
18769858138
18769865462
18769873274
18769879378
18769887862
18769893050
18769904219
18769911909
18769919111
18769926619
18769934614
18769942122
18769953474
18769959822
18769967329
18769976729
18769983503
18769992598
18769998945
18770008284
18770017195
18770025129
18770033735
18770042341
18770050581
18770057905
18770066816
18770073835
18770082624
18770092817
18770099775
18770109113
18770117780
18770126142
18770132551
18770139997
18770150190
18770158247
18770167402
18770173872
18770183393
18770191206
18770197736
18770204938
18770213117
18770221540
18770227521
18770235639
18770243390
18770251935
18770260297
18770269635
18770277753
18770285199
18770292463
18770300885
18770309797
18770318280
18770326947
18770335492
18770342877
18770350812
18770359235
18770366620
18770374982
18770383588
18770391461
18770399823
18770410016
18770420026
18770429486
18770436566
18770443524
18770452985
18770460309
18770468182
18770475873
18770482587
18770490033
18770496686
18770506756
18770514264
18770521222
18770528546
18770536603
18770543866
18770551861
18770559002
18770564373
18770574444
18770582440
18770589886
18770594281
18770602581
18770611676
18770620159
18770628216
18770634747
18770643475
18770650006
18770656658
18770663983
18770669171
18770676190
18770682903
18770690777
18770695843
18770703106
18770710491
18770717388
18770724651
18770730145
18770735760
18770743328
18770748699
18770755413
18770761028
18770768841
18770775066
18770783794
18770788067
18770797222
18770801372
18770808758
18770815044
18770824138
18770830181
18770839580
18770844219
18770852520
18770859234
18770867840
18770875042
18770881755
18770890972
18770898296
18770906719
18770912578
18770920879
18770928386
18770935039
18770943767
18770952739
18770959941
18770969036
18770978679
18770986980
18770993877
18771002727
18771009990
18771018779
18771025432
18771033672
18771039714
18771047588
18771053569
18771061748
18771066325
18771074809
18771080730
18771089336
18771093608
18771102641
18771109843
18771118144
18771122233
18771131816
18771139018
18771146281
18771153483
18771160624
18771168498
18771177104
18771183940
18771191630
18771198954
18771206523
18771214396
18771221720
18771228801
18771234599
18771242472
18771250834
18771259501
18771265971
18771274088
18771282267
18771287150
18771297892
18771303019
18771313944
18771318766
18771328471
18771335429
18771344157
18771351359
18771361124
18771368815
18771377848
18771384684
18771393656
18771400736
18771408182
18771417399
18771425333
18771432902
18771440653
18771449564
18771457071
18771463297
18771471659
18771480021
18771488321
18771494608
18771502604
18771511148
18771519876
18771528055
18771533976
18771542093
18771550516
18771558878
18771566690
18771574930
18771582865
18771591409
18771598123
18771606424
18771611551
18771622842
18771627969
18771638101
18771645059
18771653665
18771660562
18771668924
18771676126
18771684671
18771693948
18771702127
18771708963
18771716775
18771723062
18771733194
18771740091
18771749734
18771760476
18771769143
18771776040
18771785012
18771794656
18771803384
18771810403
18771820718
18771829873
18771836648
18771844949
18771853250
18771861794
18771869180
18771877542
18771884866
18771893105
18771899148
18771907449
18771916787
18771923013
18771929910
18771939004
18771946206
18771955483
18771962807
18771970986
18771977883
18771985512
18771994729
18772001015
18772010049
18772017190
18772025857
18772032937
18772039162
18772047280
18772052956
18772062172
18772067543
18772075356
18772082436
18772088601
18772095559
18772101845
18772106972
18772115334
18772120400
18772127236
18772133156
18772140480
18772146584
18772153054
18772160073
18772166237
18772172402
18772178871
18772184914
18772191200
18772198219
18772204811
18772210060
18772216713
18772222694
18772228066
18772235756
18772241005
18772248634
18772255348
18772261330
18772265053
18772274513
18772280678
18772287086
18772293434
18772300148
18772306557
18772313026
18772319191
18772325783
18772333778
18772339332
18772344764
18772350197
18772355690
18772362159
18772368934
18772374061
18772378883
18772385475
18772390907
18772395973
18772401527
18772406593
18772416053
18772422401
18772431922
18772438148
18772447730
18772454322
18772460426
18772467201
18772472572
18772478248
18772483863
18772489417
18772496070
18772501075
18772507301
18772513709
18772520484
18772524879
18772530677
18772536536
18772542396
18772547218
18772553748
18772559608
18772565711
18772571998
18772577308
18772583045
18772589393
18772594459
18772600989
18772606666
18772612464
18772616248
18772623511
18772627540
18772634986
18772638648
18772646949
18772650916
18772659644
18772663672
18772672461
18772678016
18772684424
18772688391
18772696509
18772700415
18772707679
18772711463
18772719336
18772726966
18772731787
18772737647
18772743628
18772749854
18772754553
18772760291
18772766394
18772772620
18772778723
18772783484
18772789343
18772795386
18772802283
18772808447
18772815466
18772821265
18772827918
18772832922
18772839514
18772846533
18772851843
18772858740
18772864172
18772872717
18772878149
18772885168
18772890417
18772897070
18772903174
18772909521
18772914160
18772920202
18772926916
18772932593
18772937658
18772944433
18772949438
18772957373
18772962927
18772969397
18772975744
18772981543
18772986731
18772992895
18772998510
18773010961
18773017736
18773026892
18773037634
18773043493
18773053076
18773059728
18773065527
18773071569
18773076269
18773082433
18773088476
18773092199
18773100317
18773106359
18773112219
18773118017
18773123754
18773129858
18773134557
18773141271
18773146459
18773152502
18773158483
18773163732
18773170080
18773177099
18773182592
18773191320
18773197240
18773205297
18773209386
18773217626
18773221959
18773229528
18773235387
18773243749
18773249730
18773257543
18773261632
18773271215
18773275365
18773284215
18773290685
18773298131
18773302465
18773311193
18773317296
18773324742
18773330846
18773339940
18773344090
18773352819
18773359410
18773367650
18773374852
18773382482
18773388646
18773397313
18773406590
18773413304
18773419713
18773428075
18773436742
18773444371
18773450719
18773458714
18773467198
18773472020
18773481602
18773489293
18773497471
18773504552
18773512181
18773521763
18773528660
18773534703
18773543004
18773552159
18773561375
18773568089
18773575901
18773584202
18773590489
18773599217
18773606968
18773613255
18773620335
18773628514
18773637181
18773645603
18773652806
18773660862
18773667210
18773676182
18773682713
18773690586
18773697849
18773707066
18773712559
18773720066
18773727879
18773737766
18773744114
18773754490
18773763340
18773767612
18773775486
18773779087
18773787388
18773794529
18773800632
18773805454
18773811619
18773817905
18773824070
18773829563
18773835727
18773843113
18773847812
18773854892
18773859531
18773866550
18773873203
18773879367
18773884372
18773892002
18773896640
18773903232
18773909824
18773915744
18773922336
18773926914
18773934848
18773940341
18773945957
18773953952
18773960971
18773966403
18773971652
18773979770
18773983371
18773989719
18773995273
18774001560
18774007907
18774014072
18774020358
18774024814
18774032077
18774037936
18774047214
18774050754
18774057712
18774062411
18774070407
18774075900
18774081271
18774086642
18774095737
18774102878
18774107882
18774114840
18774120700
18774127475
18774131747
18774136874
18774143039
18774149325
18774155856
18774160922
18774167636
18774172519
18774180148
18774184054
18774191561
18774197360
18774202487
18774209689
18774215426
18774221347
18774227267
18774234042
18774238436
18774245333
18774250033
18774258517
18774262545
18774270541
18774276583
18774284091
18774292452
18774303439
18774313204
18774324679
18774331454
18774341219
18774347994
18774355868
18774362093
18774368441
18774375216
18774380648
18774388216
18774395052
18774400850
18774405489
18774411287
18774417208
18774423678
18774428499
18774434664
18774441500
18774447603
18774452181
18774458712
18774463472
18774470308
18774475008
18774482271
18774488985
18774493624
18774500277
18774506807
18774513033
18774519197
18774526705
18774533541
18774539522
18774546053
18774551851
18774558504
18774564302
18774571871
18774577974
18774585176
18774590547
18774596712
18774601961
18774609163
18774615450
18774620332
18774625520
18774631807
18774637422
18774643892
18774649141
18774656404
18774660432
18774667818
18774671480
18774680879
18774686128
18774692598
18774699190
18774704011
18774707796
18774716157
18774723298
18774729280
18774736726
18774742219
18774749482
18774755159
18774762056
18774768403
18774774080
18774781160
18774789094
18774795259
18774802522
18774809907
18774815705
18774822541
18774828095
18774835725
18774842439
18774847871
18774854646
18774859834
18774866120
18774873200
18774877900
18774887055
18774895417
18774906525
18774917878
18774932954
18774945588
18774951508
18774962983
18774970368
18774975800
18774982697
18774989228
18774996186
18775001374
18775009369
18775016633
18775021637
18775030243
18775037751
18775044037
18775049958
18775056977
18775061860
18775068512
18775074006
18775080963
18775086701
18775093903
18775101593
18775107636
18775111664
18775120270
18775124542
18775133209
18775141022
18775146088
18775153229
18775158295
18775165497
18775172821
18775177338
18775184845
18775192047
18775197296
18775203461
18775211884
18775216827
18775226471
18775231110
18775239105
18775246490
18775254486
18775262360
18775270172
18775276947
18775284210
18775291534
18775298797
18775305084
18775309967
18775319183
18775326324
18775335296
18775340118
18775348846
18775354950
18775361114
18775367828
18775375091
18775380096
18775386993
18775390655
18775398162
18775401824
18775409210
18775416412
18775423126
18775430145
18775436553
18775443328
18775447967
18775455291
18775460418
18775467315
18775474090
18775480560
18775485687
18775491973
18775497039
18775504424
18775509673
18775516448
18775521697
18775529205
18775535003
18775541045
18775546905
18775553557
18775559417
18775568450
18775573882
18775579558
18775585723
18775591704
18775597686
18775604949
18775611114
18775615874
18775626677
18775632476
18775638396
18775645232
18775651213
18775657500
18775663420
18775668914
18775673125
18775680022
18775684844
18775691497
18775697173
18775704253
18775709746
18775715361
18775721160
18775726409
18775731597
18775737090
18775743559
18775749358
18775754790
18775761748
18775770659
18775776885
18775788908
18775795195
18775801360
18775807280
18775813750
18775820097
18775825407
18775833586
18775841948
18775848357
18775853056
18775859587
18775865568
18775870329
18775878020
18775884306
18775891203
18775897734
18775903959
18775910978
18775916350
18775924284
18775931974
18775938627
18775944120
18775951384
18775958281
18775964872
18775971769
18775978422
18775985685
18775990873
18775997587
18776004423
18776011259
18776016386
18776023283
18776030180
18776038236
18776044279
18776050688
18776056852
18776063688
18776070646
18776078275
18776085600
18776090910
18776099088
18776105131
18776110807
18776116178
18776123380
18776128812
18776137357
18776144559
18776151700
18776159025
18776166288
18776172147
18776179288
18776186185
18776194059
18776201932
18776207609
18776214383
18776221036
18776227323
18776234220
18776241056
18776247892
18776253812
18776260709
18776266751
18776273648
18776279569
18776285245
18776293546
18776299100
18776306913
18776312345
18776319486
18776325589
18776333341
18776340177
18776346890
18776353665
18776360318
18776365750
18776372464
18776379422
18776386380
18776393338
18776400296
18776408047
18776413235
18776421536
18776426358
18776433560
18776440579
18776446500
18776453397
18776458951
18776466092
18776472684
18776479947
18776485562
18776493802
18776500821
18776506863
18776513638
18776521084
18776527615
18776532925
18776541043
18776549405
18776556363
18776562100
18776570889
18776576992
18776584133
18776591641
18776597866
18776603237
18776612515
18776618374
18776624905
18776632473
18776639065
18776644314
18776651577
18776659756
18776666470
18776675381
18776682766
18776689541
18776698025
18776706265
18776713406
18776721645
18776730190
18776736538
18776745693
18776752041
18776760830
18776769253
18776776760
18776785854
18776793606
18776799282
18776807461
18776815395
18776823147
18776830532
18776838527
18776847316
18776856350
18776863124
18776872341
18776881679
18776884853
18776897548
18776902980
18776914272
18776920009
18776932399
18776940029
18776951259
18776956325
18776968776
18776977382
18776985927
18776994594
18777000392
18777007167
18777013698
18777019801
18777026393
18777032680
18777039760
18777046474
18777052455
18777058925
18777065822
18777071986
18777078090
18777083888
18777091762
18777097987
18777104091
18777110377
18777114955
18777122828
18777129298
18777134059
18777141810
18777148097
18777151820
18777160487
18777167140
18777173610
18777177211
18777186183
18777193263
18777199794
18777205287
18777211573
18777218104
18777224635
18777230128
18777238368
18777244410
18777249476
18777257044
18777262537
18777269679
18777274867
18777281275
18777289698
18777296046
18777302271
18777308985
18777315272
18777321436
18777325098
18777333216
18777340113
18777346522
18777353052
18777359705
18777365992
18777371607
18777376917
18777382776
18777389857
18777394617
18777401026
18777407740
18777414515
18777420557
18777426783
18777432581
18777438074
18777443506
18777450403
18777456141
18777461939
18777468164
18777474695
18777480005
18777486292
18777491968
18777497217
18777504907
18777510462
18777518091
18777525293
18777532007
18777538416
18777544824
18777550928
18777556726
18777563318
18777569299
18777575647
18777582178
18777587732
18777594385
18777600427
18777606653
18777611963
18777616846
18777623254
18777630212
18777635217
18777640100
18777647668
18777653100
18777660669
18777667016
18777673364
18777679773
18777686242
18777690149
18777698694
18777705591
18777712304
18777719079
18777725488
18777730920
18777737451
18777744714
18777751062
18777755822
18777762292
18777768518
18777774743
18777780786
18777787194
18777795068
18777799890
18777806420
18777813439
18777820458
18777825830
18777832971
18777838403
18777845483
18777850732
18777862084
18777868188
18777874841
18777882043
18777888757
18777895959
18777902551
18777907983
18777915002
18777922509
18777927880
18777934106
18777941308
18777947900
18777953393
18777961022
18777968590
18777975060
18777981774
18777988427
18777995019
18778001671
18778006554
18778015221
18778022057
18778028344
18778033776
18778040062
18778046532
18778052819
18778059777
18778064721
18778072594
18778077416
18778084984
18778092064
18778098229
18778103539
18778112084
18778120018
18778125878
18778135399
18778141747
18778149925
18778155235
18778162682
18778170372
18778178307
18778183189
18778189964
18778196861
18778202904
18778210167
18778216881
18778224327
18778230308
18778235741
18778243126
18778248375
18778256004
18778261375
18778268883
18778273094
18778281334
18778284874
18778293907
18778300071
18778307457
18778314537
18778319786
18778327781
18778334617
18778341514
18778348594
18778353050
18778362022
18778370079
18778377464
18778381736
18778390098
18778396751
18778405601
18778410179
18778418785
18778425804
18778432884
18778436912
18778446433
18778454124
18778462180
18778469810
18778475425
18778481773
18778491355
18778499412
18778506126
18778513267
18778520835
18778529990
18778538047
18778544822
18778552329
18778561118
18778568870
18778574302
18778583579
18778589622
18778598105
18778603904
18778611411
18778619040
18778626120
18778634055
18778642234
18778648093
18778656150
18778662070
18778670432
18778678733
18778687522
18778693259
18778697592
18778708457
18778717551
18778723532
18778731101
18778738608
18778748435
18778754172
18778761557
18778769431
18778775900
18778781455
18778791220
18778798178
18778806967
18778813681
18778821432
18778827597
18778837240
18778843954
18778850668
18778859457
18778870077
18778877707
18778883139
18778891501
18778896689
18778903525
18778908957
18778915915
18778921286
18778928427
18778933737
18778941671
18778947226
18778954428
18778961264
18778967428
18778971212
18778979757
18778983480
18778991110
18778997030
18779004721
18779011190
18779017294
18779022543
18779028646
18779034750
18779040853
18779047262
18779054525
18779060079
18779066732
18779072408
18779079549
18779085348
18779092306
18779098348
18779105245
18779110250
18779116293
18779122274
18779127035
18779134908
18779138326
18779145833
18779153036
18779158590
18779164632
18779170308
18779175558
18779180074
18779186910
18779194051
18779200582
18779205343
18779212606
18779218160
18779236470
18779243123
18779247945
18779254964
18779260518
18779265950
18779273519
18779279927
18779286214
18779292378
18779299336
18779304158
18779311727
18779318013
18779323567
18779328633
18779336019
18779341206
18779348042
18779353352
18779361470
18779367696
18779374043
18779381429
18779388264
18779393636
18779400288
18779407735
18779414510
18779421162
18779428548
18779436360
18779443379
18779451131
18779457112
18779465596
18779469563
18779478779
18779488972
18779495564
18779502583
18779507405
18779514485
18779520832
18779526448
18779533345
18779540608
18779545430
18779553242
18779560200
18779565876
18779572895
18779578327
18779585652
18779593403
18779599018
18779606770
18779612385
18779618916
18779624409
18779634113
18779642536
18779648823
18779654987
18779661518
18779667744
18779674030
18779680134
18779686543
18779693439
18779699787
18779705463
18779711994
18779719379
18779724201
18779732746
18779737629
18779744404
18779759846
18779767597
18779773762
18779780048
18779784015
18779793354
18779797321
18779805439
18779811908
18779818317
18779822834
18779832416
18779839740
18779846271
18779853473
18779858356
18779866352
18779871234
18779879169
18779884052
18779891376
18779898151
18779904010
18779910968
18779916706
18779923663
18779930377
18779938007
18779945026
18779950580
18779956744
18779964313
18779971698
18779977557
18779985187
18779993365
18780000384
18780004596
18780016681
18780023883
18780030597
18780040301
18780047687
18780055438
18780063006
18780070941
18780079669
18780086200
18780092608
18780101458
18780109820
18780117938
18780123919
18780134051
18780139544
18780147845
18780153704
18780162371
18780170733
18780178363
18780184100
18780193499
18780199542
18780207232
18780213091
18780222735
18780229327
18780237628
18780242816
18780250933
18780256243
18780265154
18780271075
18780279070
18780284747
18780293597
18780299273
18780307024
18780313494
18780319720
18780326739
18780332842
18780341509
18780349322
18780357378
18780364824
18780370196
18780378618
18780384844
18780389361
18780399798
18780406756
18780414568
18780420733
18780427691
18780431902
18780440447
18780447832
18780455706
18780464128
18780471575
18780476457
18780485247
18780493730
18780499040
18780506365
18780514971
18780523577
18780529497
18780537370
18780543352
18780549394
18780556963
18780562639
18780570390
18780577348
18780583391
18780586870
18780594682
18780597856
18780605547
18780608842
18780616838
18780624162
18780630205
18780635759
18780641679
18780647600
18780653337
18780658159
18780664262
18780671708
18780676896
18780683793
18780688615
18780693986
18780700151
18780706132
18780711808
18780719682
18780724504
18780731828
18780737626
18780742021
18780748124
18780755326
18780761613
18780768266
18780774064
18780780351
18780786698
18780793229
18780799638
18780808061
18780815019
18780819840
18780826676
18780831559
18780836686
18780839799
18780847184
18780854325
18780858537
18780864091
18780869401
18780875138
18780880814
18780886430
18780893754
18780899308
18780902360
18780909013
18780914078
18780920426
18780925431
18780931595
18780938737
18780942887
18780949174
18780953202
18780960709
18780965653
18780972611
18780978104
18780984574
18780991044
18780996598
18781002335
18781007828
18781013504
18781019791
18781025956
18781032730
18781038163
18781044510
18781050248
18781054764
18781061783
18781067276
18781074906
18781079972
18781086380
18781091385
18781099014
18781104569
18781111649
18781117996
18781124405
18781131119
18781137406
18781144180
18781150467
18781155777
18781162369
18781170364
18781175125
18781181290
18781187759
18781194107
18781198624
18781205826
18781212051
18781218765
18781224014
18781230118
18781235062
18781241897
18781246841
18781254288
18781261368
18781269485
18781273025
18781280777
18781286819
18781292618
18781298599
18781304825
18781311844
18781316604
18781324173
18781329177
18781337905
18781343032
18781350479
18781359329
18781367202
18781373062
18781381057
18781388687
18781394424
18781401626
18781408767
18781414321
18781421096
18781424819
18781434280
18781438003
18781446243
18781452468
18781458816
18781465835
18781471328
18781477859
18781484267
18781490432
18781495254
18781501418
18781508254
18781515639
18781520949
18781527480
18781532302
18781539809
18781544692
18781550979
18781557998
18781564284
18781569838
18781576003
18781581191
18781587905
18781594985
18781600844
18781606032
18781612685
18781617812
18781623549
18781628798
18781636367
18781642043
18781648818
18781656752
18781663771
18781670180
18781676650
18781684828
18781690993
18781697219
18781705397
18781711562
18781721022
18781726332
18781732253
18781737685
18781746779
18781752943
18781759291
18781767165
18781773695
18781781081
18781787123
18781795363
18781801222
18781809462
18781815016
18781823744
18781831373
18781839918
18781848524
18781857435
18781864576
18781871412
18781878004
18781886244
18781893019
18781900709
18781907972
18781916151
18781922316
18781928968
18781937086
18781942457
18781953077
18781961134
18781968092
18781976637
18781982862
18781988050
18781997999
18782005445
18782013258
18782020887
18782029188
18782036451
18782047010
18782053724
18782060255
18782068861
18782077100
18782086011
18782092237
18782100050
18782106702
18782115064
18782122144
18782130018
18782139295
18782145460
18782155042
18782160230
18782167615
18782174207
18782182325
18782189283
18782196058
18782205701
18782213086
18782222730
18782232129
18782241712
18782249829
18782259412
18782269116
18782280896
18782289441
18782298841
18782307385
18782317761
18782328381
18782336682
18782345899
18782353589
18782362012
18782373669
18782382825
18782392712
18782402844
18782410046
18782415845
18782424817
18782435254
18782444104
18782454358
18782463818
18782473645
18782481884
18782493237
18782502575
18782511547
18782521923
18782531567
18782540661
18782551464
18782561169
18782571240
18782580273
18782588940
18782599316
18782608410
18782619579
18782630932
18782640820
18782651012
18782660046
18782669323
18782680004
18782691662
18782701855
18782710644
18782721386
18782731151
18782739818
18782748485
18782758922
18782767406
18782777416
18782786327
18782794872
18782804088
18782812755
18782821117
18782830822
18782840404
18782847179
18782858776
18782863719
18782875621
18782888133
18782895214
18782907115
18782915416
18782927013
18782934947
18782946910
18782957164
18782966685
18782975780
18782986339
18782995128
18783002574
18783015330
18783023204
18783034190
18783044383
18783053966
18783062510
18783071788
18783082591
18783093211
18783102061
18783108836
18783120799
18783128733
18783137278
18783146495
18783155528
18783166880
18783179576
18783200022
18783220225
18783239939
18783258372
18783277171
18783297251
18783317026
18783333323
18783355906
18783378000
18783397104
18783417185
18783427744
18783438303
18783451120
18783464853
18783477609
18783491892
18783507089
18783521372
18783536325
18783549570
18783565195
18783574899
18783584360
18783594553
18783604440
18783614572
18783625619
18783635629
18783645151
18783655771
18783665475
18783674630
18783684701
18783694162
18783703378
18783713449
18783722543
18783731210
18783741586
18783750985
18783760446
18783769906
18783779367
18783789742
18783798715
18783808480
18783818124
18783830209
18783840890
18783850472
18783861642
18783871468
18783879952
18783889840
18783902108
18783909798
18783925301
18783933785
18783939522
18783946786
18783952462
18783960824
18783969674
18783976571
18783983529
18783990242
18783997017
18784003304
18784005257
18784014534
18784022591
18784028145
18784034554
18784041329
18784047737
18784053170
18784060250
18784066963
18784074349
18784079415
18784086006
18784089607
18784098335
18784103401
18784109871
18784116707
18784123482
18784127083
18784135262
18784141304
18784147224
18784153328
18784159981
18784167854
18784172920
18784180183
18784185188
18784191719
18784198128
18784205208
18784210396
18784218391
18784224373
18784231758
18784237739
18784245003
18784250923
18784258125
18784265938
18784273750
18784278145
18784286873
18784292854
18784300178
18784305793
18784313118
18784319648
18784327949
18784331855
18784341194
18784347969
18784354927
18784361030
18784367439
18784375190
18784380805
18784386787
18784394721
18784401862
18784409919
18784414436
18784423591
18784429328
18784440009
18784444160
18784454353
18784461189
18784467780
18784473457
18784479560
18784485908
18784494269
18784500495
18784508185
18784514594
18784520270
18784526496
18784533637
18784540595
18784547919
18784553779
18784560615
18784566962
18784571845
18784578925
18784584296
18784591498
18784596442
18784602423
18784607184
18784613593
18784618232
18784624762
18784633002
18784638922
18784644232
18784649909
18784656012
18784660407
18784667060
18784671637
18784679450
18784684455
18784691840
18784696295
18784702094
18784708197
18784714240
18784719611
18784726508
18784731757
18784738593
18784744269
18784750616
18784755743
18784762640
18784768866
18784774664
18784780646
18784786017
18784790961
18784796088
18784801886
18784808172
18784813788
18784818426
18784825751
18784831427
18784837164
18784842840
18784848578
18784855536
18784861151
18784867132
18784871100
18784877020
18784882513
18784887518
18784892218
18784898687
18784903509
18784910894
18784916326
18784922186
18784927679
18784934881
18784941351
18784945806
18784951666
18784957403
18784963262
18784967840
18784975653
18784981207
18784987310
18784992254
18785000250
18785003729
18785010870
18785015875
18785022527
18785030767
18785036932
18785042791
18785048650
18785053899
18785059820
18785065923
18785071050
18785079107
18785086675
18785093877
18785099676
18785106756
18785112371
18785120489
18785129888
18785137273
18785142766
18785148931
18785155217
18785161138
18785166814
18785173650
18785179998
18785186773
18785192449
18785196965
18785204534
18785210027
18785217534
18785223455
18785230596
18785237493
18785241887
18785247441
18785253606
18785257024
18785267217
18785273625
18785278264
18785284673
18785291020
18785299077
18785303899
18785310552
18785317449
18785323003
18785329289
18785334721
18785339543
18785346623
18785351445
18785357549
18785363286
18785371770
18785375249
18785383549
18785389714
18785396062
18785402898
18785407963
18785415959
18785422307
18785428471
18785434819
18785440251
18785446599
18785453007
18785459599
18785467412
18785472416
18785477910
18785484257
18785489567
18785495854
18785501164
18785506657
18785515019
18785520390
18785527775
18785533818
18785541325
18785547795
18785555302
18785562138
18785571415
18785577763
18785584782
18785590763
18785597782
18785605229
18785611454
18785619206
18785627750
18785633793
18785641361
18785649418
18785654728
18785662418
18785668827
18785675297
18785685062
18785691105
18785698551
18785707218
18785713993
18785722416
18785729191
18785741031
18785747684
18785756778
18785764469
18785771061
18785780155
18785786564
18785792911
18785802005
18785809146
18785815189
18785823062
18785829471
18785837406
18785843387
18785850345
18785856021
18785864994
18785870792
18785878787
18785884586
18785892825
18785898929
18785907962
18785914127
18785921817
18785930179
18785937564
18785945193
18785952151
18785958621
18785966067
18785974490
18785979739
18785989261
18785996951
18786003421
18786010135
18786018863
18786025577
18786033511
18786040957
18786050052
18786056521
18786063357
18786072024
18786079226
18786085391
18786092471
18786100405
18786109134
18786115481
18786122622
18786130435
18786134951
18786144168
18786148928
18786158084
18786163638
18786173525
18786177554
18786187075
18786194216
18786200503
18786206851
18786213076
18786220034
18786224917
18786231753
18786237978
18786243960
18786250002
18786256228
18786261355
18786270144
18786276614
18786281679
18786287783
18786292727
18786298769
18786304140
18786309633
18786316653
18786321474
18786328554
18786334414
18786340090
18786345766
18786350039
18786356814
18786363283
18786369997
18786376162
18786382082
18786388247
18786393435
18786400148
18786408754
18786416017
18786421328
18786428896
18786435060
18786440737
18786448671
18786455080
18786463075
18786466615
18786474672
18786480470
18786485658
18786490907
18786497377
18786503969
18786508730
18786514223
18786520509
18786525697
18786528688
18786535463
18786542665
18786548280
18786553407
18786559145
18786565248
18786570924
18786575502
18786582582
18786588624
18786593507
18786600099
18786604616
18786611879
18786617372
18786623292
18786629213
18786635072
18786642091
18786647096
18786654786
18786660951
18786667970
18786673768
18786681154
18786686403
18786692628
18786697816
18786705079
18786710633
18786716554
18786723390
18786729493
18786735841
18786742066
18786746888
18786753053
18786759828
18786766358
18786773561
18786778382
18786785096
18786791200
18786797791
18786802369
18786809815
18786815064
18786822389
18786829285
18786835145
18786840272
18786846497
18786853516
18786859132
18786865784
18786872132
18786878419
18786884278
18786890137
18786896058
18786900330
18786907349
18786915772
18786920777
18786928040
18786934449
18786941041
18786945801
18786952332
18786959168
18786965516
18786972657
18786978760
18786985962
18786991516
18786998230
18787005982
18787015015
18787022156
18787026245
18787034668
18787041321
18787047486
18787054749
18787059632
18787066773
18787073609
18787078858
18787085266
18787091553
18787096619
18787103882
18787109863
18787117065
18787120544
18787127747
18787132629
18787139221
18787144165
18787152405
18787159668
18787165039
18787176392
18787182922
18787190674
18787195434
18787203247
18787209534
18787217468
18787221557
18787229736
18787236206
18787242248
18787249634
18787256347
18787264221
18787271240
18787278137
18787285339
18787291626
18787299194
18787305908
18787311706
18787318908
18787324951
18787333435
18787337890
18787346740
18787354553
18787360229
18787368652
18787374267
18787382568
18787387939
18787396179
18787402282
18787409057
18787416747
18787425781
18787433105
18787441283
18787448119
18787456664
18787464294
18787471557
18787481567
18787490539
18787498107
18787504577
18787513854
18787520263
18787529052
18787537719
18787546019
18787553893
18787561461
18787566466
18787575927
18787580993
18787589476
18787596740
18787605834
18787613585
18787620604
18787627623
18787636717
18787641783
18787651915
18787657652
18787670287
18787680358
18787688536
18787699461
18787707213
18787716979
18787724425
18787732237
18787741393
18787750121
18787756468
18787765562
18787772581
18787779967
18787788328
18787798094
18787803526
18787815062
18787822752
18787828673
18787837156
18787842894
18787851317
18787856627
18787863279
18787869871
18787876280
18787880552
18787887022
18787893614
18787898558
18787904844
18787910765
18787916746
18787922911
18787927915
18787933958
18787940733
18787947264
18787951902
18787957762
18787963743
18787970213
18787974790
18787980772
18787987425
18787993162
18787998350
18788004392
18788009458
18788015012
18788021543
18788026914
18788032102
18788038206
18788043394
18788049619
18788055112
18788062925
18788068357
18788074216
18788079648
18788085752
18788090818
18788097349
18788103391
18788107969
18788112974
18788120664
18788126951
18788131528
18788137998
18788144407
18788148435
18788156064
18788163022
18788168149
18788174619
18788181150
18788187436
18788193784
18788200009
18788206540
18788212339
18788218442
18788224118
18788228269
18788234006
18788239926
18788244565
18788250485
18788256162
18788261167
18788266355
18788273557
18788280026
18788289975
18788295712
18788303342
18788312436
18788317746
18788326230
18788333554
18788340756
18788349362
18788355710
18788367856
18788374142
18788380002
18788387814
18788394711
18788401181
18788407406
18788413754
18788420285
18788426205
18788434506
18788441403
18788447934
18788453793
18788458676
18788466000
18788474362
18788480099
18788486569
18788493039
18788500485
18788506771
18788512936
18788518856
18788525509
18788531430
18788539608
18788544979
18788553402
18788560177
18788566769
18788573239
18788579647
18788586910
18788592526
18788598324
18788604122
18788609615
18788616329
18788625729
18788631954
18788637875
18788645016
18788651974
18788659237
18788666256
18788673092
18788679317
18788686886
18788693233
18788698971
18788705562
18788712398
18788718502
18788724544
18788734005
18788737850
18788745907
18788752010
18788760738
18788766842
18788773555
18788780696
18788787288
18788794124
18788799129
18788807430
18788814388
18788820735
18788826168
18788833614
18788839778
18788847713
18788853633
18788862239
18788870052
18788876827
18788883663
18788890987
18788895564
18788906307
18788912288
18788919856
18788927913
18788933833
18788942744
18788948543
18788956660
18788963679
18788971553
18788977473
18788984614
18788989986
18788998836
18789005000
18789011287
18789017940
18789025325
18789032405
18789039119
18789045283
18789052180
18789057612
18789063044
18789072017
18789079585
18789086238
18789090266
18789099360
18789106806
18789113948
18789121882
18789132380
18789138850
18789145930
18789154170
18789160029
18789169123
18789174922
18789182429
18789190669
18789197627
18789203486
18789213007
18789218806
18789227595
18789233576
18789243403
18789249689
18789259089
18789265436
18789275263
18789281733
18789290705
18789296869
18789301752
18789312983
18789317866
18789329279
18789337397
18789343805
18789350824
18789360529
18789368647
18789374994
18789383295
18789392633
18789399958
18789409357
18789416376
18789423822
18789432672
18789439020
18789448358
18789457086
18789464166
18789473078
18789479608
18789488458
18789494867
18789504816
18789511224
18789519403
18789527765
18789533990
18789541620
18789547601
18789553216
18789561273
18789568414
18789575738
18789581720
18789586725
18789595758
18789601129
18789608087
18789615838
18789622735
18789628412
18789637201
18789642938
18789651178
18789657708
18789666864
18789674432
18789680658
18789687066
18789693475
18789700372
18789705133
18789713189
18789719720
18789725701
18789732965
18789739129
18789745477
18789751763
18789758233
18789764276
18789770379
18789776788
18789783624
18789789971
18789797112
18789801751
18789808465
18789814996
18789821160
18789827752
18789834771
18789840264
18789845940
18789851861
18789857537
18789865105
18789870476
18789876519
18789881097
18789887871
18789893914
18789900200
18789905266
18789912591
18789918084
18789923638
18789932610
18789937554
18789944085
18789949273
18789956841
18789960869
18789969780
18789976311
18789982781
18789989373
18789998162
18790004570
18790009514
18790015374
18790020500
18790028191
18790031792
18790040276
18790046684
18790053276
18790059929
18790066643
18790073235
18790079399
18790084526
18790091118
18790099541
18790104668
18790111382
18790117912
18790124809
18790129692
18790136650
18790143608
18790149834
18790155266
18790162590
18790168632
18790175102
18790181694
18790188286
18790200432
18790205498
18790212150
18790219841
18790227043
18790233513
18790240898
18790247245
18790254387
18790262138
18790268608
18790275505
18790280387
18790287590
18790295890
18790303581
18790309074
18790317314
18790323173
18790330680
18790336418
18790343742
18790350944
18790357231
18790363700
18790370292
18790377189
18790383720
18790390434
18790397025
18790403434
18790409782
18790416190
18790423454
18790429374
18790436576
18790441703
18790448783
18790456168
18790461051
18790469779
18790475333
18790481864
18790488944
18790494071
18790501578
18790508597
18790514090
18790522086
18790527701
18790536002
18790542106
18790547721
18790553336
18790561332
18790567923
18790574332
18790578299
18790585929
18790591361
18790598197
18790603629
18790611808
18790618277
18790624747
18790631339
18790637808
18790642447
18790650992
18790657462
18790664664
18790671988
18790679190
18790685355
18790692252
18790698355
18790705618
18790712454
18790719656
18790727225
18790732840
18790740042
18790747794
18790755423
18790763174
18790770621
18790777395
18790779898
18790789969
18790797720
18790805044
18790811087
18790818716
18790827139
18790835318
18790837881
18790849356
18790855093
18790865347
18790875235
18790884024
18790894644
18790900503
18790908255
18790915701
18790924307
18790931143
18790940237
18790946218
18790955679
18790962393
18790969595
18790977529
18790984609
18790990957
18790998281
18791004812
18791011770
18791018179
18791025564
18791032461
18791039480
18791045217
18791052419
18791059865
18791066884
18791073904
18791079702
18791088552
18791094716
18791102956
18791108877
18791116384
18791123708
18791130300
18791137807
18791144277
18791152028
18791160390
18791168019
18791174428
18791182485
18791188832
18791196218
18791202382
18791211171
18791217031
18791224416
18791233144
18791241323
18791249440
18791256947
18791263112
18791270436
18791277760
18791285817
18791292470
18791301259
18791306447
18791314748
18791319814
18791326283
18791333180
18791340077
18791347096
18791353871
18791360097
18791366078
18791370839
18791379140
18791383961
18791390370
18791396779
18791403004
18791409596
18791415272
18791422169
18791428273
18791433033
18791439991
18791448048
18791453358
18791458546
18791465321
18791468800
18791477955
18791485524
18791490406
18791497120
18791503285
18791509144
18791515248
18791521473
18791527760
18791534718
18791540638
18791548817
18791556690
18791564259
18791571034
18791576405
18791583057
18791590382
18791598499
18791603199
18791611012
18791616932
18791622608
18791628895
18791634571
18791640736
18791645008
18791652515
18791656971
18791663257
18791669605
18791675526
18791682483
18791689136
18791692676
18791700367
18791703663
18791711414
18791717029
18791723377
18791729480
18791734974
18791741565
18791747730
18791753589
18791759815
18791765979
18791772815
18791778064
18791784534
18791790638
18791797596
18791803760
18791810840
18791817066
18791822803
18791830676
18791836170
18791843494
18791848804
18791854785
18791861621
18791867603
18791874011
18791886523
18791906421
18791913135
18791921008
18791927661
18791936145
18791942615
18791952502
18791956775
18791966785
18791974109
18791981494
18791986072
18791995898
18792000537
18792010302
18792014148
18792023669
18792029162
18792035571
18792039416
18792048266
18792055163
18792062060
18792068957
18792075793
18792082812
18792089526
18792094531
18792101062
18792108020
18792114489
18792119982
18792126879
18792132861
18792139269
18792146044
18792152941
18792159777
18792164660
18792172534
18792177538
18792184008
18792190539
18792197863
18792205737
18792212878
18792220507
18792227465
18792233569
18792241259
18792247546
18792257250
18792261217
18792270739
18792277514
18792283861
18792289477
18792295946
18792301745
18792308336
18792314867
18792321398
18792327868
18792334520
18792340136
18792346483
18792352404
18792358934
18792366503
18792371386
18792377855
18792384325
18792391039
18792397447
18792403612
18792410082
18792415941
18792422472
18792428697
18792435106
18792442003
18792446825
18792453295
18792461839
18792467943
18792475145
18792481126
18792488329
18792493700
18792501146
18792507860
18792516405
18792523180
18792529161
18792536851
18792544542
18792552354
18792558458
18792566514
18792572252
18792580247
18792588243
18792595445
18792601304
18792608568
18792615953
18792622728
18792630052
18792637437
18792645616
18792652024
18792661241
18792668199
18792675828
18792682786
18792690599
18792697251
18792706224
18792711961
18792719468
18792728257
18792735703
18792744126
18792749619
18792758103
18792765489
18792775132
18792782639
18792789903
18792796128
18792804673
18792811143
18792819321
18792827744
18792835191
18792843980
18792849168
18792857346
18792864426
18792872544
18792880173
18792887864
18792897934
18792905869
18792912583
18792921555
18792928757
18792937851
18792947373
18792955796
18792965439
18792973313
18792980088
18792988510
18792996811
18793003281
18793011276
18793018112
18793025864
18793032334
18793040329
18793046921
18793055344
18793063583
18793071213
18793080063
18793086350
18793094894
18793100449
18793110886
18793115646
18793124680
18793130844
18793137680
18793143417
18793151108
18793157150
18793165634
18793171799
18793177902
18793183456
18793190353
18793195846
18793202926
18793208481
18793215255
18793220443
18793227951
18793235580
18793241928
18793247726
18793254379
18793260727
18793267501
18793273788
18793280014
18793285873
18793291976
18793296798
18793303024
18793309738
18793316024
18793322372
18793327011
18793333969
18793341293
18793347762
18793354598
18793361800
18793367111
18793374374
18793379501
18793386031
18793391586
18793398910
18793404098
18793411971
18793415511
18793423446
18793429244
18793435348
18793438827
18793447433
18793452987
18793459029
18793465438
18793471114
18793475936
18793481490
18793488021
18793494552
18793500472
18793505233
18793511702
18793516524
18793522567
18793527449
18793535994
18793539779
18793546920
18793553206
18793559066
18793568404
18793576216
18793584029
18793589400
18793598982
18793606124
18793612166
18793619856
18793626265
18793632124
18793639388
18793647017
18793653121
18793659285
18793665694
18793672957
18793679121
18793686202
18793691634
18793699324
18793705733
18793712202
18793719038
18793725691
18793732771
18793739180
18793746260
18793752608
18793759199
18793764143
18793771528
18793778120
18793785261
18793792524
18793798628
18793804121
18793811873
18793817427
18793824812
18793830366
18793838179
18793844648
18793851118
18793857649
18793863996
18793867903
18793876326
18793884931
18793889997
18793897993
18793902937
18793910810
18793915571
18793923322
18793929426
18793936445
18793943891
18793950239
18793955549
18793961897
18793968244
18793975263
18793982282
18793989118
18793994306
18794001081
18794007551
18794013471
18794020063
18794027326
18794033857
18794040388
18794046491
18794053571
18794059003
18794066755
18794074201
18794080610
18794087262
18794093488
18794100202
18794107099
18794112348
18794119367
18794127057
18794133954
18794139997
18794146283
18794152814
18794159711
18794164838
18794175885
18794182965
18794188092
18794196271
18794203595
18794210126
18794217633
18794226666
18794232587
18794241071
18794246991
18794254987
18794259076
18794267011
18794272504
18794280682
18794286847
18794293378
18794297345
18794305463
18794312360
18794318951
18794326031
18794332684
18794339825
18794347272
18794354108
18794361188
18794367169
18794374493
18794379620
18794388348
18794396954
18794403119
18794410931
18794418988
18794425457
18794433392
18794438397
18794447857
18794452313
18794462750
18794470135
18794477337
18794483868
18794492047
18794499249
18794505963
18794514385
18794521343
18794527203
18794537090
18794543560
18794551739
18794558453
18794567547
18794576031
18794578899
18794590862
18794595867
18794606914
18794612041
18794622539
18794630047
18794638103
18794645061
18794653972
18794659099
18794670330
18794678325
18794684307
18794693462
18794702007
18794711162
18794717449
18794722088
18794733440
18794740642
18794749126
18794757366
18794765667
18794773662
18794780132
18794788372
18794796428
18794803081
18794813152
18794822307
18794828716
18794837749
18794844341
18794852641
18794860637
18794868877
18794875346
18794883098
18794891704
18794896037
18794904582
18794910442
18794921428
18794928874
18794935649
18794947185
18794952617
18794960246
18794967387
18794973247
18794980693
18794987834
18794994487
18794999614
18795006083
18795011332
18795018840
18795022563
18795030436
18795036601
18795042643
18795046183
18795054728
18795061686
18795067790
18795069804
18795078959
18795086222
18795092326
18795098002
18795104228
18795110575
18795115397
18795122904
18795129313
18795135172
18795141215
18795146708
18795153056
18795159586
18795164469
18795173258
18795178141
18795185770
18795191752
18795197855
18795201456
18795208720
18795214579
18795220866
18795228068
18795233805
18795239420
18795245157
18795250468
18795256205
18795262247
18795268046
18795275431
18795280192
18795287150
18795296000
18795303873
18795308268
18795320169
18795330301
18795338968
18795348673
18795353556
18795364603
18795372476
18795382730
18795392496
18795402445
18795413675
18795420328
18795426798
18795432596
18795438211
18795445352
18795450418
18795456461
18795462564
18795468057
18795474100
18795480203
18795486734
18795493143
18795499429
18795505411
18795511148
18795517129
18795522989
18795529642
18795535501
18795546609
18795553140
18795561258
18795568643
18795579263
18795585794
18795591836
18795600869
18795608438
18795616250
18795620157
18795630899
18795638650
18795644204
18795650491
18795655923
18795662332
18795667215
18795675088
18795681924
18795689920
18795696878
18795703530
18795710671
18795717751
18795725076
18795730386
18795736489
18795743508
18795749795
18795755227
18795763284
18795768899
18795776467
18795784341
18795790505
18795797158
18795803445
18795808449
18795814736
18795818459
18795826760
18795833535
18795840188
18795845742
18795852028
18795858498
18795863503
18795869851
18795876320
18795884133
18795890053
18795895241
18795902077
18795907876
18795913186
18795919411
18795924660
18795932534
18795940102
18795946633
18795954140
18795959389
18795967324
18795974037
18795980507
18795986672
18795992836
18795999306
18796005409
18796012062
18796019447
18796025978
18796031471
18796039284
18796045326
18796051857
18796055885
18796066322
18796073402
18796080849
18796088722
18796094460
18796103493
18796109352
18796116432
18796125526
18796132545
18796140785
18796148659
18796155189
18796162452
18796169716
18796179359
18796186744
18796195106
18796202064
18796210853
18796220131
18796227882
18796233741
18796242103
18796251014
18796257606
18796263221
18796271827
18796277198
18796284828
18796290260
18796298011
18796306190
18796314247
18796319496
18796326576
18796334327
18796340614
18796346595
18796353980
18796361488
18796368995
18796374305
18796382056
18796389259
18796396522
18796402076
18796409156
18796416846
18796424476
18796432899
18796441627
18796448218
18796456946
18796463904
18796472449
18796478980
18796486243
18796494788
18796501868
18796510291
18796516700
18796526587
18796533118
18796541053
18796549964
18796558814
18796565283
18796573889
18796582678
18796590064
18796598731
18796603980
18796612647
18796620032
18796629004
18796636145
18796644629
18796651709
18796658545
18796667334
18796673560
18796681677
18796687659
18796692786
18796699194
18796705176
18796707068
18796716528
18796723120
18796728735
18796736792
18796742407
18796749243
18796754980
18796761694
18796767309
18796772680
18796780188
18796786413
18796791784
18796797949
18796803076
18796810034
18796815283
18796823523
18796830603
18796837561
18796844091
18796850378
18796856604
18796861425
18796867956
18796874487
18796879492
18796888159
18796894995
18796900366
18796906591
18796913305
18796920873
18796930578
18796942419
18796948888
18796958044
18796964086
18796972631
18796980566
18796988744
18796993444
18797000280
18797008642
18797017187
18797023839
18797033056
18797040868
18797046544
18797052587
18797059728
18797066564
18797072240
18797077611
18797085424
18797091039
18797097692
18797105870
18797110875
18797118505
18797124547
18797130651
18797136937
18797146764
18797152684
18797158483
18797165441
18797171483
18797177587
18797183812
18797190038
18797195470
18797204808
18797212560
18797220372
18797225438
18797233189
18797238622
18797248082
18797253453
18797259557
18797267003
18797272191
18797280614
18797286351
18797292454
18797297215
18797304295
18797311070
18797315892
18797323094
18797329137
18797337437
18797343785
18797350438
18797357335
18797364842
18797370152
18797377232
18797384251
18797390416
18797397191
18797403721
18797409092
18797416356
18797422154
18797430394
18797433873
18797441502
18797446446
18797454502
18797462681
18797470799
18797480808
18797489170
18797498692
18797506016
18797517063
18797525547
18797531407
18797538975
18797544468
18797551182
18797556492
18797563877
18797571384
18797577488
18797583286
18797588169
18797594761
18797601780
18797609836
18797616184
18797622837
18797631321
18797636692
18797644138
18797650669
18797658176
18797664280
18797670322
18797676365
18797682346
18797689060
18797694492
18797704197
18797710605
18797716648
18797722629
18797727451
18797734409
18797741672
18797749240
18797756198
18797762119
18797767124
18797774021
18797780246
18797785617
18797794895
18797801486
18797808322
18797814670
18797823032
18797830966
18797836093
18797843723
18797850742
18797857822
18797864475
18797872958
18797879794
18797885654
18797894076
18797903049
18797909030
18797917514
18797922153
18797931186
18797937839
18797945895
18797954440
18797961215
18797966647
18797977023
18797985141
18797991916
18798000033
18798007846
18798016757
18798023654
18798032260
18798039035
18798046725
18798053500
18798063021
18798068759
18798079318
18798085909
18798094088
18798103671
18798113009
18798123812
18798133395
18798144625
18798155917
18798166903
18798174532
18798181551
18798190707
18798200228
18798206881
18798213351
18798220736
18798227389
18798235384
18798243258
18798249605
18798256746
18798261263
18798270052
18798274569
18798283907
18798291231
18798299654
18798305147
18798311983
18798318270
18798323519
18798330538
18798336397
18798342928
18798350496
18798356233
18798362703
18798369112
18798374910
18798381136
18798387178
18798394747
18798401644
18798407747
18798412325
18798417940
18798423372
18798430513
18798436861
18798442720
18798448946
18798453706
18798459993
18798466096
18798473054
18798478609
18798483858
18798490633
18798496980
18798502840
18798508516
18798514131
18798520357
18798528169
18798535188
18798540376
18798546846
18798550691
18798557527
18798565034
18798571870
18798577852
18798582856
18798589753
18798594331
18798601106
18798607026
18798612764
18798618440
18798625032
18798630952
18798635286
18798642060
18798647004
18798653535
18798659700
18798665864
18798671662
18798677033
18798681733
18798687348
18798698152
18798704621
18798711762
18798720307
18798727754
18798736176
18798743317
18798749421
18798757050
18798763337
18798769013
18798775788
18798782990
18798788789
18798797456
18798801118
18798810090
18798817719
18798824555
18798831452
18798836884
18798844452
18798851533
18798857697
18798864655
18798869782
18798876984
18798883637
18798889435
18798896271
18798902558
18798907929
18798915375
18798922760
18798929169
18798935883
18798940705
18798947602
18798954438
18798960419
18798968476
18798976044
18798979767
18798988678
18798994965
18799001068
18799007416
18799014984
18799022247
18799027496
18799033783
18799039215
18799047394
18799053803
18799060516
18799068024
18799074799
18799080597
18799087433
18799093536
18799098785
18799106537
18799114838
18799120941
18799127716
18799133941
18799140045
18799146881
18799152801
18799158539
18799166229
18799171722
18799179229
18799185516
18799192047
18799198761
18799206329
18799212677
18799219513
18799226104
18799231414
18799238739
18799244720
18799251556
18799255462
18799264312
18799271087
18799278228
18799285308
18799291412
18799300323
18799305877
18799314727
18799322540
18799328338
18799336334
18799343230
18799348663
18799355987
18799361480
18799367767
18799374664
18799380950
18799386382
18799393706
18799399016
18799405730
18799411895
18799420074
18799426238
18799433440
18799439727
18799444976
18799451140
18799459807
18799467864
18799475371
18799481780
18799490935
18799497405
18799504607
18799511626
18799520049
18799527251
18799536162
18799542937
18799551543
18799559355
18799565215
18799571868
18799579680
18799588408
18799596037
18799602690
18799610869
18799617400
18799624541
18799632903
18799640410
18799647063
18799655547
18799662199
18799671965
18799678435
18799687224
18799696257
18799703398
18799709929
18799718596
18799725859
18799733122
18799742094
18799749724
18799757414
18799764006
18799774382
18799781279
18799789274
18799797697
18799804411
18799813200
18799816008
18799828154
18799833219
18799844450
18799850614
18799861296
18799869352
18799876310
18799883451
18799891813
18799898344
18799906889
18799916288
18799924406
18799930509
18799939726
18799946073
18799954069
18799962858
18799970060
18799976774
18799986845
18799993803
18800001859
18800008024
18800016996
18800024137
18800033536
18800041593
18800051175
18800061551
18800068082
18800078458
18800086393
18800093717
18800100492
18800107084
18800112882
18800119046
18800124906
18800131131
18800137418
18800142484
18800149625
18800155789
18800162564
18800167203
18800173734
18800180509
18800186002
18800192777
18800199429
18800204617
18800212247
18800217435
18800223599
18800230191
18800235806
18800241849
18800249905
18800255460
18800261868
18800267361
18800274686
18800280301
18800287930
18800294034
18800300442
18800304104
18800312588
18800316128
18800324307
18800329495
18800336392
18800342007
18800350003
18800354703
18800360562
18800367093
18800373196
18800379483
18800386319
18800393155
18800398465
18800404324
18800410550
18800415982
18800422268
18800428372
18800434292
18800439114
18800446011
18800452481
18800458157
18800464077
18800470608
18800477444
18800482205
18800488857
18800495144
18800501064
18800506558
18800513271
18800522060
18800528408
18800534329
18800539211
18800546108
18800551846
18800558926
18800566128
18800573086
18800579006
18800585781
18800592190
18800597561
18800604702
18800614834
18800621364
18800628750
18800635097
18800643093
18800648647
18800658046
18800664333
18800677334
18800682583
18800690883
18800698269
18800703762
18800711818
18800717678
18800725429
18800731838
18800738491
18800742275
18800750942
18800757656
18800764308
18800771816
18800776637
18800784328
18800791103
18800797511
18800804164
18800810573
18800818080
18800825038
18800831996
18800838588
18800843532
18800850856
18800858302
18800864772
18800870509
18800878566
18800884547
18800891688
18800895961
18800904201
18800908046
18800918056
18800924342
18800930812
18800938197
18800944667
18800950953
18800955775
18800962977
18800969630
18800977198
18800982264
18800989283
18800996363
18801002894
18801010218
18801016017
18801023097
18801028773
18801035670
18801041285
18801046961
18801055201
18801060877
18801068568
18801076136
18801082850
18801088099
18801096156
18801102015
18801109339
18801115260
18801121851
18801129908
18801135340
18801143153
18801146998
18801155604
18801163905
18801170313
18801179591
18801185511
18801193445
18801201197
18801208460
18801216456
18801223780
18801230311
18801240381
18801246668
18801255701
18801261683
18801270289
18801276819
18801284632
18801293787
18801307154
18801313440
18801321985
18801326807
18801337549
18801346033
18801354273
18801359461
18801368677
18801376306
18801383447
18801389978
18801396387
18801401575
18801410120
18801416956
18801424036
18801429895
18801436975
18801443994
18801450098
18801456811
18801462610
18801471033
18801476770
18801485376
18801494226
18801501306
18801507165
18801516015
18801524621
18801531824
18801537622
18801549402
18801556054
18801564050
18801571862
18801579797
18801588281
18801595483
18801601159
18801611169
18801617883
18801625817
18801632531
18801639916
18801649682
18801656884
18801663171
18801672753
18801679223
18801684289
18801694665
18801703881
18801710412
18801718530
18801728356
18801736352
18801743371
18801750695
18801759179
18801765588
18801773705
18801782494
18801790124
18801798669
18801801354
18801813622
18801820336
18801827538
18801831933
18801841027
18801847863
18801854271
18801861596
18801868554
18801875267
18801880761
18801887902
18801893334
18801900902
18801906090
18801913720
18801920616
18801925682
18801929283
18801939965
18801946800
18801952965
18801959252
18801964379
18801972801
18801977745
18801984337
18801991356
18801997215
18802003929
18802010948
18802020897
18802026512
18802034081
18802042809
18802051414
18802058922
18802071373
18802077537
18802084312
18802089195
18802096092
18802101219
18802108482
18802114830
18802120384
18802123802
18802131248
18802138878
18802144188
18802149925
18802155967
18802162620
18802167991
18802176780
18802183738
18802189476
18802193443
18802200401
18802206993
18802212852
18802219200
18802225242
18802230491
18802236717
18802243186
18802247764
18802254356
18802259727
18802266197
18802273094
18802278831
18802284446
18802290305
18802296653
18802302696
18802308616
18802314719
18802321433
18802327842
18802332725
18802339011
18802345847
18802350974
18802357749
18802363242
18802371970
18802378196
18802384605
18802390708
18802397178
18802400962
18802408896
18802416343
18802423240
18802429343
18802434409
18802440696
18802447165
18802453696
18802460227
18802466636
18802473471
18802479392
18802484641
18802490500
18802497092
18802502646
18802508322
18802516318
18802521506
18802529563
18802537192
18802543601
18802550498
18802557456
18802563437
18802570090
18802576621
18802581809
18802588034
18802592978
18802603659
18802611899
18802619894
18802627219
18802632956
18802642172
18802650473
18802657858
18802664511
18802672446
18802678061
18802685019
18802692404
18802698996
18802704062
18802711752
18802717795
18802724569
18802730429
18802738485
18802743429
18802752585
18802758200
18802764425
18802770712
18802778341
18802783834
18802791159
18802795980
18802803366
18802810324
18802817770
18802823873
18802832113
18802838705
18802844686
18802851156
18802858297
18802863180
18802870321
18802876974
18802883993
18802891073
18802897543
18802905477
18802911581
18802917013
18802923727
18802929220
18802937704
18802943197
18802950948
18802956136
18802966756
18802971334
18802981832
18802990011
18802995870
18803002401
18803010702
18803017904
18803026510
18803032979
