19411698352
19411704212
19411709827
19411715503
19411719898
19411725025
19411729419
19411736865
19411742053
19411747974
19411753467
19411758716
19411767139
19411772937
19411778308
19411783740
19411788440
19411793689
19411798328
19411803760
19411808520
19411813708
19411819385
19411824084
19411829089
19411833667
19411838855
19411843616
19411850207
19411855517
19411861804
19411867480
19411875293
19411880176
19411887378
19411892077
19411898852
19411907153
19411914966
19411920642
19411928515
19411934192
19411943652
19411950976
19411958789
19411966845
19411974047
19411980639
19411985278
19411993701
19412001513
19412008227
19412015917
19412022570
19412030566
19412037585
19412044848
19412053454
19412060717
19412067980
19412073962
19412083056
19412089465
19412096545
19412105029
19412113634
19412120287
19412130663
19412141711
19412148302
19412164782
19412173998
19412183825
19412192248
19412200365
19412208117
19412213488
19412224047
19412230028
19412239489
19412247606
19412257738
19412268175
19412278063
19412284288
19412292223
19412298387
19412307543
19412314623
19412321459
19412328661
19412338609
19412347521
19412355943
19412365221
19412369493
19412379991
19412389940
19412396959
19412404771
19412412096
19412419908
19412426866
19412436449
19412443346
19412452135
19412456834
19412467454
19412472032
19412482408
19412490709
19412496934
19412506883
19412514390
19412520799
19412528367
19412535630
19412543626
19412550828
19412558763
19412565843
19412573960
19412582749
19412589280
19412597398
19412603684
19412613633
19412621812
19412631883
19412640183
19412647447
19412655686
19412661057
19412668931
19412676621
19412683457
19412691270
19412699876
19412706528
19412713731
19412717820
19412726731
19412737168
19412745103
19412753953
19412762559
19412771836
19412779770
19412788010
19412796616
19412804551
19412813157
19412823594
19412830368
19412838791
19412845871
19412856980
19412866684
19412875534
19412889817
19412896775
19412905258
19412914597
19412924423
19412931564
19412938706
19412946335
19412953476
19412962692
19412968552
19412976425
19412985397
19412990952
19412998215
19413006210
19413013473
19413021896
19413034286
19413041244
19413048263
19413055527
19413064255
19413072128
19413080246
19413085922
19413095566
19413104049
19413111252
19413119491
19413126938
19413134384
19413142868
19413150253
19413154769
19413166854
19413173324
19413180770
19413189987
19413199020
19413208053
19413216903
19413223739
19413231979
19413241683
19413247787
19413257125
19413265365
19413273055
19413282272
19413289413
19413295760
19413305404
19413310653
19413319625
19413326827
19413333541
19413344344
19413351119
19413360335
19413368636
19413375411
19413384017
19413392745
19413400985
19413406478
19413415450
19413425032
19413431990
19413442244
19413449691
19413457869
19413464827
19413471907
19413483260
19413490645
19413496504
19413505782
19413515425
19413522383
19413533186
19413541731
19413549117
19413556624
19413567061
19413574019
19413582869
19413590804
19413597884
19413606062
19413612288
19413621077
19413626814
19413634627
19413642378
19413648665
19413657698
19413663313
19413672346
19413678816
19413686689
19413695601
19413703169
19413710432
19413718672
19413728132
19413735456
19413742048
19413749922
19413756941
19413766584
19413772566
19413781843
19413789961
19413796247
19413802168
19413811445
19413819563
19413827009
19413835310
19413842573
19413851240
19413859052
19413867963
19413874982
19413883161
19413890974
19413899396
19413908186
19413915388
19413923872
19413931684
19413940717
19413947553
19413955915
19413962201
19413972700
19413981428
19413989972
19413997358
19414006208
19414015180
19414023236
19414031415
19414039289
19414047773
19414056012
19414063092
19414071027
19414078717
19414088605
19414095197
19414106183
19414117413
19414126996
19414137433
19414147870
19414159161
19414167462
19414175885
19414184003
19414191510
19414200726
19414211529
19414221051
19414233990
19414241131
19414250470
19414259198
19414266034
19414272503
19414278851
19414285565
19414292035
19414299237
19414306622
19414313153
19414319683
19414325543
19414332074
19414337139
19414343487
19414349346
19414357586
19414361065
19414369671
19414376446
19414382855
19414388470
19414395367
19414400921
19414408245
19414412152
19414420208
19414427105
19414434185
19414440899
19414447491
19414455059
19414460552
19414467815
19414473248
19414480938
19414486187
19414494610
19414500103
19414507305
19414513897
19414520244
19414525799
19414532207
19414538372
19414544964
19414550945
19414558574
19414564129
19414570537
19414575786
19414582317
19414587505
19414594341
19414600017
19414608745
19414613567
19414620952
19414625103
19414633831
19414640300
19414645977
19414651287
19414657573
19414663127
19414669475
19414676189
19414681316
19414689067
19414695110
19414701213
19414711650
19414718486
19414726665
19414732585
19414739909
19414744670
19414754558
19414762981
19414769450
19414777446
19414785686
19414790263
19414799174
19414807292
19414814067
19414820598
19414829997
19414834758
19414846721
19414855998
19414862712
19414872233
19414876689
19414887858
19414892680
19414905253
19414910380
19414922770
19414929545
19414935466
19414941630
19414948283
19414953959
19414960673
19414967265
19414973124
19414981181
19414987406
19414995097
19415001811
19415009013
19415017741
19415024943
19415030863
19415037699
19415045145
19415052287
19415060587
19415068034
19415073893
19415083109
19415089457
19415096720
19415102335
19415110453
19415120035
19415128153
19415134623
19415143595
19415150797
19415160746
19415168131
19415175821
19415183451
19415191324
19415198160
19415205790
19415212442
19415220438
19415227030
19415234049
19415242472
19415249857
19415255716
19415264261
19415271219
19415280496
19415287088
19415296305
19415304788
19415311258
19415319681
19415325174
19415334329
19415341959
19415348306
19415355386
19415367593
19415372842
19415381937
19415389749
19415397562
19415404459
19415412210
19415418802
19415429178
19415434305
19415442422
19415451578
19415460061
19415467996
19415477578
19415484659
19415494546
19415499734
19415510049
19415515664
19415524087
19415531167
19415539895
19415546853
19415558572
19415563638
19415572793
19415577798
19415584878
19415591836
19415598733
19415606973
19415612954
19415619790
19415626687
19415634194
19415640237
19415648415
19415655984
19415663247
19415669961
19415675027
19415682656
19415687661
19415694863
19415701577
19415708413
19415713845
19415721657
19415725808
19415734597
19415739541
19415747170
19415752968
19415759987
19415766640
19415773537
19415779336
19415787636
19415793007
19415799172
19415807106
19415812661
19415818459
19415823342
19415829323
19415834877
19415839760
19415847023
19415853554
19415859047
19415865334
19415869911
19415876808
19415882057
19415889137
19415894386
19415899941
19415906349
19415911110
19415916908
19415923134
19415931374
19415938271
19415942543
19415949013
19415954750
19415961525
19415964821
19415973244
19415978798
19415984657
19415989479
19415995827
19416002235
19416009071
19416014809
19416020668
19416026283
19416032997
19416037697
19416045326
19416050331
19416059913
19416066078
19416070533
19416077308
19416081886
19416090248
19416094520
19416104835
19416110939
19416118080
19416124183
19416129615
19416135902
19416141029
19416150550
19416157814
19416163124
19416172950
19416179298
19416186866
19416196876
19416205848
19416212623
19416222205
19416229896
19416237464
19416243202
19416250343
19416255897
19416264198
19416270423
19416276893
19416281348
19416289527
19416298011
19416303504
19416310828
19416317542
19416324134
19416329200
19416337379
19416343299
19416350867
19416356727
19416364539
19416371131
19416378089
19416384131
19416391333
19416397925
19416405005
19416411414
19416418433
19416424231
19416431250
19416437049
19416442969
19416449988
19416455786
19416463538
19416470130
19416476721
19416481787
19416488989
19416495459
19416502173
19416508826
19416515540
19416522742
19416528296
19416536292
19416542029
19416549170
19416556067
19416562842
19416566748
19416574988
19416582007
19416589270
19416597632
19416603491
19416609778
19416615271
19416622656
19416628393
19416635962
19416642798
19416651526
19416657873
19416664343
19416672217
19416678015
19416685095
19416693335
19416700903
19416707068
19416712805
19416720800
19416727758
19416734838
19416742773
19416752783
19416759985
19416767187
19416772680
19416780310
19416787329
19416792517
19416802038
19416810034
19416820410
19416826208
19416840002
19416847326
19416855810
19416870336
19416879125
19416884496
19416892065
19416898534
19416904211
19416911840
19416919103
19416924962
19416932531
19416937780
19416945104
19416951696
19416957311
19416964147
19416971471
19416977208
19416984166
19416989476
19416996862
19417002172
19417009313
19417016088
19417023656
19417030187
19417036290
19417042882
19417048741
19417053990
19417061254
19417069188
19417077611
19417084325
19417092748
19417098485
19417105626
19417111852
19417116429
19417126073
19417135350
19417141881
19417149083
19417155614
19417162572
19417171239
19417175816
19417183263
19417190282
19417199376
19417206639
19417213414
19417219517
19417225438
19417232396
19417238255
19417243870
19417253209
19417259312
19417266148
19417274815
19417281407
19417286534
19417294590
19417299717
19417308812
19417315098
19417321934
19417327977
19417334996
19417341038
19417347935
19417355015
19417360325
19417366856
19417374302
19417380345
19417384251
19417392307
19417398411
19417406223
19417410069
19417418919
19417423557
19417430943
19417437656
19417443821
19417449863
19417456760
19417464878
19417471775
19417479954
19417488071
19417494236
19417501621
19417508579
19417516880
19417524204
19417529148
19417536289
19417542515
19417548435
19417555515
19417560947
19417565586
19417572910
19417576389
19417584507
19417591343
19417597629
19417603244
19417609043
19417615268
19417621433
19417628696
19417633274
19417640232
19417644992
19417651828
19417657993
19417666843
19417672580
19417678317
19417684360
19417690708
19417697788
19417702304
19417709750
19417714694
19417721713
19417726352
19417734226
19417739413
19417747470
19417753574
19417759616
19417765903
19417771640
19417777805
19417783725
19417790256
19417796298
19417801791
19417807712
19417812533
19417818515
19417826083
19417832248
19417838778
19417845126
19417851413
19417855258
19417863986
19417867709
19417876620
19417883822
19417889682
19417895663
19417902072
19417907443
19417914096
19417921908
19417927340
19417934054
19417939120
19417946261
19417951327
19417957431
19417965182
19417972079
19417975985
19417983492
19417989230
19417996615
19418002841
19418009860
19418016696
19418023898
19418031161
19418035677
19418042818
19418049349
19418054293
19418062716
19418070345
19418078280
19418085787
19418097567
19418105623
19418112581
19418122591
19418130221
19418136385
19418142733
19418149080
19418155306
19418160372
19418168367
19418173800
19418181612
19418186861
19418195589
19418201021
19418208712
19418214449
19418221712
19418227816
19418235628
19418242342
19418248873
19418255525
19418261385
19418267671
19418274874
19418278780
19418288545
19418295748
19418302706
19418308687
19418315645
19418322786
19418328401
19418335848
19418340669
19418346712
19418352937
19418359407
19418364229
19418371126
19418378084
19418383821
19418390718
19418397005
19418402620
19418411470
19418416902
19418425630
19418431795
19418438875
19418446748
19418453035
19418459016
19418466096
19418474397
19418481050
19418489045
19418495271
19418500581
19418507783
19418515046
19418521150
19418526643
19418535310
19418541169
19418547883
19418553742
19418560884
19418567353
19418575227
19418581147
19418588899
19418596589
19418603669
19418609345
19418614045
19418623444
19418628022
19418638459
19418643159
19418653596
19418658234
19418666352
19418673798
19418682465
19418687104
19418694489
19418702973
19418710786
19418718232
19418724885
19418733124
19418741913
19418750214
19418757355
19418764130
19418779023
19418788300
19418795868
19418803009
19418809418
19418818695
19418826264
19418833039
19418840058
19418845185
19418852753
19418858124
19418865631
19418873444
19418881012
19418887482
19418894318
19418901886
19418907379
19418915680
19418923492
19418929291
19418937653
19418943207
19418951202
19418956207
19418963592
19418968842
19418975922
19418982574
19418988983
19418994110
19419000702
19419007233
19419014923
19419019440
19419026703
19419034149
19419041473
19419046600
19419052459
19419059173
19419065155
19419070343
19419075592
19419081268
19419088531
19419093658
19419099029
19419104156
19419111236
19419116119
19419122528
19419127655
19419135833
19419143157
19419149993
19419156768
19419162322
19419168914
19419175750
19419182647
19419187957
19419195281
19419202606
19419207916
19419214385
19419220550
19419225433
19419232940
19419239104
19419244781
19419248077
19419254790
19419258453
19419267059
19419274322
19419280120
19419284698
19419290069
19419296050
19419300811
19419307708
19419314666
19419320830
19419325652
19419332488
19419336455
19419345000
19419352935
19419361174
19419366607
19419373015
19419379546
19419387481
19419393401
19419400481
19419406340
19419415251
19419422148
19419428191
19419433684
19419438750
19419446135
19419451567
19419458403
19419463225
19419469573
19419477385
19419483244
19419487883
19419495146
19419502654
19419509001
19419514983
19419519804
19419527556
19419533842
19419539946
19419545439
19419554655
19419561858
19419568083
19419573332
19419579619
19419586943
19419593535
19419602690
19419610075
19419617888
19419622221
19419631132
19419635222
19419643583
19419651884
19419658720
19419665007
19419671721
19419678556
19419683805
19419692045
19419697783
19419705351
19419711027
19419718473
19419724150
19419731413
19419737944
19419744718
19419751860
19419758390
19419765348
19419772550
19419779020
19419798856
19419805570
19419810941
19419818144
19419823881
19419830839
19419836393
19419843900
19419852262
19419858976
19419864713
19419871549
19419877958
19419885221
19419891935
19419897611
19419905790
19419912076
19419918302
19419923917
19419932035
19419938932
19419946134
19419954130
19419959989
19419967557
19419973478
19419981046
19419987943
19419995145
19419999540
19420009122
19420013700
19420024625
19420032315
19420040189
19420046292
19420052152
19420060758
19420064969
19420072904
19420079373
19420086270
19420092618
19420099576
19420106534
19420113736
19420121426
19420126431
19420134427
19420140042
19420146756
19420152432
19420159817
19420165982
19420174466
19420183804
19420189053
19420197842
19420205289
19420214200
19420221158
19420227444
19420233609
19420239407
19420245450
19420250088
19420256009
19420265225
19420272427
19420278836
19420284817
19420291165
19420297940
19420304348
19420311734
19420318631
19420325283
19420331082
19420339382
19420346890
19420353665
19420360867
19420367336
19420374172
19420379910
19420388516
19420396938
19420403042
19420411343
19420418362
19420426174
19420434353
19420439846
19420447170
19420455044
19420460293
19420469082
19420473354
19420485500
19420492641
19420499843
19420505153
19420512966
19420519985
19420527248
19420535610
19420541591
19420548610
19420555446
19420561794
19420571010
19420578334
19420585537
19420591701
19420601589
19420606166
19420614772
19420621242
19420629970
19420636806
19420643398
19420648281
19420658473
19420666774
19420674098
19420681117
19420687770
19420694667
19420701686
19420708705
19420717250
19420722682
19420729335
19420735683
19420743922
19420750514
19420757167
19420762782
19420769069
19420775172
19420780177
19420788234
19420793605
19420801417
19420805385
19420814601
19420822108
19420829127
19420834926
19420841517
19420849391
19420855739
19420862697
19420866176
19420874781
19420880519
19420886927
19420892848
19420899012
19420904444
19420910487
19420916224
19420923243
19420928919
19420935633
19420941981
19420947047
19420953456
19420959071
19420966212
19420971034
19420978968
19420985011
19420989893
19420996241
19421001612
19421007960
19421013880
19421019190
19421026270
19421033106
19421038660
19421044947
19421051295
19421055933
19421062342
19421069788
19421073939
19421081263
19421087916
19421094385
19421101343
19421107691
19421113489
19421119898
19421127100
19421134058
19421140711
19421145655
19421152735
19421157740
19421166651
19421173182
19421179712
19421186609
19421192652
19421198938
19421205530
19421211512
19421218042
19421224817
19421231592
19421238001
19421245935
19421253443
19421259180
19421266809
19421274317
19421281824
19421293482
19421298608
19421306177
19421313135
19421319849
19421326501
19421334009
19421339197
19421347864
19421353174
19421361475
19421366663
19421374170
19421381189
19421388025
19421393579
19421400415
19421405786
19421413843
19421419275
19421427514
19421434106
19421440515
19421446191
19421454919
19421462060
19421467187
19421475244
19421482080
19421486901
19421493798
19421501001
19421507470
19421513757
19421520227
19421526696
19421533898
19421541345
19421548364
19421555139
19421562158
19421568383
19421575402
19421582604
19421589318
19421596093
19421603295
19421609887
19421614892
19421621789
19421628808
19421635400
19421642236
19421648339
19421653893
19421661523
19421667077
19421678612
19421688866
19421698266
19421706200
19421714562
19421724267
19421730797
19421740990
19421750817
19421759789
19421771691
19421782433
19421791405
19421799950
19421810082
19421820275
19421830345
19421839134
19421850914
19421859703
19421869042
19421877525
19421886986
19421897972
19421906273
19421917442
19421927696
19421937706
19421947288
19421956749
19421967674
19421978721
19421988121
19421999046
19422010155
19422024925
19422032982
19422046104
19422057762
19422068016
19422075706
19422085044
19422094627
19422104820
19422114646
19422122642
19422131980
19422142356
19422150596
19422158714
19422170127
19422178184
19422188743
19422197898
19422207542
19422217307
19422226707
19422236411
19422243186
19422254844
19422261558
19422272544
19422279258
19422290977
19422297751
19422308677
19422315391
19422327475
19422334861
19422346518
19422355124
19422364158
19422373130
19422381736
19422389426
19422401389
19422406760
19422418601
19422428244
19422437216
19422446921
19422455771
19422464255
19422473654
19422484519
19422491660
19422503500
19422511191
19422521384
19422528891
19422539023
19422546408
19422557028
19422564841
19422574667
19422586020
19422595846
19422605185
19422613180
19422621847
19422630453
19422639303
19422649801
19422658346
19422668661
19422677267
19422686300
19422694784
19422704306
19422714865
19422724203
19422733358
19422745321
19422754537
19422763876
19422773763
19422783285
19422794149
19422801595
19422814291
19422824300
19422833700
19422839498
19422854269
19422862569
19422873128
19422885213
19422892599
19422905477
19422913961
19422930623
19422941121
19422949239
19422962178
19422970967
19422980733
19422991353
19423001241
19423009114
19423018453
19423029317
19423039266
19423048848
19423056233
19423067281
19423076436
19423084859
19423093892
19423102864
19423109090
19423119099
19423128560
19423138448
19423146016
19423151692
19423160359
19423165486
19423173054
19423179890
19423185750
19423191792
19423198201
19423206257
19423211323
19423218281
19423225361
19423231526
19423236775
19423242634
19423247395
19423254048
19423259114
19423267537
19423274311
19423281208
19423284993
19423293476
19423300679
19423305683
19423313008
19423318012
19423324665
19423331440
19423338398
19423343464
19423351948
19423357258
19423364155
19423371296
19423377583
19423383259
19423389546
19423396381
19423404438
19423411091
19423417561
19423421711
19423428913
19423434406
19423441120
19423446735
19423455219
19423459064
19423468281
19423475666
19423481159
19423488544
19423495258
19423501301
19423508381
19423514972
19423521747
19423528400
19423533405
19423541706
19423546589
19423555011
19423560993
19423567951
19423576374
19423583149
19423590839
19423599323
19423609272
19423618610
19423625934
19423632587
19423638385
19423645526
19423651630
19423657611
19423663837
19423670673
19423674945
19423682819
19423690326
19423695636
19423703387
19423709979
19423716266
19423721393
19423728412
19423734821
19423741046
19423745990
19423752704
19423759540
19423765887
19423772601
19423778033
19423782794
19423791034
19423796649
19423803302
19423810321
19423815814
19423822345
19423828265
19423833880
19423841021
19423846515
19423855182
19423860797
19423869098
19423875994
19423882403
19423888446
19423896624
19423901019
19423908770
19423915362
19423922015
19423928240
19423937518
19423942217
19423950762
19423955157
19423964678
19423969012
19423977190
19423984026
19423990191
19423996905
19424004534
19424011492
19424020464
19424026873
19424034319
19424040789
19424048540
19424055437
19424062334
19424068560
19424078264
19424084612
19424091753
19424097918
19424107073
19424113360
19424120806
19424126665
19424135271
19424143328
19424150713
19424156511
19424165606
19424174028
19424181841
19424189165
19424195208
19424202898
19424210588
19424218340
19424225298
19424233415
19424242021
19424248857
19424258501
19424275713
19424284013
19424292070
19424304277
19424310014
19424320329
19424327470
19424335161
19424341692
19424349687
19424355913
19424362871
19424369829
19424378251
19424385454
19424393876
19424400346
19424408159
19424414384
19424421586
19424427873
19424437089
19424443620
19424452592
19424459001
19424466935
19424472551
19424480668
19424485795
19424494401
19424499528
19424505754
19424510881
19424516618
19424521745
19424528703
19424533830
19424540360
19424545487
19424552445
19424557511
19424563188
19424568376
19424575761
19424582108
19424586991
19424592362
19424599931
19424606889
19424611893
19424619157
19424625870
19424632828
19424637528
19424644547
19424649064
19424655900
19424662675
19424668595
19424675797
19424681901
19424687028
19424693253
19424698197
19424705582
19424712174
19424717972
19424724564
19424730912
19424736954
19424743851
19424748490
19424753067
19424759903
19424768753
19424772904
19424779374
19424785843
19424792313
19424797318
19424803849
19424809769
19424817093
19424823624
19424829605
19424834793
19424841263
19424846329
19424850907
19424858597
19424864578
19424875198
19424882767
19424889542
19424895767
19424902969
19424909439
19424917984
19424924087
19424929947
19424936783
19424942581
19424950394
19424957046
19424963333
19424969620
19424975906
19424982620
19424988846
19424995376
19425002884
19425009781
19425015579
19425021682
19425028579
19425035537
19425040603
19425046829
19425053421
19425060012
19425066848
19425072769
19425078079
19425085281
19425090774
19425098526
19425104568
19425111770
19425117813
19425125686
19425132766
19425139419
19425143569
19425151748
19425159011
19425165847
19425171951
19425178176
19425184524
19425189407
19425196182
19425203078
19425209670
19425216567
19425222854
19425229018
19425237197
19425242934
19425249343
19425255141
19425262954
19425268691
19425275466
19425281264
19425289016
19425295119
19425301528
19425307753
19425314406
19425318801
19425326674
19425334304
19425341140
19425347792
19425353225
19425360976
19425366469
19425373915
19425380751
19425387587
19425397780
19425404738
19425410842
19425417739
19425423964
19425431166
19425436904
19425444960
19425450881
19425458632
19425465163
19425472182
19425479079
19425487685
19425494276
19425501967
19425510146
19425515700
19425524123
19425531020
19425539259
19425545180
19425553053
19425560744
19425566176
19425573439
19425579786
19425587965
19425595656
19425602675
19425608290
19425615553
19425621473
19425629774
19425636427
19425643141
19425650038
19425657545
19425661390
19425670912
19425678053
19425684584
19425692518
19425697828
19425707228
19425714186
19425720655
19425724928
19425734815
19425741834
19425749769
19425757520
19425765211
19425773756
19425781080
19425783460
19425794630
19425799757
19425808607
19425813917
19425823682
19425826124
19425836133
19425844190
19425851514
19425857862
19425865003
19425870252
19425879041
19425884290
19425892408
19425896741
19425907911
19425912122
19425920301
19425926404
19425935132
19425942640
19425949781
19425956800
19425965406
19425971814
19425979688
19425986219
19425993909
19425999829
19426008985
19426015210
19426023938
19426029859
19426037854
19426045606
19426052747
19426061414
19426068433
19426076245
19426081799
19426090772
19426095837
19426105298
19426113660
19426122998
19426132458
19426140759
19426149487
19426158459
19426164746
19426173352
19426182263
19426189404
19426198620
19426205395
19426214856
19426227246
19426232495
19426245129
19426252758
19426259289
19426266369
19426270092
19426278393
19426286511
19426292858
19426298352
19426304760
19426311718
19426318920
19426324719
19426331921
19426338268
19426345104
19426350964
19426357739
19426364391
19426369824
19426376171
19426381481
19426389538
19426394787
19426401012
19426406322
19426414623
19426420788
19426427074
19426432629
19426439403
19426442943
19426450390
19426456982
19426462780
19426468700
19426474560
19426482372
19426488842
19426494518
19426499584
19426506664
19426511852
19426519054
19426523998
19426531505
19426537487
19426544567
19426550670
19426556408
19426561473
19426567211
19426573436
19426579235
19426585582
19426591991
19426598400
19426603160
19426610240
19426616771
19426622508
19426628612
19426633800
19426640636
19426645336
19426652721
19426658885
19426664928
19426670848
19426676708
19426682628
19426689220
19426695262
19426699535
19426709544
19426717906
19426723094
19426730296
19426735667
19426742259
19426749766
19426755687
19426761241
19426767833
19426773692
19426780650
19426784190
19426792918
19426800914
19426806407
19426815196
19426822520
19426832835
19426840098
19426847911
19426855784
19426863108
19426869578
19426876231
19426882762
19426889231
19426895152
19426901805
19426907969
19426914500
19426922556
19426927806
19426935862
19426941294
19426948741
19426956004
19426963206
19426968516
19426977976
19426983836
19426990672
19426997935
19427005015
19427012644
19427020151
19427025523
19427033762
19427039805
19427048350
19427052744
19427062571
19427071909
19427078501
19427085032
19427092539
19427099863
19427107798
19427113901
19427120981
19427127390
19427132517
19427141916
19427147959
19427155893
19427162485
19427168772
19427175974
19427184641
19427192942
19427199350
19427206003
19427212534
19427218698
19427225229
19427232187
19427237192
19427244272
19427250864
19427258005
19427263071
19427269785
19427276376
19427282968
19427287973
19427296213
19427303720
19427310068
19427315378
19427323862
19427329233
19427337411
19427342660
19427351938
19427357370
19427366281
19427372323
19427380319
19427386667
19427394174
19427399545
19427407602
19427414926
19427421945
19427426400
19427434884
19427442453
19427449472
19427456308
19427463571
19427470224
19427477792
19427486581
19427494332
19427502999
19427510140
19427519784
19427526925
19427534677
19427541879
19427549752
19427557198
19427564278
19427570870
19427578133
19427585763
19427593392
19427600594
19427606148
19427614266
19427621773
19427627450
19427635262
19427642708
19427648263
19427654854
19427662118
19427668709
19427676156
19427684090
19427690072
19427698617
19427704903
19427711312
19427717354
19427726265
19427732369
19427741219
19427747689
19427754769
19427760811
19427768196
19427776497
19427782723
19427790413
19427797554
19427805916
19427812935
19427819039
19427825569
19427833321
19427838936
19427846565
19427855843
19427861580
19427870491
19427877144
19427884224
19427889717
19427897285
19427905525
19427911751
19427919746
19427928963
19427935005
19427942818
19427948128
19427955757
19427962715
19427968757
19427975349
19427981819
19427988655
19427994087
19428000374
19428005867
19428012031
19428018196
19428023323
19428029060
19428034248
19428041145
19428046577
19428053718
19428060005
19428066780
19428072395
19428080329
19428087532
19428093147
19428099922
19428106269
19428112007
19428119880
19428126655
19428133003
19428138191
19428145088
19428152595
19428160102
19428170112
19428176826
19428187568
19428195869
19428207465
19428214790
19428219977
19428224189
19428231513
19428236335
19428242194
19428247993
19428254157
19428259711
19428265632
19428270331
19428277533
19428282660
19428289252
19428295966
19428302680
19428307868
19428315497
19428321479
19428327216
19428333258
19428339484
19428347846
19428352668
19428359381
19428364814
19428370856
19428373969
19428382270
19428386908
19428394904
19428399848
19428405829
19428410773
19428416754
19428423285
19428428534
19428435675
19428441962
19428447882
19428453925
19428459662
19428465949
19428471808
19428477728
19428483893
19428490851
19428495856
19428503485
19428509466
19428515570
19428521185
19428528570
19428535651
19428542059
19428549383
19428555914
19428562872
19428567328
19428573492
19428581854
19428587774
19428594610
19428601263
19428610113
19428616827
19428623602
19428632208
19428638372
19428644842
19428651373
19428657843
19428663397
19428669805
19428676214
19428684088
19428689886
19428694952
19428702093
19428707098
19428713873
19428719000
19428729009
19428735235
19428742559
19428749517
19428757085
19428765081
19428773504
19428785162
19428792181
19428798040
19428806036
19428812566
19428819463
19428825384
19428832708
19428839544
19428846197
19428852971
19428859685
19428866460
19428872014
19428880193
19428887029
19428893743
19428900884
19428907415
19428913945
19428919378
19428927434
19428934697
19428939946
19428946904
19428953069
19428959050
19428967412
19428974065
19428981084
19428985356
19428994329
19429001531
19429008183
19429013799
19429020390
19429027226
19429034429
19429040288
19429047429
19429053960
19429059941
19429067754
19429074651
19429081548
19429088689
19429096379
19429102666
19429109807
19429117070
19429124272
19429130253
19429137456
19429145024
19429150578
19429155583
19429164677
19429172795
19429180424
19429186833
19429194829
19429201603
19429209050
19429215886
19429223576
19429230473
19429237553
19429242741
19429252140
19429259709
19429265568
19429273381
19429282048
19429289311
19429294804
19429301335
19429310612
19429317448
19429326664
19429333317
19429340275
19429346317
19429354496
19429360477
19429369755
19429375553
19429384830
19429391239
19429398746
19429406742
19429412601
19429423038
19429429142
19429439762
19429444584
19429454105
19429462711
19429470463
19429482792
19429491581
19429499881
19429506656
19429514957
19429522892
19429529178
19429535160
19429542118
19429549930
19429557865
19429564395
19429572330
19429578800
19429586612
19429594364
19429602298
19429608096
19429613712
19429624210
19429629703
19429638736
19429643375
19429653507
19429658023
19429668277
19429675662
19429683170
19429689883
19429696658
19429704654
19429709964
19429715213
19429723025
19429729190
19429736026
19429743167
19429749942
19429756534
19429763064
19429767886
19429775821
19429782473
19429789187
19429795840
19429800601
19429806949
19429813113
19429819583
19429825869
19429832583
19429838931
19429843875
19429850222
19429856875
19429863040
19429869509
19429874270
19429880801
19429887210
19429893618
19429899905
19429906191
19429912966
19429919131
19429924258
19429932192
19429938845
19429943667
19429949892
19429955325
19429962710
19429967837
19429972842
19429980593
19429985720
19429992739
19429998293
19430005251
19430012026
19430018313
19430024660
19430031008
19430037173
19430043825
19430049807
19430054995
19430061648
19430066347
19430073916
19430077517
19430085817
19430092104
19430101626
19430107363
19430112856
19430120119
19430125551
19430134706
19430138247
19430146181
19430152468
19430158876
19430165102
19430172670
19430178591
19430184511
19430190859
19430195436
19430202883
19430207460
19430215212
19430221742
19430227968
19430233034
19430240236
19430245241
19430251527
19430256593
19430263490
19430270570
19430276491
19430282411
19430289125
19430293153
19430301637
19430308412
19430315065
19430319704
19430327394
19430331300
19430339601
19430343446
19430352296
19430358583
19430365114
19430372438
19430378908
19430385133
19430390077
19430397767
19430402711
19430410524
19430416993
19430422059
19430428651
19430436097
19430440980
19430448854
19430453797
19430461793
19430469483
19430476075
19430481385
19430489991
19430495301
19430503785
19430509034
19430518739
19430523744
19430531983
19430537476
19430543641
19430550599
19430556275
19430563416
19430570130
19430577149
19430583131
19430588624
19430595887
19430601441
19430609193
19430614686
19430622254
19430627686
19430635804
19430642335
19430649354
19430656373
19430661744
19430667481
19430676636
19430683228
19430690003
19430697083
19430703797
19430710755
19430717774
19430723206
19430731446
19430738648
19430745972
19430754212
19430761963
19430769104
19430778504
19430787354
19430795044
19430801697
19430807556
19430814087
19430820435
19430826904
19430835144
19430840637
19430847900
19430853333
19430860291
19430865906
19430872498
19430879517
19430887573
19430893738
19430900452
19430906555
19430912231
19430918518
19430926575
19430935730
19430941345
19430949585
19430956787
19430961975
19430969177
19430976013
19430983581
19430991089
19430998779
19431006103
19431011535
19431017639
19431025207
19431031189
19431040527
19431044860
19431054504
19431061340
19431067077
19431073181
19431081481
19431087402
19431095703
19431102233
19431109741
19431116699
19431124450
19431132995
19431139770
19431145690
19431153930
19431162780
19431169006
19431176818
19431184264
19431192016
19431197936
19431205627
19431212951
19431221191
19431227172
19431235839
19431243773
19431249694
19431257079
19431265441
19431273131
19431279540
19431286132
19431296325
19431303710
19431310546
19431317138
19431324767
19431331725
19431340514
19431346617
19431357054
19431364134
19431372069
19431378050
19431386778
19431392577
19431400633
19431408934
19431415099
19431423155
19431431456
19431438048
19431446654
19431453490
19431461302
19431469237
19431478880
19431490965
19431496275
19431504027
19431511412
19431517882
19431523253
19431530760
19431536070
19431542418
19431547728
19431555784
19431561094
19431568297
19431573546
19431580626
19431585875
19431593260
19431599241
19431604734
19431610106
19431617552
19431623228
19431631163
19431637693
19431643675
19431649473
19431657713
19431661619
19431669432
19431674803
19431682798
19431688352
19431695799
19431699339
19431707517
19431713255
19431720274
19431726621
19431732298
19431739072
19431744077
19431751035
19431756345
19431763120
19431768186
19431774595
19431779417
19431785764
19431790830
19431798460
19431804258
19431810056
19431816038
19431822263
19431828611
19431834714
19431840330
19431846006
19431851560
19431857908
19431864194
19431870603
19431875852
19431882139
19431888547
19431893369
19431900083
19431904966
19431912595
19431918821
19431925168
19431931394
19431937680
19431944760
19431950742
19431957517
19431962522
19431969907
19431975888
19431981931
19431988584
19431994748
19432001584
19432008725
19432014646
19432022092
19432029599
19432035947
19432041928
19432050473
19432057004
19432065732
19432072385
19432081235
19432088376
19432100766
19432108700
19432114377
19432123288
19432128842
19432136227
19432141781
19432149228
19432155087
19432163510
19432169369
19432177121
19432183346
19432190426
19432194455
19432202511
19432208004
19432215207
19432220761
19432229550
19432233334
19432241329
19432247494
19432254269
19432260494
19432267086
19432275204
19432280514
19432288326
19432293331
19432300594
19432307919
19432314999
19432322140
19432328304
19432335629
19432342831
19432348019
19432356258
19432363216
19432370296
19432375423
19432383968
19432389278
19432397213
19432402828
19432409542
19432416744
19432423214
19432428829
19432437008
19432442928
19432451290
19432456905
19432464534
19432470760
19432478450
19432484981
19432492244
19432498836
19432505489
19432512935
19432518123
19432526912
19432532100
19432540096
19432547115
19432552913
19432560054
19432567623
19432574153
19432581050
19432587520
19432594844
19432602596
19432609126
19432615657
19432622371
19432629024
19432636226
19432644283
19432652278
19432659358
19432667476
19432675166
19432683406
19432690486
19432696529
19432705318
19432711787
19432719173
19432726069
19432734553
19432744319
19432750300
19432760493
19432767939
19432775203
19432783015
19432790156
19432797297
19432805293
19432810298
19432818965
19432824824
19432832820
19432838496
19432846186
19432852595
19432859614
19432866450
19432875605
19432880854
19432889033
19432896906
19432904170
19432909174
19432917658
19432924983
19432932063
19432938960
19432946162
19432954279
19432959711
19432967463
19432974848
19432982966
19432991694
19432998225
19433006159
19433012751
19433020807
19433027216
19433035090
19433043513
19433050165
19433058954
19433066523
19433073908
19433080683
19433090570
19433095209
19433106806
19433114435
19433121332
19433128229
19433137628
19433145075
19433153009
19433161066
19433168817
19433173517
19433184137
19433192377
19433198419
19433205682
19433214166
19433221613
19433228510
19433235407
19433242242
19433249445
19433255853
19433261896
19433268854
19433275995
19433283075
19433288934
19433295648
19433302545
19433308710
19433314630
19433319940
19433329523
19433335016
19433340936
19433347833
19433354425
19433361505
19433366510
19433374566
19433380548
19433386712
19433393182
19433399408
19433407708
19433414544
19433423028
19433430841
19433437310
19433443536
19433450799
19433463250
19433469293
19433475823
19433482537
19433488946
19433494988
19433499871
19433507012
19433512505
19433519586
19433525384
19433530999
19433537896
19433544366
19433550225
19433556451
19433563042
19433568963
19433576592
19433582391
19433588067
19433593926
19433600457
19433607781
19433612542
19433619500
19433624383
19433630974
19433638177
19433643792
19433649956
19433656304
19433662896
19433667168
19433675164
19433680291
19433686882
19433692070
19433701104
19433706902
19433712456
19433718926
19433725396
19433731804
19433737603
19433745171
19433750359
19433756096
19433763359
19433768303
19433775261
19433783135
19433789726
19433796135
19433802910
19433810600
19433816460
19433823906
19433828789
19433836235
19433844231
19433849846
19433857719
19433863701
19433870720
19433876945
19433884819
19433892570
19433899345
19433904716
19433912407
19433919731
19433927421
19433932121
19433940910
19433946525
19433954216
19433959282
19433966301
19433972343
19433981437
19433987724
19433992729
19434001335
19434009452
19434017204
19434024711
19434033439
19434039604
19434048942
19434056571
19434065666
19434072807
19434078544
19434086173
19434093986
19434100822
19434104789
19434114250
19434121818
19434128593
19434136100
19434141105
19434148856
19434157035
19434164237
19434172172
19434179557
19434185721
19434194633
19434200858
19434208671
19434214896
19434221976
19434228812
19434235526
19434242850
19434251456
19434261893
19434271048
19434279532
19434288749
19434297782
19434303763
19434311942
19434317801
19434326834
19434330985
19434339957
19434346915
19434352896
19434362967
19434368521
19434376395
19434383414
19434390494
19434397391
19434404044
19434411673
19434418021
19434425345
19434433829
19434441031
19434447928
19434453726
19434460989
19434468802
19434475943
19434482413
19434489065
19434496878
19434503287
19434509939
19434514883
19434523977
19434531302
19434538382
19434544119
19434551993
19434557608
19434564871
19434573294
19434580130
19434587088
19434594046
19434600454
19434607534
19434615286
19434620718
19434629446
19434637503
19434645864
19434651663
19434659536
19434667044
19434674001
19434681143
19434689016
19434697012
19434703603
19434711355
19434717519
19434726064
19434731741
19434745535
19434753774
19434758718
19434767019
19434772939
19434779470
19434785757
19434792837
19434800527
19434807912
19434814260
19434821401
19434828481
19434836049
19434842763
19434850271
19434857778
19434863149
19434870229
19434877858
19434885610
19434893239
19434898793
19434905873
19434913991
19434919912
19434926869
19434934621
19434942189
19434947682
19434955312
19434962331
19434967580
19434976186
19434983327
19434990346
19434997731
19435004567
19435011037
19435017629
19435024525
19435029164
19435035878
19435042592
19435049428
19435054616
19435061269
19435068043
19435075246
19435080922
19435087453
19435095326
19435101491
19435107106
19435113331
19435118580
19435126454
19435132557
19435138234
19435143605
19435151661
19435155507
19435163197
19435169239
19435176686
19435181141
19435187855
19435194264
19435200611
19435204335
19435213612
19435218190
19435225880
19435230519
19435237965
19435244374
19435250355
19435257252
19435262928
19435269947
19435274342
19435280934
19435287281
19435293018
19435299610
19435305409
19435311939
19435318287
19435323719
19435329578
19435335560
19435342152
19435348377
19435354298
19435357960
19435367176
19435374500
19435381092
19435387501
19435394337
19435400135
19435406421
19435411548
19435417774
19435423511
19435430897
19435436329
19435441700
19435449146
19435456592
19435463123
19435467762
19435475757
19435480457
19435486438
19435492847
19435498890
19435504688
19435510669
19435517505
19435524158
19435530445
19435535877
19435544055
19435550037
19435558338
19435564380
19435570972
19435578723
19435585010
19435591907
19435597583
19435604724
19435613330
19435619922
19435626880
19435633350
19435640247
19435644153
19435652026
19435657397
19435665698
19435669665
19435678454
19435683948
19435692370
19435698901
19435705432
19435712634
19435717639
19435725696
19435730578
19435737964
19435744616
19435749499
19435757373
19435764453
19435771228
19435778247
19435785510
19435793566
19435798999
19435806445
19435814074
19435821459
19435826953
19435834643
19435840136
19435846728
19435852282
19435860339
19435865832
19435873583
19435879809
19435886401
19435892565
19435898364
19435903857
19435911242
19435917101
19435925829
19435932787
19435939806
19435943835
19435953051
19435960558
19435967577
19435972582
19435981249
19435988390
19435995470
19436008227
19436016039
19436021715
19436029528
19436037462
19436043932
19436049303
19436055712
19436062853
19436068956
19436076281
19436082018
19436087572
19436094103
19436101183
19436108080
19436113695
19436119799
19436126940
19436134020
19436139818
19436146898
19436152574
19436159960
19436165697
19436173326
19436179064
19436188707
19436195909
19436203600
19436211412
19436217455
19436223680
19436232591
19436239488
19436246141
19436252733
19436261644
19436268602
19436274522
19436280626
19436288682
19436294908
19436303575
19436309556
19436316636
19436322801
19436331651
19436338182
19436344835
19436353074
19436360643
19436367112
19436375413
19436381395
19436390062
19436396043
19436403550
19436411729
19436421189
19436427537
19436435655
19436443589
19436449815
19436457566
19436463365
19436472764
19436477281
19436487534
19436492295
19436501328
19436509324
19436517136
19436523606
19436530686
19436537339
19436547593
19436554185
19436562241
19436568772
19436578110
19436584824
19436593613
19436602219
19436611985
19436619126
19436627854
19436634446
19436643235
19436652451
19436657639
19436667954
19436673142
19436684006
19436691758
19436700791
19436708054
19436715866
19436728256
19436736435
19436748337
19436754196
19436762924
19436771042
19436780014
19436786484
19436792893
19436799790
19436806564
19436814377
19436820175
19436825668
19436833054
19436838425
19436846359
19436851852
19436859360
19436865280
19436871323
19436877365
19436883285
19436888656
19436895981
19436901901
19436908981
19436912948
19436920517
19436926925
19436933090
19436939804
19436944687
19436952499
19436959091
19436963913
19436970321
19436977462
19436984176
19436990524
19436997238
19437004806
19437011764
19437018356
19437025192
19437031051
19437037704
19437044174
19437050826
19437057479
19437063522
19437069503
19437075668
19437082504
19437087325
19437093856
19437098739
19437105392
19437110214
19437117049
19437121993
19437130355
19437134994
19437141647
19437149032
19437154830
19437160018
19437165816
19437171737
19437177901
19437183394
19437189925
19437196761
19437202010
19437209151
19437213973
19437220931
19437225692
19437233748
19437238021
19437246688
19437252242
19437258162
19437264998
19437271529
19437276839
19437283492
19437291487
19437296736
19437304061
19437309066
19437315474
19437320540
19437327681
19437333174
19437342147
19437346968
19437354781
19437362288
19437369795
19437375227
19437382552
19437389571
19437395491
19437403365
19437408919
19437416609
19437422347
19437429366
19437434981
19437442793
19437448225
19437456587
19437460493
19437468245
19437474470
19437481367
19437485274
19437494368
19437501753
19437508284
19437514937
19437521406
19437527571
19437534041
19437540510
19437547651
19437553938
19437560713
19437567060
19437573713
19437580305
19437586836
19437593672
19437600508
19437607099
19437614057
19437621321
19437626692
19437634016
19437640974
19437648115
19437655012
19437661299
19437668073
19437674726
19437679609
19437687788
19437692854
19437702253
19437710432
19437716535
19437723737
19437729780
19437737226
19437743208
19437750532
19437757185
19437763105
19437771162
19437777021
19437785383
19437791852
19437797162
19437805097
19437811384
19437817121
19437824384
19437829999
19437838910
19437845441
19437852582
19437859479
19437866193
19437870893
19437878766
19437882489
19437891034
19437898542
19437903974
19437912152
19437917218
19437923871
19437930463
19437937604
19437944928
19437952008
19437957501
19437966657
19437972455
19437979474
19437986615
19437991803
19438000897
19438009686
19438015729
19438023175
19438031171
19438042889
19438049481
19438059552
19438064007
19438073285
19438080426
19438087506
19438095685
19438101605
19438109295
19438116986
19438124310
19438129742
19438138348
19438145611
19438151349
19438160626
19438168255
19438175457
19438179730
19438188519
19438195477
19438203350
19438207623
19438216900
19438224224
19438232281
19438239178
19438244549
19438250714
19438259075
19438265179
19438272259
19438278362
19438287762
19438294415
19438301922
19438309063
19438317730
19438326580
19438333782
19438339825
19438348003
19438354534
19438363445
19438371197
19438378643
19438384746
19438393352
19438399822
19438408306
19438414470
19438421184
19438430523
19438438091
19438444683
19438451580
19438460186
19438466716
19438475566
19438482097
19438491680
19438500103
19438507976
19438514751
19438523784
19438531719
19438536540
19438546184
19438550823
19438559368
19438565776
19438575969
19438583171
19438588664
19438594035
19438601665
19438608501
19438613261
19438618694
19438627544
19438631389
19438639445
19438643230
19438651286
19438657390
19438663737
19438671306
19438677714
19438683085
19438689555
19438696330
19438702617
19438708720
19438715434
19438721293
19438729289
19438736918
19438744304
19438751078
19438756633
19438764750
19438772197
19438778361
19438787394
19438793864
19438801860
19438809794
19438816996
19438823893
19438830912
19438836833
19438842509
19438848734
19438854411
19438860697
19438866252
19438873271
19438879191
19438884501
19438892497
19438896220
19438903849
19438907328
19438915873
19438923991
19438928690
19438935892
19438940287
19438946513
19438953471
19438959452
19438965922
19438972941
19438978495
19438985575
19438991495
19438997721
19439003092
19439009134
19439015421
19439021647
19439028666
19439033426
19439040873
19439047709
19439053873
19439060587
19439066202
19439072733
19439078775
19439084207
19439091898
19439097330
19439103922
19439111185
19439117594
19439124002
19439130472
19439137186
19439143534
19439149820
19439156351
19439163126
19439169779
19439176431
19439183328
19439189859
19439196817
19439202982
19439209634
19439216531
19439221658
19439228921
19439235574
19439243021
19439248147
19439255350
19439265787
19439272989
19439279947
19439287759
19439295450
19439302774
19439308023
19439315347
19439322793
19439329568
19439335550
19439342569
19439351297
19439358499
19439369241
19439376809
19439386514
19439394815
19439402261
19439406533
19439417337
19439424233
19439430825
19439437783
19439444558
19439451882
19439458962
19439465310
19439472634
19439478677
19439486672
19439493142
19439499368
19439506814
19439514260
19439521279
19439527871
19439534646
19439540749
19439547280
19439555154
19439560280
19439568886
19439573891
19439582924
19439588723
19439597451
19439603249
19439611428
19439617104
19439624550
19439630837
19439638894
19439645913
19439652932
19439660317
19439665505
19439672768
19439679360
19439686074
19439693276
19439701271
19439707131
19439714333
19439720009
19439728005
19439733803
19439742409
19439751015
19439757912
19439763893
19439770851
19439778969
19439786049
19439791786
19439798927
19439805519
19439811623
19439819435
19439827431
19439834694
19439840919
19439849953
19439856178
19439863380
19439869301
19439878090
19439885780
19439892616
19439899269
19439907448
19439915260
19439922767
19439929786
19439935829
19439943580
19439950233
19439958900
19439965736
19439974342
19439982704
19439988441
19439998451
19440004859
19440013893
19440020057
19440029212
19440036659
19440047096
19440054603
19440062965
19440070228
19440079688
19440086402
19440094886
19440101600
19440112464
19440121009
19440126990
19440134681
19440143104
19440151588
19440159766
19440164588
19440174781
19440183570
19440189795
19440196570
19440206458
19440214881
19440221717
19440228980
19440239356
19440244483
19440253882
19440261512
19440271582
19440278907
19440289527
19440296790
19440305640
19440313269
19440323401
19440330786
19440339758
19440347022
19440356238
19440363196
19440370947
19440380042
19440387488
19440393286
19440401221
19440408972
19440416907
19440422278
19440428625
19440436133
19440441748
19440447241
19440455908
19440464209
19440470923
19440477759
19440482580
19440490576
19440495459
19440503332
19440510473
19440517004
19440522497
19440529699
19440535009
19440543554
19440550085
19440556555
19440563269
19440569982
19440576635
19440582800
19440589147
19440595739
19440602026
19440608312
19440615087
19440623510
19440632482
19440639196
19440647619
19440656164
19440663122
19440671056
19440677099
19440682836
19440689489
19440695470
19440702001
19440707616
19440714880
19440720922
19440726720
19440732885
19440739172
19440746435
19440752782
19440759557
19440765600
19440773595
19440777868
19440786229
19440791601
19440800573
19440807897
19440814550
19440820104
19440826635
19440831884
19440838842
19440844640
19440849828
19440857457
19440864904
19440870946
19440877172
19440883397
19440890966
19440895909
19440903783
19440908910
19440916844
19440922704
19440930333
19440935948
19440942052
19440949132
19440955663
19440961827
19440967503
19440974950
19440983250
19440990086
19440996617
19441004430
19441010594
19441017247
19441024205
19441031041
19441037877
19441044835
19441052952
19441060216
19441067601
19441073277
19441080845
19441086155
19441094334
19441102330
19441109227
19441116246
19441123265
19441130711
19441135777
19441144139
19441149083
19441157627
19441165745
19441172520
19441178929
19441185643
19441192356
19441199192
19441207005
19441213719
19441220738
19441227818
19441233677
19441241306
19441247471
19441254307
19441266087
19441272434
19441279881
19441286533
19441292027
19441300083
19441305393
19441313511
19441319431
19441327244
19441333408
19441339817
19441346531
19441353123
19441360386
19441369480
19441378452
19441384434
19441392429
19441399265
19441408603
19441416599
19441424534
19441431675
19441437168
19441444553
19441449741
19441457798
19441464634
19441471775
19441478427
19441485202
19441491367
19441498142
19441505954
19441513217
19441519443
19441527561
19441533969
19441540561
19441547824
19441554599
19441562228
19441569675
19441576633
19441583163
19441590488
19441597018
19441602634
19441609409
19441616428
19441623996
19441631137
19441639987
19441647006
19441652621
19441661960
19441667636
19441675876
19441681918
19441689731
19441697665
19441704318
19441710788
19441718234
19441724887
19441735324
19441743319
19441748996
19441756320
19441763583
19441770358
19441777682
19441785617
19441791659
19441799777
19441807528
19441815219
19441823092
19441830111
19441836276
19441845675
19441854098
19441861422
19441870333
19441877047
19441887240
19441892977
19441902193
19441910067
19441919527
19441926974
19441936495
19441943514
19441951388
19441960787
19441968661
19441975069
19441984896
19441992159
19442000521
19442009127
19442015108
19442024508
19442029512
19442039705
19442047457
19442057650
19442064974
19442073519
19442079988
19442089327
19442095857
19442106356
19442115755
19442129915
19442139131
19442147798
19442154329
19442162142
19442169466
19442177095
19442183382
19442190767
19442195711
19442203645
19442209138
19442215669
19442222566
19442228426
19442234163
19442241792
19442245454
19442254610
19442261629
19442267488
19442274202
19442281221
19442287813
19442293245
19442301240
19442307710
19442313142
19442321016
19442327668
19442334321
19442340669
19442347688
19442352571
19442360505
19442366304
19442373811
19442378999
19442386689
19442392793
19442399446
19442403230
19442412324
19442418794
19442425019
19442432221
19442437409
19442444978
19442450349
19442456635
19442462434
19442469575
19442475617
19442481538
19442488435
19442494599
19442500214
19442507416
19442512849
19442516450
19442524018
19442531159
19442535859
19442543305
19442549225
19442555817
19442559418
19442567475
19442576447
19442582306
19442588288
19442595856
19442601410
19442608307
19442613312
19442620209
19442627289
19442633332
19442640717
19442647004
19442653900
19442662201
19442667206
19442673798
19442678559
19442687531
19442695832
19442703156
19442710297
19442717804
19442727142
19442732941
19442742462
19442752655
19442758209
19442767181
19442771149
19442779022
19442785797
19442792206
19442799164
19442806244
19442813324
19442818268
19442825104
19442831756
19442839264
19442843353
19442851532
19442858917
19442865997
19442872345
19442878509
19442885040
19442891693
19442898651
19442904266
19442911163
19442917328
19442925201
19442931427
19442938385
19442942352
19442950714
19442955658
19442963836
19442971160
19442977508
19442983917
19442990875
19442997650
19443003631
19443009857
19443015289
19443022857
19443028961
19443037628
19443041412
19443049835
19443056487
19443062896
19443068694
19443075774
19443082916
19443089629
19443095367
19443102264
19443108733
19443114593
19443121612
19443126800
19443134673
19443141387
19443148894
19443152862
19443160735
19443167876
19443174041
19443180999
19443186004
19443193633
19443198943
19443205840
19443215972
19443222869
19443230010
19443235564
19443243010
19443249541
19443257415
19443261382
19443270903
19443279326
19443287139
19443293120
19443300749
19443307768
19443314910
19443322539
19443331633
19443340239
19443354582
19443364958
19443372160
19443379912
19443387419
19443395110
19443400481
19443407805
19443413298
19443421660
19443428068
19443436857
19443443205
19443450407
19443458098
19443465361
19443471831
19443479155
19443486784
19443494169
19443502775
19443510771
19443516630
19443524504
19443531645
19443539396
19443546293
19443552397
19443561857
19443568876
19443575590
19443581694
19443589689
19443595793
19443605253
19443609892
19443620573
19443628385
19443636320
19443643949
19443649870
19443656522
19443665861
19443673307
19443683561
19443691434
19443699064
19443708036
19443714689
19443723722
19443730131
19443739774
19443744291
19443754239
19443762418
19443770109
19443777311
19443784757
19443793180
19443801542
19443810758
19443817960
19443825772
19443833219
19443841214
19443850492
19443858548
19443865872
19443871427
19443878446
19443885709
19443891934
19443899320
19443906339
19443914029
19443919950
19443925687
19443932340
19443937894
19443944425
19443952481
19443958890
19443964993
19443971463
19443978055
19443983548
19443989896
19444001004
19444007352
19444013150
19444020840
19444026272
19444036404
19444044278
19444052701
19444060696
19444066739
19444073514
19444080533
19444086453
19444093411
19444099392
19444106106
19444110684
19444117215
19444122281
19444128689
19444134488
19444140103
19444231167
19444238918
19444244839
19444250332
19444257778
19444263760
19444270596
19444276943
19444284573
19444290737
19444297512
19444304592
19444310268
19444317654
19444323635
19444328762
19444336819
19444342190
19444347927
19444354091
19444360500
19444366970
19444373195
19444379116
19444387783
19444394924
19444403164
19444409877
19444416164
19444422573
19444429836
19444436855
19444444423
19444449733
19444459987
19444468959
19444477443
19444484279
19444491970
19444499233
19444505641
19444513759
19444521327
19444527858
19444534450
19444539638
19444547633
19444553249
19444560634
19444568141
19444574733
19444580531
19444586269
19444594813
19444601527
19444608241
19444615382
19444621974
19444628322
19444635463
19444642360
19444649562
19444656154
19444662745
19444669215
19444674891
19444684962
19444690699
19444696620
19444704860
19444710719
19444717311
19444725062
19444730799
19444738307
19444745692
19444750697
19444757899
19444765711
19444771144
19444779383
19444786402
19444793421
19444799220
19444805934
19444812708
19444819422
19444826441
19444832850
19444838587
19444845728
19444851160
19444858668
19444864771
19444871546
19444877406
19444884669
19444891505
19444897608
19444904566
19444910975
19444918604
19444926539
19444933131
19444939234
19444945032
19444953516
19444960962
19444968470
19444976526
19444984278
19444991968
19444994349
19445015772
19445024744
19445029505
19445039759
19445047571
19445057459
19445064661
19445071070
19445077234
19445084375
19445089319
19445098474
19445104944
19445111597
19445118189
19445126123
19445130335
19445139185
19445145532
19445154749
19445162317
19445167810
19445176050
19445182397
19445191431
19445199609
19445206995
19445214075
19445219629
19445228601
19445236291
19445245447
19445252527
19445261194
19445270166
19445276391
19445284326
19445290735
19445300134
19445310876
19445330712
19445340295
19445349755
19445359033
19445368127
19445377404
19445385156
19445392114
19445401330
19445409631
19445418115
19445424889
19445430993
19445435937
19445443749
19445449242
19445455895
19445459435
19445469262
19445475426
19445481469
19445487267
19445493310
19445499291
19445505944
19445512902
19445519860
19445525780
19445532006
19445538659
19445545678
19445550194
19445559044
19445563866
19445572045
19445575524
19445584984
19445591820
19445597496
19445604760
19445612267
19445618004
19445625512
19445631432
19445638573
19445648827
19445654198
19445661583
19445667382
19445675621
19445682213
19445688683
19445696678
19445701744
19445708641
19445713707
19445720421
19445723717
19445732811
19445738854
19445745506
19445752647
19445758202
19445766441
19445775352
19445783470
19445790062
19445797386
19445803551
19445808617
19445816673
19445821007
19445827415
19445835594
19445842552
19445848839
19445853599
19445861229
19445868065
19445873985
19445878990
19445885826
19445893211
19445899315
19445905235
19445911522
19445917686
19445924034
19445932273
19445939231
19445944664
19445951499
19445959129
19445966331
19445972373
19445979331
19445986167
19445993308
19446001182
19446006492
19446013999
19446021262
19446027671
19446032920
19446041648
19446047202
19446054038
19446060081
19446066123
19446072166
19446078941
19446082969
19446091270
19446098228
19446105186
19446109214
19446118918
19446125938
19446133018
19446140708
19446146323
19446154075
19446158896
19446164939
19446171897
19446178733
19446186240
19446192832
19446198630
19446206748
19446212607
19446219016
19446226218
19446232138
19446237509
19446246482
19446252768
19446260337
19446268820
19446276267
19446288230
19446295004
19446305197
19446312460
19446320761
19446325827
19446333334
19446338095
19446344748
19446349570
19446357016
19446363852
19446369650
19446375082
19446382040
19446387411
19446393027
19446399802
19446405417
19446410788
19446417258
19446423544
19446431174
19446437399
19446445639
19446450155
19446458151
19446464438
19446472311
19446479086
19446485190
19446491354
19446500265
19446504538
19446512472
19446519186
19446526327
19446533529
19446539389
19446547872
19446554098
19446558309
19446566671
19446573263
19446579672
19446586508
19446593649
19446599813
19446609579
19446616537
19446622274
19446628439
19446635397
19446641317
19446648336
19446654379
19446663656
19446668172
19446677511
19446682394
19446690816
19446700094
19446707052
19446713705
19446721822
19446728231
19446737996
19446744832
19446753682
19446760274
19446765645
19446775655
19446780660
19446790914
19446798604
19446806905
19446812032
19446820089
19446829183
19446837361
19446844625
19446853170
19446862874
19446868856
19446875447
19446883809
19446892049
19446899312
19446905049
19446912435
19446920979
19446928853
19446937459
19446945027
19446950826
19446962971
19446974080
19446980977
