19357538640
19357549748
19357560368
19357571843
19357581609
19357591618
19357601445
19357609929
19357620854
19357629765
19357639897
19357649296
19357661259
19357672551
19357681950
19357692265
19357701603
19357711979
19357723210
19357733158
19357743168
19357754277
19357765751
19357775089
19357784733
19357794804
19357805058
19357814884
19357825138
19357834965
19357845219
19357856449
19357867130
19357877628
19357888309
19357897953
19357909122
19358179141
19358195438
19358210635
19358227542
19358240115
19358248904
19358256289
19358265750
19358274661
19358281619
19358290896
19358297732
19358307498
19358312259
19358323245
19358331362
19358339724
19358344302
19358353945
19358361697
19358369021
19358376956
19358384402
19358391177
19358398867
19358406863
19358414370
19358422366
19358428164
19358436587
19358444643
19358451479
19358459719
19358466555
19358474367
19358480959
19358489077
19358496462
19358502688
19358511294
19358518130
19358526919
19358534304
19358541567
19358549441
19358557253
19358565310
19358574282
19358581911
19358588442
19358597170
19358604738
19358612001
19358621279
19358626894
19358634584
19358642580
19358650881
19358657961
19358668520
19358677004
19358685121
19358692873
19358701174
19358707216
19358715151
19358723818
19358729921
19358739565
19358748232
19358755128
19358761476
19358768861
19358779665
19358787294
19358797975
19358803346
19358815309
19358822145
19358829652
19358837770
19358845033
19358853456
19358859803
19358867799
19358875428
19358883180
19358890992
19358897706
19358905763
19358913209
19358919618
19358930787
19358939759
19358948060
19358956422
19358964845
19358972535
19358982057
19358990968
19358996888
19359007508
19359013551
19359021302
19359029664
19359038819
19359045167
19359053468
19359059876
19359068238
19359074647
19359083802
19359090089
19359099488
19359106873
19359114258
19359118775
19359128296
19359135804
19359143250
19359151734
19359159668
19359165894
19359173279
19359180787
19359188233
19359196595
19359204041
19359211670
19359217652
19359226990
19359232544
19359242249
19359247925
19359256165
19359264527
19359273987
19359280884
19359289734
19359295960
19359304566
19359311585
19359321228
19359328125
19359337952
19359345032
19359352661
19359359558
19359368591
19359375366
19359384827
19359391601
19359402283
19359409668
19359417969
19359424866
19359433594
19359440490
19359449707
19359456665
19359464843
19359471435
19359480713
19359487671
19359496215
19359505493
19359511962
19359518859
19359528503
19359535583
19359545837
19359550720
19359561096
19359568237
19359577819
19359585937
19359595947
19359601074
19359611877
19359616882
19359628295
19359636718
19359644836
19359653320
19359661742
19359669616
19359675902
19359684203
19359692260
19359701354
19359710204
19359717101
19359726317
19359735351
19359744262
19359752257
19359760619
19359769835
19359778319
19359787963
19359794982
19359803588
19359809874
19359818724
19359824462
19359832762
19359836669
19359846739
19359854491
19359861815
19359869750
19359877196
19359883910
19359891417
19359899291
19359907408
19359914610
19359922179
19359929259
19359935851
19359943724
19359951842
19359959166
19359966673
19359974547
19359981749
19359989195
19359996458
19360003966
19360009032
19360021055
19360028685
19360036558
19360041624
19360052549
19360061644
19360069639
19360079222
19360084532
19360097288
19360105528
19360113096
19360119993
19360127623
19360137205
19360146238
19360154966
19360160032
19360170957
19360177732
19360185301
19360193845
19360202207
19360210569
19360217222
19360225156
19360231870
19360239866
19360248289
19360256223
19360262876
19360272092
19360279294
19360288328
19360295774
19360302854
19360310789
19360316404
19360323606
19360330564
19360337949
19360343870
19360351621
19360359189
19360365781
19360373410
19360378659
19360385678
19360392698
19360399045
19360406003
19360412229
19360417844
19360426572
19360437070
19360442929
19360452024
19360456723
19360468747
19360477780
19360486569
19360492124
19360499692
19360506650
19360512875
19360520261
19360527463
19360533017
19360539365
19360546262
19360552914
19360558285
19360566037
19360570554
19360578915
19360585751
19360591489
19360597653
19360603634
19360610409
19360618405
19360625302
19360630307
19360638608
19360643551
19360650570
19360657650
19360663449
19360671566
19360678585
19360685788
19360692135
19360697934
19360704220
19360711300
19360718441
19360724789
19360733334
19360739865
19360748837
19360755184
19360762448
19360768490
19360775875
19360782284
19360791500
19360797543
19360805904
19360811947
19360819576
19360826046
19360834530
19360841305
19360850643
19360857296
19360864620
19360870541
19360877254
19360885555
19360894405
19360900875
19360908138
19360914242
19360922909
19360929561
19360936947
19360942379
19360950557
19360959652
19360967281
19360973262
19360981197
19360987362
19360993465
19361001461
19361008052
19361016658
19361023372
19361028865
19361037776
19361043636
19361051570
19361059871
19361067806
19361077388
19361085140
19361091304
19361099422
19361107295
19361115718
19361121822
19361132564
19361142512
19361150386
19361162044
19361169185
19361176936
19361186336
19361193538
19361202327
19361210139
19361217097
19361225215
19361232112
19361240718
19361248164
19361257930
19361264399
19361272212
19361278804
19361288020
19361293208
19361302302
19361310237
19361318476
19361323725
19361333369
19361338191
19361347712
19361352412
19361362971
19361370722
19361378962
19361383784
19361393672
19361398310
19361408076
19361412775
19361422663
19361428278
19361437922
19361442988
19361453425
19361461909
19361469111
19361476679
19361485895
19361494440
19361502375
19361510248
19361517878
19361525080
19361534968
19361542231
19361549738
19361556574
19361566889
19361574152
19361580744
19361590509
19361597101
19361606623
19361614557
19361620905
19361630243
19361636286
19361645197
19361650812
19361658930
19361664240
19361672540
19361677484
19361684503
19361692133
19361698541
19361703973
19361710687
19361717523
19361722528
19361729486
19361736200
19361745538
19361752008
19361762262
19361771173
19361778375
19361786432
19361791742
19361799676
19361806207
19361812433
19361815973
19361823602
19361827508
19361838311
19361846978
19361852289
19361861139
19361869012
19361876825
19361884454
19361897088
19361904290
19361910821
19361915704
19361921685
19361926507
19361934014
19361940667
19361946527
19361952447
19361957025
19361964837
19361969842
19361976556
19361983025
19361988580
19361994866
19362000543
19362005608
19362012444
19362018731
19362023309
19362029778
19362035394
19362041619
19362047173
19362053399
19362059746
19362063042
19362071160
19362077202
19362081963
19362089898
19362098015
19362103814
19362107842
19362116021
19362121026
19362127923
19362133538
19362139580
19362145379
19362150200
19362157402
19362164177
19362169915
19362176262
19362181572
19362188347
19362195366
19362200920
19362207024
19362213860
19362219719
19362226738
19362233452
19362238518
19362245903
19362252190
19362259087
19362267082
19362273491
19362281426
19362287224
19362293449
19362298760
19362306084
19362312065
19362318962
19362326164
19362332695
19362339043
19362343803
19362352409
19362356071
19362364433
19362371879
19362377922
19362384575
19362389702
19362399162
19362406364
19362415642
19362423454
19362434257
19362441642
19362451347
19362458183
19362467155
19362474479
19362480033
19362487175
19362492790
19362501701
19362505546
19362516288
19362522148
19362528495
19362536857
19362542411
19362549491
19362555168
19362563529
19362569389
19362576957
19362583549
19362589958
19362596854
19362603324
19362610099
19362616874
19362623527
19362628410
19362636344
19362643607
19362649345
19362656303
19362662162
19362669486
19362676505
19362681937
19362689689
19362694938
19362701163
19362706229
19362713920
19362720633
19362727042
19362733939
19362740348
19362746634
19362753592
19362760428
19362767814
19362774222
19362781180
19362788687
19362793998
19362802481
19362807608
19362814078
19362821585
19362829154
19362836844
19362844168
19362850150
19362857230
19362864676
19362871268
19362879080
19362886221
19362891776
19362898917
19362904654
19362912955
19362918509
19362926138
19362932364
19362941519
19362945914
19362955984
19362960379
19362969534
19362975455
19362985342
19362989981
19362999502
19363003775
19363013296
19363020193
19363027517
19363034475
19363042776
19363050772
19363059378
19363067984
19363076162
19363084280
19363093008
19363101614
19363109182
19363121145
19363128897
19363138601
19363142141
19363154592
19363161916
19363168936
19363175771
19363184622
19363192312
19363198537
19363205862
19363213552
19363220144
19363228201
19363236318
19363242605
19363250478
19363258962
19363265798
19363275014
19363283681
19363291006
19363298452
19363307058
19363314626
19363321035
19363328847
19363334585
19363342763
19363347402
19363355581
19363361684
19363367849
19363374623
19363381459
19363387746
19363394399
19363400319
19363407399
19363414357
19363420522
19363426076
19363434011
19363439076
19363446950
19363453542
19363457387
19363464711
19363469899
19363477895
19363481679
19363489797
19363496205
19363502492
19363506337
19363514027
19363520375
19363526723
19363533437
19363539845
19363546498
19363551198
19363557973
19363564137
19363570180
19363576222
19363582753
19363588978
19363594105
19363600270
19363606495
19363612965
19363620350
19363624745
19363632313
19363637257
19363643849
19363650319
19363656361
19363661549
19363668385
19363673451
19363680958
19363686634
19363692738
19363698902
19363704823
19363710987
19363717152
19363723255
19363729847
19363735645
19363742542
19363749745
19363757069
19363763905
19363772755
19363779286
19363786732
19363792103
19363798756
19363803883
19363811878
19363817310
19363824635
19363830494
19363835987
19363841053
19363848011
19363851612
19363860035
19363866382
19363874561
19363880604
19363886646
19363893177
19363897693
19363904896
19363911365
19363917164
19363922413
19363930591
19363936207
19363943226
19363948658
19363955249
19363960804
19363969165
19363974659
19363982410
19363987903
19363995227
19364001514
19364008045
19364014270
19364020984
19364027515
19364032459
19364038013
19364045581
19364051196
19364059558
19364063464
19364072681
19364076648
19364084827
19364091480
19364098010
19364104541
19364111072
19364114917
19364123706
19364131946
19364137317
19364145068
19364151965
19364157825
19364164722
19364171313
19364178210
19364185290
19364191882
19364198535
19364203601
19364211352
19364216357
19364224414
19364232043
19364238086
19364245471
19364251757
19364256701
19364265063
19364270556
19364278186
19364283923
19364290148
19364297473
19364303576
19364309069
19364316577
19364322192
19364330615
19364336657
19364345019
19364356127
19364361926
19364370837
19364376696
19364387988
19364394579
19364401354
19364409777
19364417834
19364424853
19364430224
19364439379
19364443224
19364452135
19364460131
19364465197
19364473315
19364478441
19364487658
19364492907
19364501574
19364508165
19364514757
19364522020
19364529100
19364535631
19364543383
19364548815
19364554003
19364561205
19364568590
19364574511
19364580858
19364587450
19364593920
19364601000
19364607347
19364613573
19364620958
19364627733
19364635057
19364642504
19364647753
19364654833
19364661424
19364668810
19364673692
19364682176
19364689867
19364696458
19364702013
19364709825
19364715440
19364723192
19364729051
19364739000
19364746507
19364753526
19364760606
19364767564
19364774095
19364780992
19364787950
19364795946
19364802659
19364810289
19364816636
19364824144
19364830369
19364837999
19364845018
19364851060
19364860460
19364867418
19364874681
19364882737
19364889939
19364894090
19364903733
19364912767
19364920091
19364926255
19364933640
19364941392
19364948594
19364954514
19364962083
19364970750
19364978623
19364985337
19364993150
19364998948
19365007432
19365015855
19365025498
19365033433
19365038071
19365047410
19365051987
19365060837
19365068284
19365074937
19365082444
19365088730
19365094285
19365100571
19365106919
19365111924
19365119065
19365124558
19365131699
19365135117
19365142746
19365149949
19365155625
19365161972
19365168442
19365173996
19365179978
19365186081
19365191208
19365198532
19365204392
19365210312
19365216538
19365222763
19365228806
19365234421
19365240341
19365246628
19365252060
19365258530
19365265122
19365270065
19365277939
19365281235
19365289108
19365295395
19365301132
19365308640
19365313034
19365319626
19365323837
19365330185
19365336471
19365342453
19365349228
19365356003
19365361984
19365367477
19365374313
19365381332
19365387558
19365392319
19365397995
19365403915
19365408066
19365415512
19365420883
19365427353
19365433334
19365438522
19365444870
19365450363
19365455856
19365460617
19365469406
19365474960
19365480331
19365486434
19365492477
19365498397
19365503097
19365511337
19365517318
19365522811
19365528793
19365534713
19365541244
19365545699
19365552169
19365557784
19365567794
19365575118
19365582198
19365589156
19365595199
19365602523
19365610091
19365615523
19365622604
19365629501
19365636153
19365640609
19365650374
19365657394
19365663802
19365669784
19365676009
19365682784
19365689132
19365694930
19365702193
19365708480
19365714644
19365720992
19365727523
19365733687
19365740035
19365747359
19365754561
19365759566
19365766585
19365771712
19365778792
19365785323
19365793257
19365798140
19365803939
19365811385
19365817610
19365823409
19365829939
19365837813
19365843611
19365851302
19365857649
19365863326
19365869795
19365876387
19365882124
19365889204
19365896651
19365902205
19365908369
19365915999
19365921797
19365928633
19365935652
19365941756
19365948286
19365955183
19365958784
19365966597
19365974348
19365984663
19365992476
19365997542
19366003767
19366008711
19366016279
19366022017
19366030806
19366035505
19366041487
19366049360
19366053694
19366061323
19366068159
19366074690
19366082136
19366088423
19366095137
19366101911
19366107893
19366113935
19366120710
19366127546
19366134687
19366139692
19366147932
19366154157
19366160078
19366167036
19366176130
19366183088
19366190229
19366197187
19366202436
19366210493
19366216230
19366225812
19366233869
19366240339
19366246686
19366251813
19366258710
19366263715
19366271284
19366276410
19366284345
19366290937
19366296613
19366304181
19366310834
19366316938
19366324323
19366330793
19366336408
19366344281
19366349714
19366358014
19366364728
19366372357
19366379010
19366385358
19366395856
19366403302
19366410565
19366416791
19366426862
19366434308
19366440839
19366447736
19366456464
19366463117
19366469830
19366476361
19366484174
19366493512
19366500043
19366506940
19366514447
19366521222
19366527264
19366535992
19366543378
19366548627
19366557416
19366564252
19366570904
19366575299
19366585919
19366592450
19366598736
19366605023
19366611615
19366618634
19366625531
19366632489
19366641583
19366649273
19366655194
19366663128
19366669049
19366676190
19366682110
19366690289
19366696453
19366706402
19366712933
19366719280
19366724835
19366730694
19366738018
19366744427
19366749371
19366755413
19366761700
19366766644
19366773418
19366778362
19366785381
19366792400
19366798565
19366806744
19366811687
19366819317
19366824078
19366833660
19366839031
19366846722
19366852947
19366861004
19366865459
19366873516
19366878765
19366885784
19366892254
19366898357
19366904155
19366910442
19366915813
19366920635
19366928447
19366934612
19366939861
19366945415
19366952068
19366956768
19366962261
19366968853
19366975872
19366980571
19366986797
19366992412
19366997783
19367003276
19367010356
19367016216
19367021037
19367026775
19367032634
19367037639
19367044292
19367048015
19367055339
19367061504
19367067180
19367073650
19367077739
19367084026
19367088481
19367095683
19367102092
19367107707
19367113383
19367117412
19367124492
19367128276
19367136577
19367141643
19367148784
19367155009
19367160502
19367167766
19367171611
19367179851
19367184855
19367192851
19367198039
19367204936
19367210490
19367216044
19367222331
19367229228
19367237162
19367240580
19367248759
19367255290
19367261027
19367267863
19367274455
19367282023
19367288432
19367294657
19367299723
19367307292
19367313090
19367319132
19367326823
19367333293
19367339213
19367345866
19367352702
19367357523
19367366374
19367374918
19367382060
19367389384
19367396159
19367403605
19367410624
19367416361
19367423563
19367431986
19367438944
19367445109
19367450663
19367456583
19367464640
19367472330
19367479166
19367484903
19367491678
19367498087
19367503946
19367510111
19367517069
19367523539
19367530130
19367537577
19367542643
19367548929
19367556253
19367562540
19367569315
19367575418
19367581949
19367588297
19367595255
19367600199
19367608194
19367614298
19367621866
19367625955
19367634439
19367639688
19367645548
19367652322
19367659403
19367667215
19367672098
19367679361
19367686136
19367691934
19367697794
19367704691
19367712442
19367719095
19367725076
19367730020
19367737588
19367742532
19367750406
19367758035
19367764261
19367770486
19367775674
19367783975
19367790811
19367797647
19367803872
19367811746
19367817117
19367824746
19367832742
19367839273
19367843240
19367853067
19367860452
19367867044
19367874002
19367880471
19367887246
19367894937
19367902017
19367907571
19367916360
19367920266
19367929543
19367935220
19367942971
19367949685
19367958779
19367965920
19367973306
19367982705
19367990945
19367998391
19368006814
19368017251
19368024331
19368033486
19368039590
19368049172
19368053567
19368063393
19368070229
19368078225
19368084633
19368091164
19368097939
19368104958
19368111733
19368116433
19368125344
19368131203
19368139077
19368144692
19368152321
19368157570
19368165261
19368172158
19368182045
19368189247
19368196450
19368202553
19368209633
19368217934
19368223305
19368230629
19368238747
19368246010
19368253761
19368260475
19368268227
19368275673
19368281593
19368289589
19368295570
19368304970
19368312721
19368318703
19368325477
19368334511
19368340858
19368349525
19368356117
19368365333
19368371925
19368379921
19368386879
19368396339
19368400245
19368409095
19368416114
19368421852
19368427894
19368433998
19368439003
19368445289
19368452552
19368457923
19368466590
19368472572
19368478919
19368484107
19368488807
19368496253
19368503150
19368509986
19368517494
19368522560
19368529090
19368535133
19368543128
19368550697
19368556739
19368561988
19368567970
19368573585
19368578895
19368585365
19368593116
19368599952
19368605445
19368611365
19368617530
19368623389
19368631080
19368638282
19368648963
19368655738
19368661231
19368668494
19368676429
19368681739
19368686194
19368692969
19368699439
19368704749
19368710059
19368716224
19368721839
19368727332
19368732825
19368739234
19368744056
19368750281
19368756568
19368762915
19368769568
19368774756
19368779822
19368785254
19368792029
19368796973
19368806555
19368812720
19368819129
19368824500
19368831336
19368838049
19368844702
19368849890
19368856421
19368863318
19368869116
19368875830
19368881262
19368886877
19368893408
19368898840
19368905615
19368911108
19368917334
19368925024
19368931189
19368936987
19368941870
19368949927
19368956335
19368962439
19368970007
19368976111
19368981848
19368987890
19368993567
19369001989
19369008032
19369017187
19369023657
19369029760
19369036596
19369042944
19369050146
19369057470
19369063757
19369070837
19369076208
19369083654
19369089392
19369096716
19369103979
19369109594
19369116613
19369123327
19369129614
19369135534
19369141699
19369150671
19369158117
19369165441
19369172704
19369178197
19369187109
19369196020
19369203222
19369208837
19369215551
19369223669
19369230443
19369237218
19369242895
19369251439
19369257360
19369263402
19369270055
19369275976
19369282384
19369288610
19369295507
19369302160
19369308812
19369313756
19369320531
19369325536
19369335729
19369344152
19369349157
19369357335
19369363317
19369370275
19369376805
19369384130
19369390599
19369397374
19369402928
19369409154
19369415441
19369422887
19369430089
19369436559
19369443395
19369449437
19369455418
19369460423
19369471410
19369478001
19369484837
19369490941
19369498509
19369504491
19369511388
19369518223
19369525792
19369532750
19369540257
19369546971
19369552952
19369559788
19369567479
19369574376
19369579930
19369589085
19369595189
19369601963
19369608067
19369615147
19369624791
19369630589
19369639622
19369646336
19369653416
19369660130
19369667210
19369676976
19369682774
19369690769
19369696873
19369705113
19369713169
19369721104
19369729954
19369738255
19369747349
19369756260
19369763767
19369772129
19369782017
19369789158
19369798435
19369806370
19369815464
19369822605
19369831638
19369838047
19369847507
19369858188
19369865513
19369872165
19369879734
19369886142
19369892612
19369900364
19369907444
19369915500
19369921421
19369930149
19369937412
19369943515
19369951877
19369958835
19369969760
19369978488
19369985996
19369993686
19370001071
19370007480
19370015231
19370022678
19370027927
19370035434
19370040378
19370045932
19370053195
19370061496
19370071017
19370078342
19370084140
19370089999
19370095981
19370102573
19370109470
19370114291
19370122775
19370128879
19370135898
19370143222
19370148471
19370155002
19370161105
19370168063
19370173434
19370180758
19370188327
19370194919
19370200473
19370207064
19370212436
19370217868
19370225253
19370230380
19370238131
19370244601
19370249667
19370255404
19370261508
19370267977
19370275485
19370281039
19370286532
19370292880
19370298129
19370304110
19370310397
19370316683
19370322482
19370328158
19370332797
19370339999
19370345248
19370350741
19370358675
19370364596
19370370150
19370376742
19370383700
19370391329
19370398165
19370404513
19370411471
19370417574
19370424898
19370431978
19370438082
19370443331
19370450777
19370454622
19370462618
19370468722
19370475008
19370481234
19370487276
19370493074
19370500887
19370506868
19370512728
19370518648
19370525362
19370531160
19370537691
19370544405
19370550875
19370557161
19370563326
19370572359
19370579195
19370584810
19370592317
19370598604
19370604280
19370610384
19370617464
19370624910
19370631197
19370637850
19370645235
19370650728
19370658662
19370665987
19370671724
19370679170
19370684785
19370691438
19370697359
19370705110
19370711030
19370718355
19370724031
19370732088
19370736482
19370744356
19370750154
19370757539
19370763643
19370770601
19370777925
19370783418
19370790681
19370798249
19370803804
19370813203
19370819368
19370826448
19370833894
19370839692
19370847871
19370855500
19370863679
19370869721
19370875764
19370885163
19370891999
19370899323
19370908967
19370915254
19370921906
19370930268
19370936433
19370945832
19370957246
19370966462
19370972626
19370983125
19370989655
19370999055
19371004487
19371012665
19371019074
19371025117
19371034211
19371038483
19371047272
19371051362
19371060395
19371066376
19371073517
19371079194
19371087738
19371094269
19371101044
19371107270
19371112030
19371118683
19371124726
19371128449
19371135590
19371142853
19371148468
19371152619
19371162689
19371170014
19371177399
19371181610
19371190277
19371196747
19371201935
19371207611
19371215241
19371221527
19371228302
19371233978
19371242279
19371247894
19371253693
19371260101
19371268951
19371276031
19371283112
19371289032
19371296234
19371303863
19371313629
19371320465
19371329071
19371335235
19371344574
19371351410
19371359833
19371364166
19371373871
19371382782
19371389312
19371395599
19371403717
19371411651
19371419098
19371427032
19371434295
19371441803
19371449554
19371457916
19371466094
19371473358
19371480560
19371487029
19371495025
19371502044
19371511566
19371519317
19371527374
19371531524
19371540618
19371547881
19371553252
19371560882
19371567901
19371574615
19371583526
19371591643
19371599456
19371605865
19371614837
19371624175
19371630584
19371642852
19371647674
19371657622
19371664458
19371672332
19371680449
19371684600
19371693328
19371699004
19371704558
19371712066
19371716887
19371724089
19371729277
19371735869
19371741790
19371747954
19371755400
19371760405
19371767790
19371774809
19371779997
19371784941
19371791960
19371797331
19371804289
19371811492
19371818144
19371824370
19371831328
19371836760
19371842131
19371848601
19371855437
19371861174
19371868193
19371873442
19371880827
19371884306
19371892302
19371897795
19371904753
19371911223
19371917998
19371924040
19371929716
19371934782
19371940581
19371946745
19371954497
19371961088
19371966459
19371972746
19371978361
19371983183
19371989103
19371995695
19372002165
19372008085
19372012846
19372020414
19372025541
19372031584
19372038237
19372045195
19372051359
19372056364
19372061552
19372068449
19372074919
19372081999
19372087248
19372092436
19372099760
19372107023
19372114103
19372120634
19372126920
19372132780
19372139005
19372145292
19372153104
19372162138
19372167265
19372175321
19372180875
19372189237
19372195951
19372206510
19372217008
19372223417
19372229642
19372236417
19372243497
19372250272
19372256070
19372263395
19372270109
19372276456
19372284635
19372289701
19372296903
19372304227
19372311795
19372315580
19372323270
19372329923
19372336820
19372344205
19372349027
19372355741
19372362821
19372369657
19372375333
19372382291
19372387235
19372395535
19372402005
19372409207
19372417142
19372425137
19372432340
19372437283
19372446561
19372455960
19372461819
19372469327
19372475980
19372482144
19372488003
19372495633
19372502957
19372510464
19372518948
19372524563
19372534268
19372539273
19372549832
19372559048
19372564602
19372571560
19372578518
19372584561
19372592678
19372601651
19372607388
19372614468
19372619839
19372625515
19372632046
19372640286
19372646633
19372652493
19372659878
19372664395
19372671292
19372675991
19372683560
19372690334
19372697048
19372703152
19372710415
19372718166
19372721645
19372731289
19372739712
19372745327
19372755337
19372762295
19372770718
19372779140
19372786587
19372794765
19372803127
19372809170
19372817959
19372825100
19372832424
19372839138
19372844143
19372850551
19372857631
19372863979
19372871853
19372878566
19372885952
19372892849
19372900051
19372906276
19372912807
19372922084
19372929164
19372936794
19372943508
19372951564
19372957118
19372966274
19372973110
19372980251
19372987026
19372993678
19373000087
19373008815
19373015041
19373021510
19373029140
19373035182
19373044093
19373048732
19373059291
19373067226
19373074672
19373082973
19373090663
19373097926
19373105128
19373111232
19373121120
19373127711
19373136744
19373145228
19373151454
19373159083
19373167018
19373171718
19373182582
19373190455
19373196009
19373205226
19373211573
19373220484
19373226588
19373236109
19373242762
19373252223
19373260157
19373266993
19373274562
19373282069
19373288355
19373296961
19373303187
19373309596
19373315699
19373323390
19373329066
19373335658
19373340723
19373347681
19373354090
19373359949
19373366907
19373371912
19373379175
19373386195
19373392176
19373398402
19373406763
19373410914
19373421107
19373428919
19373435511
19373443689
19373451807
19373459681
19373465235
19373472193
19373478724
19373485682
19373493006
19373498438
19373503199
19373511377
19373518946
19373525293
19373530054
19373535486
19373542749
19373547266
19373553125
19373558557
19373563928
19373568811
19373577051
19373580286
19373587854
19373594568
19373600244
19373606348
19373612817
19373618860
19373623132
19373629785
19373635156
19373641748
19373645044
19373651819
19373657556
19373664331
19373671106
19373675012
19373681970
19373686792
19373694055
19373699365
19373705896
19373711389
19373716760
19373725610
19373730920
19373736230
19373744043
19373750696
19373755395
19373763208
19373770105
19373775781
19373782373
19373787500
19373795373
19373803247
19373809655
19373815759
19373822961
19373830712
19373838708
19373850610
19373857446
19373865991
19373872827
19373879296
19373885400
19373892358
19373899743
19373906762
19373913232
19373920068
19373925805
19373933007
19373939538
19373946679
19373951196
19373959679
19373967370
19373979760
19373987389
19373996545
19374001794
19374008568
19374015099
19374025902
19374032982
19374039940
19374045556
19374050805
19374059166
19374062951
19374073143
19374081261
19374086205
19374094078
19374097863
19374106713
19374113854
19374120385
19374127892
19374134667
19374141259
19374147789
19374153527
19374160546
19374167992
19374175011
19374181542
19374187340
19374194969
19374200951
19374209190
19374215782
19374222374
19374229027
19374235619
19374243004
19374250145
19374256920
19374264793
19374270775
19374275719
19374283592
19374287498
19374296532
19374305687
19374311241
19374319786
19374325584
19374332908
19374339317
19374347252
19374353477
19374360069
19374366417
19374373497
19374380699
19374388878
19374395774
19374403038
19374410911
19374417686
19374423545
19374431053
19374437828
19374445518
19374451499
19374458946
19374466880
19374473472
19374479698
19374488975
19374497520
19374502830
19374510398
19374517722
19374525901
19374535667
19374542258
19374551780
19374558677
19374567527
19374574912
19374584617
19374596152
19374602073
19374613181
19374619834
19374627402
19374634971
19374642112
19374649741
19374654990
19374662192
19374669577
19374675559
19374683493
19374689902
19374697898
19374706076
19374710837
19374720359
19374728110
19374734519
19374742148
19374750083
19374758017
19374764792
19374773886
19374780905
19374789389
19374794333
19374804099
19374811667
19374820273
19374827292
19374833884
19374844260
19374849020
19374858664
19374863303
19374873007
19374880881
19374887717
19374894491
19374902914
19374910605
19374918600
19374926779
19374933310
19374940878
19374947653
19374954794
19374960836
19374967672
19374972433
19374978781
19374984030
19374991659
19374995138
19375004049
19375010702
19375015524
19375023458
19375027975
19375035604
19375039205
19375047689
19375051046
19375057638
19375064108
19375070944
19375079061
19375084188
19375090902
19375097006
19375102316
19375105673
19375113973
19375121664
19375127340
19375135519
19375141500
19375147604
19375154501
19375160482
19375167745
19375175191
19375180135
19375188741
19375194540
19375201559
19375211324
19375217794
19375224630
19375230977
19375237325
19375244649
19375250264
19375255758
19375261373
19375266317
19375274068
19375278890
19375287130
19375293416
19375299581
19375305745
19375310750
19375316976
19375321431
19375328206
19375334188
19375339559
19375342794
19375349385
19375355306
19375361104
19375366414
19375373494
19375379781
19375386311
19375392598
19375399312
19375405293
19375409932
19375416768
19375421468
19375428609
19375433553
19375440144
19375446614
19375454488
19375461385
19375468587
19375472859
19375481465
19375488850
19375495991
19375499898
19375509297
19375513020
19375522847
19375530232
19375535481
19375546284
19375551106
19375558552
19375564167
19375571248
19375576741
19375583638
19375589863
19375597737
19375604512
19375611531
19375618367
19375626057
19375630329
19375638874
19375646504
19375652058
19375657734
19375667011
19375671040
19375681660
19375688313
19375693623
19375700520
19375705341
19375711689
19375717976
19375723347
19375730610
19375736713
19375743244
19375748432
19375754597
19375760639
19375766743
19375773151
19375778583
19375789020
19375798176
19375805927
19375813618
19375820209
19375829181
19375838093
19375843708
19375853901
19375859882
19375866230
19375873981
19375881061
19375887226
19375893085
19375901813
19375905597
19375914508
19375921161
19375929279
19375936725
19375941791
19375948505
19375953876
19375961810
19375967426
19375975116
19375982868
19375989337
19375995319
19376000446
19376008197
19376015155
19376021686
19376028949
19376035541
19376041034
19376047626
19376054523
19376061237
19376068866
19376076739
19376083331
19376090289
19376097247
19376103534
19376109088
19376116839
19376124957
19376132342
19376138385
19376145099
19376152362
19376159381
19376167498
19376174578
19376182330
19376191729
19376198870
19376207598
19376216937
19376223345
19376232928
19376239703
19376248370
19376257037
19376264056
19376274066
19376282549
19376290728
19376295062
19376305315
19376310198
19376321429
19376329424
19376338763
19376347735
19376356219
19376367144
19376375994
19376382647
19376393328
19376400713
19376408953
19376415667
19376423662
19376430254
19376445330
19376454546
19376464068
19376473772
19376483660
19376492022
19376503984
19376512163
19376521990
19376529558
19376539018
19376545305
19376554888
19376563310
19376569841
19376578203
19376585954
19376595964
19376603227
19376610857
19376617082
19376626665
19376633745
19376640520
19376647111
19376653886
19376659868
19376665727
19376674150
19376677934
19376688859
19376698686
19376704301
19376711564
19376716997
19376723100
19376728837
19376737260
19376742570
19376748552
19376755571
19376761735
19376767045
19376773332
19376779924
19376785600
19376793351
19376800370
19376806352
19376812333
19376818803
19376825334
19376831864
19376837419
19376843461
19376849992
19376855058
19376862077
19376867021
19376873124
19376880631
19376886125
19376892045
19376897965
19376903703
19376908219
19376914994
19376921586
19376927567
19376934098
19376939530
19376945695
19376951371
19376957597
19376964921
19376970658
19376976029
19376981339
19376987076
19376992875
19376999833
19377004654
19377012345
19377015458
19377023026
19377029313
19377035843
19377041825
19377046769
19377057206
19377065262
19377070511
19377080582
19377087479
19377096451
19377105301
19377111893
19377118668
19377126053
19377131302
19377139054
19377145889
19377151932
19377157974
19377164505
19377170792
19377175797
19377183670
19377190140
19377196304
19377200211
19377207779
19377214615
19377221085
19377227737
19377235001
19377240616
19377246841
19377253189
19377260025
19377266800
19377273086
19377280838
19377286880
19377292373
19377298416
19377306595
19377313370
19377319534
19377325882
19377333267
19377339798
19377346206
19377353164
19377358047
19377365188
19377370498
19377378799
19377384964
19377391983
19377400894
19377408157
19377415603
19377421829
19377429763
19377437637
19377444229
19377451126
19377457839
19377464370
19377469619
19377476516
19377484145
19377490493
19377498061
19377504226
19377510085
19377520461
19377527785
19377536269
19377543471
19377548171
19377556289
19377562636
19377568008
19377576797
19377580642
19377588210
19377594558
19377600844
19377607131
19377613601
19377619765
19377627028
19377632766
19377640578
19377646804
19377654189
19377662490
19377666701
19377678908
19377686232
19377693984
19377702040
19377709731
19377716933
19377722792
19377731215
19377736952
19377745986
19377749831
19377758376
19377762221
19377772719
19377779372
19377785841
19377793288
19377798415
19377806654
19377811842
19377820570
19377826064
19377833571
19377839003
19377846754
19377852431
19377859877
19377866469
19377873976
19377881361
19377889174
19377896559
19377903578
19377911513
19377918898
19377925001
19377932448
19377941176
19377949659
19377956251
19377964064
19377971083
19377977186
19377985792
19377992018
19377999586
19378008009
19378014723
19378018934
19378027601
19378035841
19378042799
19378049330
19378058119
19378067701
19378075086
19378085340
19378092420
19378100965
19378114332
19378124647
19378133558
19378139783
19378149122
19378155042
19378163404
19378169752
19378179456
19378185316
19378193799
19378201307
19378208753
19378218152
19378225660
19378233045
19378242322
19378249891
19378261487
19378266736
19378277539
19378286023
19378293836
19378301526
19378308057
19378317823
19378325940
19378332288
19378337476
19378344922
19378351270
19378358472
19378365064
19378372449
19378379224
19378384778
19378392774
19378399243
19378405347
19378410962
19378419629
19378429578
19378436719
19378443982
19378449475
19378455884
19378461072
19378468701
19378473950
19378481518
19378487866
19378494214
19378500866
19378507031
19378511487
19378518933
19378525525
19378532116
19378537610
19378544201
19378551342
19378557934
19378564709
19378571789
19378577893
19378584057
19378590283
19378596936
19378603771
19378608837
19378615551
19378620617
19378628674
19378635021
19378642040
19378648815
19378655163
19378661266
19378667065
19378675915
19378683117
19378688915
19378695507
19378701977
19378708324
19378713573
19378720348
19378725109
19378732067
19378737255
19378744091
19378750378
19378756481
19378763134
19378768932
19378774792
19378780590
19378787365
19378792248
19378799694
19378806041
19378812694
19378817943
19378824535
19378831737
19378837780
19378843578
19378849804
19378857006
19378863536
19378869030
19378875682
19378881359
19378888256
19378894969
19378901500
19378907909
19378915172
19378921581
19378928234
19378935741
19378941478
19378947093
19378956127
19378963207
19378969310
19378974803
19378982433
19378991710
19378997203
19379010143
19379018809
19379025462
19379033092
19379039439
19379049449
19379056163
19379062816
19379069163
19379075938
19379082286
19379089366
19379093211
19379101817
19379109385
19379116221
19379120067
19379129405
19379137645
19379144725
19379151927
19379158580
19379165293
19379170237
19379177989
19379182872
19379191111
19379196177
19379204722
19379209727
19379217784
19379223277
19379230845
19379236216
19379242869
19379248423
19379256114
19379261790
19379269480
19379275095
19379282786
19379288340
19379296030
19379301829
19379309824
19379316721
19379323496
19379327402
19379336802
19379343394
19379349863
19379356211
19379363474
19379370310
19379376963
19379383738
19379390391
19379396921
19379401743
19379409617
19379416758
19379423288
19379428415
19379437204
19379442209
19379449961
19379456980
19379463327
19379469248
19379477060
19379484079
19379491404
19379498545
19379505991
19379512766
19379519846
19379527170
19379534494
19379541635
19379548044
19379555124
19379561044
19379570566
19379578317
19379585214
19379592966
19379600595
19379607553
19379612680
19379621042
19379629953
19379637277
19379644296
19379652231
19379658823
19379667612
19379674692
19379681589
19379690133
19379700387
19379705087
19379715219
19379722543
19379730294
19379737619
19379745614
19379752694
19379760324
19379767709
19379774972
19379782235
19379789682
19379796701
19379803964
19379810739
19379817941
19379825326
19379832528
19379837655
19379844857
19379852364
19379860909
19379869637
19379875558
19379883126
19379890939
19379895760
19379906380
19379913277
19379920846
19379928353
19379938363
19379946419
19379957528
19379964791
19379975289
19379982369
19379990731
19379997567
19380003731
19380010018
19380016732
19380023568
19380030709
19380039376
19380046395
19380052620
19380060006
19380067330
19380074105
19380081124
19380087838
19380094796
19380101265
19380107796
19380114022
19380120369
19380125679
19380132515
19380140755
19380145699
19380152535
19380159310
19380164620
19380170174
19380178108
19380184151
19380191536
19380198616
19380205086
19380212105
19380216621
19380223885
19380230781
19380236885
19380242988
19380249702
19380255684
19380261970
19380268684
19380274727
19380281990
19380287178
19380294014
19380299507
19380307808
19380311775
19380321113
19380325264
19380337227
19380343086
19380350410
19380356758
19380362800
19380369270
19380376777
19380383247
19380388740
19380396430
19380400032
19380408393
19380414924
19380420600
19380428047
19380433113
19380439338
19380445686
19380451423
19380457649
19380462776
19380468940
19380475959
19380481391
19380487617
19380493659
19380499824
19380508491
19380516425
19380523505
19380531257
19380540961
19380547126
19380554999
19380563666
19380570563
19380576240
19380583320
19380589789
19380596259
19380602546
19380609382
19380615302
19380622077
19380628852
19380634711
19380641181
19380647895
19380653022
19380660895
19380668036
19380675055
19380680426
19380688666
19380694647
19380701361
19380708625
19380715949
19380724066
19380729804
19380737250
19380742865
19380750556
19380755988
19380764105
19380768195
19380777533
19380785101
19380791632
19380797980
19380806281
19380813849
19380819525
19380827948
19380831793
19380842047
19380846014
19380854193
19380861151
19380867560
19380874396
19380881720
19380889288
19380894415
19380901251
19380906378
19380915045
19380921087
19380928473
19380935247
19380942755
19380950750
19380956549
19380966253
19380970892
19380982794
19380989813
19380995367
19381005010
19381010626
19381019293
19381025823
19381033026
19381039495
19381046392
19381052557
19381058965
19381065435
19381072271
19381078008
19381085638
19381091863
19381097173
19381105413
19381109747
19381118169
19381124700
19381132329
19381139898
19381149541
19381156560
19381162603
19381168706
19381172613
19381181707
19381188238
19381194463
19381200628
19381207403
19381213384
19381218206
19381226506
19381232671
19381239019
19381244451
19381252263
19381256108
19381264287
19381270940
19381277593
19381285222
19381289983
19381297734
19381303044
19381310918
19381318547
19381326360
19381332585
19381340520
19381346501
19381354680
19381358891
19381367558
19381374455
19381382939
19381387639
19381398320
19381405278
19381412053
19381418828
19381426213
19381433598
19381439946
19381449101
19381455998
19381464055
19381468693
19381477971
19381482548
19381493718
19381501469
19381509099
19381515690
19381523259
19381530766
19381539128
19381548283
19381554570
19381561894
19381569706
19381577763
19381584904
19381593327
19381601078
19381610050
19381617436
19381628666
19381634586
19381646610
19381655705
19381662968
19381672245
19381678715
19381687138
19381691471
19381700993
19381707096
19381714481
19381720829
19381732487
19381738224
19381748539
19381754703
19381761661
19381769291
19381774479
19381783939
19381789982
19381797428
19381803043
19381809452
19381815006
19381821781
19381826847
19381833561
19381841495
19381847660
19381852909
19381858951
19381865360
19381869998
19381877323
19381884098
19381888858
19381895450
19381902408
19381908023
19381914371
19381919620
19381927127
19381930789
19381939578
19381946903
19381953189
19381959354
19381965762
19381971195
19381978885
19381984500
19381989810
19381997195
19382003055
19382010379
19382014285
19382022586
19382026370
19382034915
19382041812
19382048465
19382055057
19382059207
19382066775
19382072330
19382077640
19382082339
19382089847
19382093326
19382100100
19382105410
19382112613
19382118594
19382124453
19382129519
19382135623
19382141848
19382146731
19382154605
19382160586
19382164798
19382172061
19382176577
19382183657
19382189639
19382195498
19382198855
19382208499
19382216067
19382222659
19382234072
19382242678
19382250308
19382260867
19382267214
19382270876
19382280825
19382286562
19382293032
19382299868
19382304751
19382311465
19382316897
19382323977
19382329836
19382335757
19382343447
19382347964
19382354189
19382360354
19382367129
19382372805
19382380556
19382386599
19382391848
19382397097
19382404726
19382408571
19382418154
19382425295
19382432192
19382439943
19382447268
19382454775
19382460756
19382467165
19382474855
19382479677
19382488527
19382493959
19382500917
19382506227
19382513307
19382518740
19382526003
19382532533
19382539613
19382546022
19382552431
19382559511
19382566774
19382572878
19382577760
19382585756
19382591005
19382597536
19382602968
19382610963
19382618532
19382624879
19382628786
19382636781
19382643190
19382649293
19382655580
19382663331
19382670717
19382676576
19382684083
19382689515
19382695436
19382703004
19382710511
19382718141
19382723695
19382731508
19382737062
19382744508
19382750001
19382757508
19382763856
19382768922
19382776368
19382782716
19382788758
19382796754
19382805970
19382815186
19382823426
19382834413
19382841309
19382852113
19382859681
19382864625
19382871461
19382878175
19382884156
19382890992
19382897034
19382902772
19382911500
19382919434
19382926270
19382933594
19382938721
19382947449
19382953858
19382960999
19382966614
19382974610
19382980042
19382987061
19382990906
19382998230
19383006043
19383011231
19383017945
19383024842
19383032227
19383037537
19383044495
19383052552
19383058594
19383065430
19383071717
19383078491
19383084656
19383091431
19383099854
19383105652
19383113465
19383118775
19383127197
19383133667
19383140381
19383146179
19383155579
19383161926
19383169251
19383175659
19383184570
19383191650
19383199097
19383207519
19383214416
19383222839
19383229431
19383238220
19383246094
19383252319
19383260193
19383266540
19383274597
19383284363
19383289612
19383299377
19383304870
19383315612
19383326477
19383335571
19383344177
19383354431
19383361877
19383369506
19383377746
19383383300
19383390380
19383397766
19383404174
19383412902
19383419616
19383426940
19383431152
19383442748
19383448364
19383455871
19383460204
19383470641
19383478942
19383486205
19383492309
19383499206
19383504150
19383518859
19383529723
19383537353
19383547668
19383556396
19383564757
19383574157
19383582763
19383592040
19383602233
19383613463
19383622619
19383631041
19383639159
19383647826
19383656676
19383666075
19383673888
19383685912
19383694823
19383703551
19383713317
19383722228
19383731383
19383739501
19383749815
19383759093
19383769164
19383778075
19383787413
19383796629
19383807860
19383817503
19383827208
19383836546
19383846678
19383856688
19383864561
19383875914
19383885435
19383893248
19383902891
19383912291
19383922178
19383932249
19383942625
19383950437
19383963194
19383972715
19383981871
19383993101
19384003721
19384014402
19384025022
19384042173
19384059873
19384076658
19384092832
19384107236
19384124570
19384143369
19384162534
19384180234
19384199643
19384218869
19384229184
19384238645
19384248227
19384263974
19384284116
19384302854
19384322324
19384337033
19384347409
19384356015
19384365659
19384375363
19384384213
19384393246
19384403928
19384413327
19384422360
19384432614
19384443905
19384452878
19384463986
19384473568
19384484677
19384494503
19384503964
19384512692
19384523129
19384530880
19384541623
19384549557
19384561337
19384571408
19384580746
19384592953
19384599850
19384611630
19384619503
19384630428
19384642208
19384651058
19384660152
19384668819
19384680050
19384687923
19384697323
19384706966
19384721310
19384730221
19384738033
19384747249
19384756771
19384765926
19384775081
19384785152
19384794979
19384803585
19384813228
19384822078
19384830257
19384838985
19384850521
19384859920
19384869319
19384880184
19384889461
19384894649
19384908809
19384919917
19384929988
19384940913
19384948055
19384958186
19384967891
19384977779
19384987971
19384997493
19385004695
19385015803
19385026424
19385035274
19385045466
19385052974
19385063350
19385072261
19385080317
19385092036
19385100459
19385110041
19385118037
19385130061
19385139033
19385149409
19385158808
19385168513
19385174067
19385186640
19385198725
19385212397
19385223261
19385231745
19385243281
19385253779
19385265742
19385273249
19385284296
19385291376
19385304316
19385311396
19385321345
19385325007
19385335261
19385346247
19385353083
19385360956
19385367670
19385376032
19385381586
19385387812
19385393183
19385401300
19385405146
19385413630
19385420954
19385427484
19385433405
19385440058
19385447504
19385454157
19385459833
19385466364
19385474420
19385479120
19385486139
19385492731
19385498468
19385503107
19385510980
19385517633
19385524408
19385531122
19385537347
19385542474
19385550165
19385556024
19385562555
19385568048
19385576044
19385582697
19385589349
19385596002
19385602594
19385609369
19385616693
19385623407
19385629816
19385637140
19385643548
19385650323
19385655267
19385664117
19385670160
19385678094
19385683465
19385690728
19385698236
19385704583
19385710809
19385718499
19385726983
19385735101
19385740777
19385748590
19385754754
19385761224
19385769219
19385776238
19385782525
19385790277
19385795953
19385802361
19385807488
19385814263
19385819268
19385826043
19385831414
19385839410
19385845757
19385851556
19385857415
19385863213
19385868951
19385876641
19385883294
19385889275
19385895623
19385902032
19385908074
19385912591
19385919549
19385926385
19385933037
19385938775
19385945061
19385950310
19385957940
19385963311
19385971001
19385976372
19385983819
19385991143
19385997918
19386004082
19386010186
19386016167
19386023857
19386030938
19386036919
19386042412
19386048271
19386053582
19386058159
19386065605
19386069145
19386076714
19386079888
19386087029
19386093193
19386098625
19386104119
19386110344
19386116997
19386123345
19386128471
19386134636
19386140740
19386145195
19386150627
19386157341
19386163506
19386169487
19386175224
19386181328
19386186577
19386191521
19386198540
19386205864
19386210014
19386217461
19386222282
19386228020
19386232597
19386239860
19386247185
19386253227
19386257316
19386265495
19386271049
19386276787
19386283012
19386290092
19386296806
19386301689
19386308586
19386314384
19386320060
19386325065
19386332756
19386340263
19386346672
19386351860
19386357963
19386365287
19386369926
19386376823
19386383720
19386390495
19386397575
19386403495
19386410453
19386416679
19386421378
19386428642
19386435844
19386442497
19386447929
19386455070
19386460258
19386467460
19386472648
19386479301
19386484672
19386492362
19386496024
19386504874
19386508475
19386519523
19386525870
19386533439
19386540397
19386545279
19386552360
19386559257
19386566520
19386573050
19386580436
19386586478
19386594779
19386600272
19386607901
19386614127
19386619254
19386624625
19386632682
19386639456
19386645926
19386649649
19386658011
19386661734
19386669913
19386675833
19386682669
19386690116
19386696219
19386703482
19386708792
19386716605
19386721549
19386729300
19386736624
19386743155
19386748648
19386755057
19386761954
19386768729
19386774344
19386782095
19386787711
19386795279
19386798941
19386806875
19386812002
19386819388
19386823172
19386831473
19386838736
19386843741
19386849966
19386858084
19386862417
19386871451
19386878286
19386886343
19386893179
19386900625
19386907827
19386915030
19386921988
19386928579
19386933218
19386942861
19386947988
19386954824
19386961843
19386969045
19386973074
19386982046
19386986074
19386995291
19386999441
19387009268
19387013235
19387022756
19387029714
19387037038
19387041616
19387052236
19387060049
19387068472
19387073354
19387083181
19387091177
19387097829
19387104360
19387114004
19387120656
19387127920
19387134206
19387142385
19387148977
19387157216
19387163869
19387171315
19387177846
19387186879
19387192861
19387200856
19387206594
19387216481
19387222402
19387230092
19387238942
19387244985
19387253041
19387261159
19387269277
19387275807
19387283498
19387288075
19387299245
19387308156
19387314565
19387322560
19387330068
19387334340
19387342824
19387349049
19387358327
19387366689
19387372853
19387379445
19387388112
19387392934
19387402577
19387408620
19387416005
19387423085
19387431691
19387437916
19387444630
19387453175
19387459828
19387465382
19387472401
19387480519
19387488392
19387494008
19387502003
19387509632
19387517628
19387522999
19387530323
19387538563
19387544728
19387551625
19387558827
19387565296
19387571400
19387577198
19387584828
19387590321
19387597157
19387603687
19387609852
19387615162
19387621693
19387627003
19387635670
19387642017
19387648304
19387654652
19387659657
19387664967
19387672779
19387679188
19387688038
19387694019
19387698475
19387704395
19387710255
19387716236
19387722156
19387728443
19387735340
19387741199
19387748157
19387753834
19387760792
19387766773
19387772815
19387778614
19387783985
19387792041
19387797413
19387804981
19387808704
19387815662
19387820728
19387828174
19387832752
19387838245
19387844348
19387850208
19387856983
19387861377
19387868946
19387875965
19387881336
19387887073
19387893360
19387898120
19387905811
19387911670
19387919605
19387925098
19387931262
19387937427
19387943286
19387949146
19387954517
19387962634
19387970630
19387977344
19387982898
19387989978
19387995715
19388001819
19388008655
19388015918
19388021472
19388027575
19388033008
19388038135
19388045337
19388050525
19388058215
19388064258
19388070727
19388074206
19388083850
19388090197
19388096606
19388104052
19388111010
19388116992
19388124072
19388130297
19388135424
19388143359
19388148608
19388157397
19388162768
19388170458
19388175646
19388182055
19388187243
19388194201
19388199450
19388207934
19388214709
19388221301
19388227770
19388234240
19388237841
19388245348
19388251818
19388258471
19388265124
19388270190
19388276598
19388283068
19388289599
19388296007
19388301012
19388308642
19388315294
19388320299
19388327135
19388333849
19388340563
19388345568
19388352038
19388358873
19388365648
19388370897
19388377062
19388384264
19388390612
19388396044
19388403490
19388410387
19388416185
19388421617
19388427965
19388433458
19388440966
19388446459
19388453356
19388459154
19388464952
19388472460
19388478807
19388485155
19388492357
19388497911
19388506273
19388512499
19388520860
19388525194
19388534227
19388542101
19388548387
19388555467
19388563219
19388570116
19388577318
19388582811
19388589281
19388595567
19388601976
19388607164
19388614854
19388620958
19388628038
19388635118
19388642930
19388650255
19388656236
19388663438
19388671068
19388676805
19388683824
19388690294
19388695787
19388699998
19388710069
19388717820
19388724290
19388728379
19388739793
19388745835
19388753282
19388758225
19388767625
19388772141
19388780686
19388787644
19388794724
19388799119
19388808030
19388812669
19388821275
19388828599
19388837937
19388842759
19388851487
19388858079
19388866441
19388873826
19388879685
19388886155
19388894150
19388900498
19388908372
19388916001
19388923508
19388930100
19388937729
19388943650
19388951462
19388958909
19388965744
19388972764
19388979172
19388988450
19388995957
19389002793
19389009385
19389017258
19389024155
19389031845
19389038498
19389047592
19389053452
19389061142
19389067917
19389076340
19389082688
19389089768
19389097458
19389104721
19389112045
19389117355
19389127731
19389133163
19389142563
19389149887
19389157822
19389165085
19389172287
19389180893
19389183700
19389194565
19389203476
19389210251
19389218307
19389224655
19389232712
19389241073
19389248581
19389256088
19389266464
19389274765
19389283737
19389292892
19389297775
19389305832
19389313339
19389320602
19389327377
19389335922
19389342819
19389349716
19389354721
19389362289
19389367843
19389374008
19389379623
19389386642
19389392928
19389400558
19389405868
19389413863
19389419784
19389426925
19389432479
19389440231
19389445296
19389451766
19389456893
19389463119
19389468246
19389475936
19389482955
19389490096
19389496444
19389502852
19389508651
19389515121
19389521102
19389527572
19389533553
19389540145
19389546309
19389551009
19389557540
19389563887
19389569869
19389576461
19389581771
19389588973
19389595748
19389600997
19389607955
19389614669
19389620650
19389625838
19389632003
19389636763
19389642928
19389647750
19389654280
19389660811
19389666854
19389673079
19389679061
19389684554
19389690230
19389696394
19389700484
19389706465
19389710799
19389718855
19389724593
19389730940
19389736250
19389742903
19389747969
19389754256
19389758955
19389765669
19389771529
19389777754
19389783430
19389790083
19389796736
19389803023
19389808027
19389814741
19389821516
19389826338
19389832930
19389839216
19389844404
19389849653
19389858137
19389862837
19389871016
19389877119
19389883711
19389887922
19389896894
19389903608
19389911177
19389919294
19389925337
19389932478
19389939009
19389945295
19389950239
19389958052
19389963484
19389971235
19389976362
19389983076
19389990095
19389995222
19390002180
19390008833
19390014692
19390020857
19390028242
19390034711
19390040510
19390047041
19390052595
19390060651
19390064436
19390072370
19390076520
19390083662
19390088911
19390095563
19390100873
19390108564
19390112470
19390122419
19390130231
19390135969
19390143537
19390149030
19390155805
19390163556
19390171125
19390176679
19390183515
19390189923
19390196027
19390200849
19390207379
19390212506
19390218915
19390225202
19390231183
19390235944
19390242353
19390248639
19390254804
19390260724
19390267377
19390274091
19390280011
19390284894
19390291791
19390297040
19390305158
19390310834
19390319135
19390325238
19390332013
19390339581
19390346600
19390352521
19390359967
19390366254
19390373761
19390379986
19390386700
19390392560
19390401349
19390407452
19390416730
19390421124
19390429608
19390433880
19390442364
19390449017
19390455914
19390460736
19390469037
19390475933
19390483807
19390490216
19390498150
19390504986
19390512738
19390519024
19390525128
19390531292
19390539349
19390545941
19390553753
19390560955
19390567120
19390575482
19390581341
19390589337
19390596356
19390604473
19390612347
19390618816
19390626446
19390631817
19390640240
19390646587
19390654827
19390661053
19390670452
19390676678
19390685711
19390691570
19390699749
19390707928
19390715191
19390721294
19390729351
19390736675
19390742473
19390749675
19390754131
19390766338
19390773540
19390780925
19390788372
19390796245
19390801555
19390808696
19390815776
19390822917
19390829692
19390839641
19390844280
19390854717
19390859172
19390867412
19390875408
19390883281
19390890117
19390897868
19390904033
19390911723
19390921428
19390928874
19390936504
19390944194
19390954570
19390964213
19390969707
19390978496
19390984904
19390993144
19391000651
19391008586
19391015544
19391023295
19391029948
19391038615
19391044597
19391051860
19391058024
19391067180
19391077006
19391083537
19391090800
19391097331
19391102641
19391109660
19391114848
19391121989
19391128337
19391133769
19391139933
19391146464
19391152934
19391158427
19391164591
19391170756
19391178996
19391185526
19391190897
19391198466
19391205668
19391211894
19391217265
19391225565
19391231486
19391237223
19391242777
19391249003
19391256083
19391262736
19391268534
19391275431
19391281840
19391290140
19391294596
19391303141
19391308939
19391315531
19391320841
19391327982
19391331888
19391339518
19391344828
19391350992
19391356791
19391367106
19391373880
19391381815
19391387796
19391392984
19391400431
19391405497
19391412088
19391417643
19391424662
19391430155
19391435587
19391442972
19391446756
19391455118
19391459879
19391465921
19391472635
19391478678
19391484659
19391488077
19391497232
19391501871
19391509012
19391516153
19391520853
19391527506
19391533487
19391538858
19391545084
19391551065
19391556192
19391561990
19391569131
19391572671
19391582376
19391588174
19391596292
19391602762
19391608133
19391614358
19391618204
19391626504
19391633035
19391638101
19391644754
19391651284
19391657754
19391665445
19391672342
19391678384
19391686258
19391692910
19391697000
19391706155
19391709817
19391718667
19391725564
19391734292
19391740762
19391746682
19391753701
19391759927
19391766946
19391774880
19391780984
19391788491
19391794473
19391802346
19391809426
19391816140
19391823525
19391829629
19391837136
19391844033
19391850808
19391855447
19391864358
19391872170
19391877358
19391884133
19391889382
19391897622
19391903420
19391910622
19391917458
19391925515
19391931923
19391937539
19391943459
19391952248
19391956093
19391965798
19391973793
19391980935
19391987465
19391993019
19392001747
19392007973
19392014321
19392019692
19392027382
19392031838
19392040077
19392046974
19392054604
19392061135
19392067543
19392073769
19392082497
19392089394
19392096474
19392102760
19392108925
19392116615
19392122719
19392130104
19392137367
19392144508
19392151283
19392158058
19392164345
19392169105
19392175758
19392184242
19392191505
19392197304
19392204811
19392209877
19392219581
19392224342
19392232460
19392239296
19392244972
19392250892
19392257911
19392264442
19392270790
19392275489
19392285499
19392293678
19392299598
19392307045
19392314857
19392322059
19392329200
19392337745
19392344459
19392352699
19392360023
19392368507
19392375099
19392383643
19392389686
19392399635
19392408363
19392414527
19392419227
19392430518
19392435706
19392445167
19392450416
19392459693
19392465552
19392475440
19392484412
19392490211
19392498755
19392505164
19392510352
19392520850
19392528418
19392535071
19392543311
19392551490
19392558692
19392567664
19392574927
19392582251
19392590491
19392596778
19392603675
19392609961
19392617713
19392624976
19392632849
19392640357
19392649390
19392654517
19392664282
19392669287
19392680335
19392685095
19392695471
19392702307
19392710852
19392715674
19392723364
19392729651
19392737341
19392742041
19392751318
19392756384
19392766211
19392771338
19392780188
19392787390
19392797766
19392803686
19392812048
19392819555
19392827917
19392832495
19392842932
19392847265
19392855749
19392864660
19392870214
19392877356
19392883276
19392890539
19392894262
19392902807
19392909399
19392916357
19392922399
19392927648
19392934912
19392940161
19392946874
19392953405
19392960180
19392964453
19392971594
19392977697
19392983617
19392989172
19392996862
19393003027
19393011266
19393016943
19393023656
19393028600
19393033666
19393041357
