18981675161
18981680471
18981685781
18981690725
18981696157
18981701223
18981707144
18981712698
18981719045
18981726614
18981733266
18981741262
18981747915
18981757864
18981766286
18981772939
18981778310
18981784231
18981789358
18981796194
18981802968
18981808706
18981815420
18981823110
18981828908
18981837697
18981843496
18981848440
18981856557
18981863759
18981871450
18981878530
18981885122
18981892751
18981900502
18981909902
18981916677
18981924489
18981930776
18981937245
18981945851
18981953176
18981959401
18981966908
18981972341
18981979970
18981987050
18981995168
18982003285
18982012257
18982020192
18982027699
18982034779
18982041798
18982050099
18982057545
18982064992
18982072621
18982080006
18982086232
18982092457
18982100575
18982109242
18982117055
18982124013
18982131215
18982140004
18982146290
18982155140
18982165028
18982170582
18982179005
18982185658
18982194569
18982202015
18982208241
18982215504
18982223683
18982231251
18982239247
18982245838
18982251881
18982260121
18982268421
18982275501
18982283619
18982289601
18982297840
18982305775
18982315723
18982327381
18982338551
18982347767
18982359913
18982369923
18982379139
18982387379
18982392628
18982402088
18982405872
18982418384
18982427173
18982437549
18982445850
18982454700
18982460315
18982469349
18982477527
18982484241
18982491382
18982497852
18982505786
18982512195
18982518848
18982527271
18982535266
18982543384
18982552967
18982561084
18982568225
18982577136
18982585803
18982592761
18982601489
18982608691
18982614429
18982624439
18982630420
18982638599
18982645435
18982654407
18982660693
18982669726
18982677234
18982683826
18982690112
18982700732
18982708301
18982714343
18982722644
18982728198
18982738940
18982745654
18982753283
18982762011
18982770129
18982776660
18982785022
18982792346
18982799975
18982808093
18982816333
18982823962
18982832568
18982838916
18982847582
18982854357
18982863879
18982869799
18982879992
18982886828
18982894030
18982902880
18982909655
18982917223
18982924365
18982931689
18982940966
18982949267
18982955798
18982963427
18982971789
18982978991
18982984789
18982995653
18983002733
18983010607
18983017809
18983027270
18983033312
18983043139
18983050463
18983062548
18983070665
18983078844
18983086535
18983094774
18983101915
18983108934
18983116686
18983124193
18983132860
18983139025
18983147692
18983155138
18983161058
18983169542
18983177965
18983185106
18983192980
18983200548
18983206285
18983212999
18983221056
18983230882
18983236864
18983245592
18983251268
18983260484
18983267808
18983275072
18983283555
18983290452
18983293870
18983305040
18983312669
18983319017
18983325364
18983334092
18983342393
18983348619
18983356248
18983362596
18983369981
18983377855
18983383775
18983392015
18983399705
18983407701
18983415391
18983423326
18983430039
18983435350
18983444627
18983451158
18983458360
18983466050
18983474839
18983481187
18983487840
18983495713
18983502427
18983510850
18983519273
18983526658
18983533494
18983541367
18983550401
18983558152
18983565659
18983576218
18983584702
18983591721
18983600876
18983606675
18983615708
18983622605
18983631455
18983640915
18983649277
18983656357
18983662888
18983671189
18983678147
18983685898
18983694382
18983702072
18983709946
18983716050
18983723862
18983730149
18983738877
18983748154
18983755844
18983763474
18983771591
18983778916
18983786850
18983795151
18983804306
18983812546
18983820358
18983827499
18983835373
18983842697
18983850143
18983856918
18983863388
18983872360
18983880356
18983886520
18983894333
18983900070
18983907394
18983915146
18983923691
18983929245
18983938034
18983943954
18983953415
18983960006
18983967941
18983977218
18983985824
18983994064
18984002365
18984007858
18984019149
18984027938
18984035690
18984042709
18984047653
18984057296
18984064376
18984072494
18984081100
18984090133
18984096603
18984105270
18984113143
18984119003
18984126754
18984134505
18984139449
18984145492
18984152084
18984158065
18984164046
18984170516
18984177840
18984184188
18984190597
18984196456
18984203170
18984209090
18984214400
18984221847
18984228072
18984235152
18984240645
18984247908
18984254134
18984259200
18984266829
18984272994
18984280745
18984288619
18984293441
18984300399
18984307601
18984312606
18984320845
18984325667
18984334090
18984340132
18984346053
18984350386
18984357283
18984361800
18984369307
18984375838
18984383711
18984390913
18984400740
18984406783
18984413374
18984422102
18984429305
18984440779
18984452071
18984461348
18984467573
18984475813
18984481062
18984488936
18984494185
18984502241
18984509382
18984517134
18984522566
18984530562
18984538618
18984546248
18984552717
18984557966
18984565352
18984572248
18984578291
18984583601
18984591536
18984597822
18984604475
18984609785
18984618879
18984626936
18984635053
18984643782
18984651106
18984659101
18984670149
18984681562
18984689619
18984698469
18984706831
18984714277
18984721235
18984728681
18984734846
18984741010
18984747358
18984755781
18984763593
18984769636
18984777692
18984784528
18984791120
18984799177
18984805524
18984813154
18984819867
18984827192
18984833417
18984840741
18984846723
18984853254
18984860456
18984869550
18984877179
18984885846
18984893354
18984900800
18984909894
18984916608
18984925580
18984932599
18984941083
18984949018
18984955609
18984963239
18984969708
18984976544
18984983441
18984990827
18984998334
18985004987
18985011823
18985019025
18985026593
18985032635
18985039655
18985046613
18985053509
18985059979
18985067670
18985075482
18985081341
18985090558
18985101666
18985110333
18985120465
18985132000
18985140057
18985148114
18985160321
18985168499
18985174542
18985181073
18985187359
18985193646
18985200421
18985208660
18985216839
18985224102
18985233074
18985239788
18985244610
18985253399
18985260479
18985267376
18985272076
18985280804
18985286541
18985294537
18985301495
18985308758
18985315228
18985322369
18985331036
18985338482
18985342388
18985353863
18985360027
18985367107
18985373638
18985381328
18985389080
18985396953
18985403545
18985409405
18985415996
18985421551
18985429119
18985433941
18985440715
18985446758
18985451824
18985458904
18985463543
18985471660
18985478618
18985484600
18985492412
18985497539
18985504253
18985509746
18985515850
18985522319
18985529338
18985534099
18985542888
18985548259
18985556011
18985562297
18985568462
18985575176
18985580547
18985586284
18985592876
18985599712
18985604228
18985611858
18985616496
18985623454
18985628093
18985636638
18985641765
18985649089
18985655070
18985660686
18985665629
18985672282
18985679118
18985684306
18985689982
18985696940
18985702434
18985708598
18985713664
18985719706
18985725871
18985731852
18985740886
18985747844
18985752971
18985761149
18985765971
18985773356
18985779338
18985785502
18985793193
18985799723
18985805949
18985812663
18985818888
18985823832
18985830607
18985837321
18985841410
18985847514
18985853251
18985860209
18985867533
18985872111
18985880106
18985885417
18985891154
18985897868
18985905375
18985912150
18985917399
18985923197
18985929789
18985934855
18985941874
18985949442
18985956095
18985962382
18985969218
18985974711
18985981180
18985986857
18985994120
18986000345
18986003824
18986014567
18986019999
18986027872
18986035135
18986041056
18986046976
18986055033
18986061441
18986068888
18986075174
18986082499
18986087686
18986094644
18986100077
18986107157
18986114176
18986121622
18986127420
18986135050
18986142374
18986147684
18986155802
18986162943
18986170572
18986176492
18986182779
18986189798
18986195963
18986202799
18986208841
18986215128
18986222635
18986228799
18986235757
18986242166
18986248575
18986254922
18986261758
18986267923
18986274026
18986281351
18986287271
18986294290
18986299966
18986307840
18986315347
18986320413
18986328775
18986333963
18986341958
18986347696
18986353982
18986365335
18986371988
18986378946
18986386331
18986392617
18986401284
18986407571
18986418008
18986425210
18986432900
18986438394
18986445046
18986451516
18986459695
18986466714
18986472390
18986478677
18986485757
18986492104
18986497781
18986504556
18986512002
18986518105
18986525246
18986532082
18986537087
18986543496
18986550820
18986557412
18986564858
18986571267
18986577981
18986584328
18986591530
18986597756
18986602578
18986610085
18986618081
18986624917
18986631081
18986637856
18986644875
18986651711
18986657998
18986665444
18986673989
18986681557
18986688942
18986695656
18986701638
18986708840
18986716896
18986724098
18986730263
18986738625
18986745827
18986752541
18986759865
18986766762
18986772560
18986780495
18986789711
18986798073
18986806313
18986813820
18986819923
18986827064
18986833595
18986842812
18986852638
18986858498
18986866005
18986873329
18986880104
18986889320
18986893104
18986902443
18986908363
18986918190
18986923866
18986932472
18986938209
18986946449
18986952858
18986961952
18986971534
18986977760
18986986915
18986993812
18987001380
18987009071
18987016944
18987023963
18987032569
18987041786
18987049598
18987056556
18987065711
18987076331
18987087013
18987099891
18987107215
18987120582
18987130653
18987142066
18987148963
18987154945
18987160682
18987167090
18987172950
18987178992
18987184852
18987191138
18987196998
18987201880
18987209510
18987215369
18987221412
18987226661
18987232459
18987237952
18987245643
18987252539
18987258094
18987262915
18987269629
18987275122
18987280127
18987285254
18987291846
18987297827
18987303321
18987308875
18987315528
18987320593
18987327124
18987331397
18987338172
18987342505
18987349524
18987355689
18987360999
18987367407
18987374732
18987379675
18987387427
18987393897
18987399695
18987404822
18987410010
18987416846
18987420996
18987427222
18987433386
18987439917
18987446020
18987451636
18987457434
18987462256
18987467871
18987475500
18987481116
18987485327
18987491064
18987496802
18987501928
18987508398
18987513647
18987520666
18987525549
18987530737
18987536902
18987542395
18987547277
18987556189
18987561499
18987568396
18987575476
18987583227
18987589025
18987594397
18987600805
18987606665
18987613073
18987620092
18987624609
18987630407
18987637243
18987643896
18987651830
18987658178
18987667761
18987673071
18987681921
18987689428
18987696447
18987706030
18987712377
18987715429
18987724157
18987730321
18987735509
18987741125
18987748327
18987754369
18987759862
18987765661
18987772802
18987778173
18987785314
18987789953
18987796544
18987803136
18987807958
18987816259
18987821813
18987827672
18987834752
18987841466
18987849157
18987856481
18987862401
18987870153
18987874486
18987883886
18987890233
18987896520
18987902989
18987906591
18987915929
18987921178
18987926915
18987932714
18987938695
18987944859
18987950963
18987957311
18987963292
18987970982
18987977330
18987984532
18987989720
18987995519
18988002477
18988008275
18988013890
18988018895
18988025792
18988034703
18988039891
18988050938
18988058140
18988064549
18988071019
18988077000
18988084202
18988091282
18988096898
18988104344
18988113865
18988119236
18988126988
18988133519
18988140904
18988147068
18988154698
18988161656
18988167210
18988173436
18988180455
18988186985
18988192601
18988198887
18988206089
18988211766
18988217320
18988223423
18988230931
18988239475
18988244969
18988251927
18988260594
18988266697
18988275242
18988283054
18988292271
18988300266
18988307102
18988313999
18988321751
18988328831
18988337009
18988343235
18988348911
18988356541
18988362217
18988369663
18988375828
18988382908
18988390232
18988395847
18988404941
18988412143
18988419346
18988426487
18988439731
18988449314
18988458469
18988467136
18988479160
18988487583
18988496189
18988505039
18988514682
18988526584
18988540622
18988549655
18988558933
18988567905
18988576572
18988585605
18988595187
18988606296
18988616000
18988624972
18988633090
18988644565
18988656344
18988665378
18988675387
18988686313
18988694919
18988704623
18988712375
18988722873
18988730807
18988743502
18988751681
18988763034
18988774386
18988783663
18988793490
18988800997
18988811373
18988822360
18988829318
18988840121
18988849459
18988860446
18988868502
18988879427
18988886324
18988897128
18988905245
18988914950
18988926913
18988936129
18988944308
18988952242
18988963228
18988970736
18988981661
18988989046
18988999544
18989005709
18989016207
18989026095
18989034090
18989044588
18989052584
18989061312
18989071444
18989080355
18989090792
18989104586
18989114656
18989125032
18989136324
18989146700
18989155733
18989166963
18989175447
18989184908
18989194917
18989202852
18989212434
18989220979
18989228731
18989237642
18989248628
18989259187
18989269075
18989277254
18989286165
18989295015
18989305269
18989314973
18989324312
18989337068
18989348970
18989358064
18989365754
18989376313
18989386384
18989395845
18989406465
18989417146
18989426057
18989435273
18989444917
18989454133
18989463410
18989473725
18989482392
18989491853
18989502656
18989513032
18989521394
18989531342
18989540192
18989549042
18989558381
18989568390
18989576447
18989586762
18989595124
18989604401
18989615815
18989624115
18989634247
18989646454
18989655060
18989666291
18989675873
18989683380
18989693756
18989704987
18989714081
18989723419
18989732392
18989741608
18989753082
18989760590
18989772125
18989781525
18989792267
18989800568
18989811127
18989817718
18989828705
18989839752
18989850616
18989859772
18989870941
18989879486
18989888641
18989899872
18989907684
18989915252
18989921234
18989927765
18989934234
18989942596
18989950592
18989957428
18989965606
18989977142
18989983306
18989991546
18989995880
18990004119
18990011016
18990018951
18990024749
18990032256
18990038604
18990044769
18990051055
18990058318
18990063140
18990070464
18990078094
18990083648
18990093963
18990101958
18990107879
18990113067
18990118987
18990127044
18990133208
18990138946
18990145293
18990148589
18990158111
18990164092
18990170928
18990178985
18990184539
18990190520
18990197539
18990203216
18990208953
18990215178
18990222991
18990230437
18990235564
18990242400
18990249297
18990255278
18990261016
18990267119
18990273833
18990280486
18990287444
18990293852
18990300078
18990306365
18990312224
18990318755
18990327544
18990336638
18990341826
18990348967
18990356658
18990363615
18990371184
18990376128
18990384734
18990390776
18990397734
18990403777
18990410796
18990417876
18990422880
18990429594
18990437102
18990444304
18990449492
18990457182
18990462431
18990469450
18990477385
18990483244
18990488981
18990494841
18990501066
18990507231
18990512724
18990519133
18990526091
18990532927
18990539579
18990546782
18990553556
18990560575
18990566679
18990574308
18990585783
18990594206
18990601713
18990611051
18990619535
18990624174
18990632902
18990642179
18990651823
18990661100
18990666837
18990673429
18990681120
18990687650
18990693815
18990700224
18990707182
18990713590
18990719633
18990726163
18990731718
18990739713
18990746244
18990752531
18990758573
18990768155
18990776029
18990782621
18990789884
18990796903
18990805265
18990812040
18990817777
18990827726
18990836332
18990842618
18990850980
18990859464
18990866727
18990872464
18990878751
18990888150
18990895963
18990902127
18990909390
18990914884
18990923429
18990929959
18990936124
18990942532
18990948392
18990953763
18990959622
18990967862
18990973233
18990979703
18990984891
18990990262
18990996793
18991002530
18991007840
18991013577
18991020901
18991027249
18991031949
18991039273
18991046048
18991052273
18991058621
18991065762
18991070950
18991077359
18991084500
18991090115
18991096951
18991102261
18991107815
18991114224
18991119229
18991126736
18991133328
18991138028
18991144741
18991151638
18991157620
18991163967
18991169766
18991175015
18991180569
18991186123
18991192715
18991198574
18991204495
18991208706
18991217007
18991224209
18991233853
18991242764
18991250210
18991256924
18991264675
18991272732
18991278591
18991285244
18991289761
18991296047
18991301052
18991307827
18991312344
18991318691
18991325771
18991331020
18991342617
18991349209
18991357937
18991366115
18991374660
18991383144
18991389065
18991395412
18991400844
18991406276
18991412441
18991419643
18991426601
18991432705
18991438381
18991444912
18991451198
18991458278
18991464138
18991469570
18991475856
18991479335
18991487148
18991492580
18991500270
18991507411
18991514125
18991520168
18991526393
18991531825
18991540492
18991546901
18991554836
18991561549
18991569850
18991576137
18991581996
18991589992
18991598354
18991604518
18991611354
18991616664
18991624721
18991632472
18991639735
18991647548
18991652858
18991660975
18991666713
18991672389
18991681056
18991687465
18991694545
18991699550
18991705409
18991713343
18991718776
18991725673
18991732814
18991738551
18991746241
18991752101
18991759547
18991765406
18991772486
18991782008
18991792140
18991801051
18991809474
18991815699
18991826258
18991833094
18991838038
18991846278
18991853541
18991860438
18991867823
18991874049
18991881312
18991887659
18991894495
18991899378
18991906580
18991913660
18991918787
18991926478
18991933497
18991939173
18991944544
18991951075
18991958826
18991966944
18991973963
18991980738
18991987818
18991995386
18992002222
18992008448
18992014856
18992022425
18992028223
18992033045
18992041285
18992046411
18992054346
18992060999
18992066797
18992073206
18992080469
18992087549
18992094690
18992100977
18992108545
18992114466
18992121362
18992127832
18992136560
18992144190
18992151270
18992156641
18992164697
18992171350
18992177637
18992183862
18992191003
18992198328
18992206934
18992212732
18992221399
18992228784
18992235071
18992242639
18992251062
18992258569
18992265466
18992272851
18992297937
18992306482
18992316674
18992324060
18992331933
18992339502
18992347253
18992354333
18992360681
18992369348
18992376672
18992385156
18992392541
18992398583
18992407250
18992417199
18992428002
18992439660
18992446374
18992458459
18992465905
18992473595
18992482995
18992491906
18992498315
18992504845
18992511681
18992519128
18992525231
18992531945
18992537682
18992543114
18992550439
18992556786
18992562707
18992567345
18992574120
18992580712
18992587365
18992592370
18992599205
18992604210
18992612633
18992618676
18992626610
18992632836
18992638146
18992646263
18992651818
18992657616
18992663414
18992671349
18992678185
18992684532
18992689171
18992696129
18992700768
18992708397
18992715782
18992721642
18992728294
18992735252
18992740257
18992746666
18992753014
18992760277
18992766319
18992771446
18992776085
18992783409
18992790245
18992797386
18992804344
18992809105
18992815636
18992820701
18992827171
18992832542
18992839561
18992846214
18992852623
18992858177
18992862755
18992870689
18992876854
18992883995
18992889976
18992895591
18992902122
18992906578
18992915672
18992922142
18992928428
18992935203
18992941856
18992947959
18992955955
18992965843
18992975730
18992985130
18992991172
18993001609
18993009666
18993017112
18993023216
18993028953
18993037376
18993042747
18993050681
18993056052
18993063438
18993069175
18993074912
18993080466
18993086692
18993094688
18993101218
18993106956
18993112266
18993119224
18993123679
18993130393
18993137595
18993143943
18993150779
18993158713
18993164390
18993170859
18993176780
18993182883
18993190207
18993196921
18993201743
18993207602
18993213706
18993219443
18993225791
18993232260
18993238913
18993244773
18993250632
18993255942
18993262961
18993268759
18993276816
18993283347
18993291098
18993298728
18993303549
18993312949
18993319296
18993327414
18993336997
18993343527
18993350119
18993357382
18993365073
18993372519
18993379294
18993384116
18993390768
18993398093
18993404440
18993411703
18993419394
18993425314
18993431662
18993439291
18993445151
18993450705
18993458639
18993465658
18993472555
18993479452
18993484030
18993491232
18993497763
18993505392
18993510885
18993519247
18993524557
18993532431
18993538107
18993548178
18993555746
18993563253
18993572470
18993579183
18993586569
18993594625
18993601461
18993609701
18993616293
18993624410
18993632406
18993639242
18993644430
18993651937
18993657735
18993664877
18993671774
18993676839
18993684225
18993689535
18993697897
18993703207
18993710104
18993717794
18993724935
18993732564
18993740499
18993745809
18993754964
18993760763
18993767660
18993776143
18993781575
18993790181
18993798055
18993806295
18993811849
18993819600
18993826924
18993834249
18993839925
18993848409
18993859700
18993865010
18993872762
18993877950
18993887288
18993894490
18993900105
18993908345
18993916280
18993921773
18993929463
18993938374
18993943807
18993952351
18993959187
18993967610
18993977254
18993983418
18993989827
18993998494
18994005391
18994011983
18994019429
18994028462
18994036763
18994043538
18994050801
18994059346
18994066243
18994072896
18994080281
18994086995
18994095906
18994104634
18994110859
18994119282
18994126179
18994132161
18994138447
18994146382
18994154621
18994160603
18994166584
18994172871
18994178913
18994185749
18994191242
18994199665
18994205341
18994217365
18994223835
18994230427
18994237751
18994245930
18994256123
18994265827
18994272602
18994280903
18994290302
18994296040
18994303364
18994309223
18994316913
18994324299
18994330585
18994336017
18994342426
18994347858
18994352131
18994360248
18994366291
18994372272
18994379169
18994384235
18994390949
18994397236
18994402668
18994409382
18994413959
18994420368
18994426838
18994434040
18994439533
18994445514
18994451557
18994457294
18994464923
18994469379
18994475971
18994482379
18994488666
18994493488
18994500385
18994507343
18994513507
18994519611
18994526202
18994532062
18994536823
18994544940
18994549518
18994556354
18994561664
18994567279
18994573444
18994580463
18994585406
18994592853
18994599261
18994604327
18994609759
18994617755
18994623920
18994630511
18994636310
18994643146
18994649310
18994656085
18994661700
18994667132
18994674212
18994679644
18994686664
18994692950
18994698443
18994705340
18994711200
18994717913
18994725238
18994732257
18994738604
18994743121
18994750750
18994758258
18994763140
18994771929
18994778216
18994784625
18994791094
18994798113
18994803301
18994810381
18994818438
18994825701
18994831683
18994838213
18994844927
18994851641
18994858599
18994865618
18994877154
18994883562
18994888811
18994896990
18994902422
18994910601
18994919024
18994925066
18994930926
18994938799
18994944964
18994951189
18994956988
18994964800
18994971758
18994977373
18994984331
18994991411
18994997271
18995002825
18995010088
18995017290
18995024553
18995029619
18995038103
18995043352
18995051348
18995058550
18995065142
18995070268
18995079973
18995087053
18995093767
18995099870
18995108171
18995113420
18995121050
18995126177
18995133806
18995140215
18995147417
18995151689
18995159441
18995164690
18995172441
18995179155
18995186235
18995191484
18995199174
18995205217
18995212480
18995217363
18995224565
18995231157
18995238237
18995243425
18995250505
18995255876
18995262956
18995270463
18995275407
18995283708
18995291642
18995298478
18995306230
18995313493
18995320146
18995327348
18995332719
18995342424
18995348161
18995356340
18995361650
18995369950
18995375443
18995382585
18995392106
18995398149
18995404191
18995411698
18995417741
18995425370
18995432572
18995439774
18995446610
18995453629
18995460526
18995467423
18995475236
18995483903
18995491349
18995498978
18995510392
18995518937
18995525651
18995535843
18995542008
18995549882
18995557389
18995567215
18995575089
18995582413
18995590043
18995595902
18995604142
18995610794
18995618180
18995626664
18995633072
18995642105
18995648087
18995656693
18995661698
18995669998
18995677811
18995685990
18995694718
18995700455
18995709915
18995715653
18995722427
18995730606
18995736832
18995744522
18995751663
18995759109
18995765945
18995771378
18995778030
18995786331
18995795059
18995800735
18995809036
18995815384
18995824661
18995831009
18995839493
18995846329
18995853653
18995862564
18995867935
18995876602
18995882950
18995890518
18995896316
18995901687
18995907547
18995914383
18995920303
18995927505
18995934585
18995939346
18995947158
18995953384
18995960708
18995970046
18995976821
18995983535
18995991409
18995998245
18996004531
18996011001
18996016311
18996022781
18996029067
18996036269
18996040542
18996050002
18996057876
18996064651
18996070449
18996076125
18996083816
18996091628
18996097854
18996105544
18996113112
18996117629
18996124343
18996131606
18996138015
18996143508
18996148879
18996154738
18996160048
18996162917
18996171767
18996176955
18996185317
18996194655
18996200881
18996209792
18996216445
18996223952
18996229995
18996236220
18996243483
18996248732
18996256240
18996263014
18996267592
18996274672
18996281020
18996287551
18996293227
18996298842
18996305495
18996312026
18996317030
18996323378
18996329237
18996336440
18996342665
18996348524
18996356215
18996361098
18996366530
18996371718
18996378554
18996386427
18996393812
18996400526
18996405958
18996415053
18996420241
18996425978
18996432814
18996438612
18996444960
18996450941
18996457045
18996464674
18996470900
18996477125
18996484877
18996490370
18996497450
18996507460
18996514540
18996519972
18996526747
18996534498
18996541578
18996546522
18996554945
18996561048
18996567152
18996572035
18996578932
18996586683
18996593336
18996599317
18996607252
18996612440
18996620252
18996625440
18996633924
18996641981
18996649305
18996655592
18996661268
18996667249
18996674451
18996680616
18996687879
18996695936
18996702100
18996708204
18996713026
18996719983
18996725965
18996732618
18996741163
18996748243
18996755811
18996761976
18996766980
18996774061
18996778821
18996784742
18996791150
18996797254
18996805432
18996815381
18996824842
18996832105
18996840467
18996846692
18996854322
18996861157
18996868176
18996875745
18996881604
18996888562
18996895642
18996901074
18996909436
18996914868
18996922498
18996927625
18996935742
18996940259
18996947278
18996953503
18996959485
18996964246
18996970959
18996977429
18996983227
18996990124
18996996899
18997003796
18997008923
18997017102
18997025342
18997031689
18997037732
18997045300
18997052014
18997058606
18997064282
18997072033
18997077343
18997083203
18997092114
18997099133
18997106823
18997112683
18997117993
18997126232
18997133007
18997139416
18997145031
18997150524
18997157849
18997162609
18997170849
18997175610
18997182995
18997188915
18997195507
18997202099
18997210278
18997218334
18997229076
18997235973
18997242321
18997248730
18997257275
18997264355
18997270580
18997277599
18997284557
18997292736
18997299877
18997307140
18997315136
18997322399
18997329845
18997336315
18997344921
18997350414
18997356090
18997363659
18997370922
18997380504
18997387279
18997395580
18997401378
18997407848
18997414928
18997423168
18997430431
18997438426
18997445384
18997452831
18997460704
18997466564
18997473583
18997487071
18997493602
18997505199
18997514903
18997524730
18997533275
18997544933
18997553966
18997561229
18997568431
18997574962
18997580760
18997586986
18997592845
18997599315
18997605723
18997612742
18997618297
18997623301
18997629527
18997634776
18997641063
18997646068
18997651194
18997657725
18997662486
18997668956
18997674571
18997679637
18997685801
18997691111
18997698436
18997707042
18997716563
18997723826
18997734263
18997743357
18997749156
18997760203
18997766551
18997772898
18997778880
18997786692
18997792613
18997797373
18997804087
18997808238
18997813303
18997818736
18997823985
18997829966
18997836741
18997840830
18997846690
18997852061
18997857554
18997862925
18997869761
18997874888
18997879404
18997885813
18997890024
18997896433
18997901377
18997906260
18997911326
18997917856
18997923838
18997929514
18997935801
18997942392
18997947703
18997953562
18997959421
18997966074
18997972239
18997977854
18997983652
18997990183
18997995798
18998000742
18998008188
18998013437
18998020883
18998025949
18998032297
18998037851
18998044687
18998050913
18998059946
18998067148
18998075266
18998083933
18998091928
18998098215
18998104318
18998114389
18998121103
18998127267
18998134348
18998143686
18998154001
18998161264
18998172311
18998183725
18998190988
18998199716
18998205881
18998213449
18998218210
18998225412
18998231088
18998236703
18998243417
18998248544
18998254831
18998263009
18998269357
18998275460
18998280587
18998287484
18998294076
18998298959
18998306588
18998311593
18998319100
18998325631
18998332162
18998337777
18998343759
18998351693
18998357797
18998363168
18998369271
18998374642
18998382089
18998388192
18998393868
18998399300
18998407174
18998412484
18998418893
18998424752
18998430917
18998438058
18998443612
18998449776
18998455270
18998462044
18998467477
18998472726
18998479317
18998484566
18998491524
18998496163
18998502755
18998507821
18998514412
18998519234
18998525826
18998530648
18998536141
18998544198
18998550728
18998556832
18998561654
18998568978
18998573739
18998581490
18998587227
18998593575
18998600228
18998606270
18998612068
18998617989
18998624581
18998630623
18998636177
18998643624
18998648995
18998655342
18998661385
18998668099
18998675362
18998686714
18998697456
18998703316
18998710945
18998720589
18998730171
18998737373
18998745735
18998751595
18998757698
18998763679
18998771980
18998778267
18998784675
18998791878
18998797981
18998804573
18998812324
18998818489
18998824470
18998830208
18998837898
18998845710
18998852119
18998857917
18998865608
18998870552
18998878120
18998883430
18998890937
18998896492
18998903938
18998911872
18998920051
18998927314
18998933418
18998940132
18998948493
18998955024
18998960273
18998966621
18998972053
18998980293
18998986579
18998994941
18999000984
18999009956
18999015754
18999022041
18999028938
18999038032
18999044440
18999051337
18999057868
18999065253
18999071784
18999078315
18999084907
18999091132
18999098640
18999105720
18999113471
18999121711
18999128791
18999134406
18999141669
18999149176
18999157966
18999164985
18999172736
18999180243
18999188117
18999195746
18999202277
18999208625
18999216681
18999226020
18999231574
18999239630
18999245062
18999252448
18999257758
18999264960
18999272223
18999276984
18999282355
18999288947
18999297064
18999303656
18999309515
18999315802
18999321539
18999327338
18999333136
18999339667
18999346136
18999352606
18999361700
18999368414
18999375616
18999382513
18999390204
18999397406
18999405585
18999411688
18999418097
18999426886
18999432928
18999439398
18999446600
18999452765
18999458197
18999464911
18999470526
18999477240
18999484137
18999489019
18999495916
18999500738
18999507757
18999515570
18999520208
18999527655
18999531988
18999539251
18999544500
18999550176
18999556463
18999562017
18999568182
18999574957
18999580267
18999587042
18999591436
18999598638
18999604253
18999610845
18999616521
18999622686
18999627325
18999633611
18999638616
18999644964
18999650762
18999656316
18999662969
18999667303
18999676031
18999680913
18999688177
18999694463
18999699590
18999705755
18999712346
18999718328
18999725164
18999730169
18999736944
18999742193
18999748723
18999755071
18999761663
18999767278
18999774297
18999780217
18999785649
18999793462
18999799565
18999807805
18999813176
18999821233
18999826360
18999833928
18999839665
18999846684
18999852422
18999859563
18999864324
18999871648
18999877873
18999885014
18999890386
18999897649
18999903264
18999911076
18999919255
18999924870
18999931889
18999939458
18999945866
18999950688
18999958684
18999965031
18999971379
18999982121
18999989140
18999996098
19000002141
19000010075
19000018071
19000028325
19000035038
19000039616
19000046452
19000051396
19000058171
19000063054
19000070134
19000078984
19000084721
19000092228
19000099430
19000104618
19000111943
19000118168
19000124089
19000130863
19000138554
19000144291
19000149296
19000155155
19000161808
19000167607
19000173039
19000179020
19000186405
19000192204
19000197880
19000205082
19000210087
19000217289
19000222111
19000228825
19000233829
19000240482
19000245060
19000251713
19000257511
19000265446
19000270756
19000278385
19000285343
19000292606
19000299198
19000304264
19000311466
19000317386
19000325077
19000331180
19000337467
19000343815
19000351688
19000358219
19000364261
19000370853
19000378177
19000383182
19000390567
19000395267
19000403324
19000409427
19000417728
19000424015
19000432559
19000438541
19000447025
19000453006
19000459171
19000464420
19000472293
19000478763
19000484622
19000490665
19000497134
19000502872
19000510745
19000517032
19000523135
19000530765
19000538638
19000546329
19000553775
19000560794
19000567630
19000574283
19000580508
19000589236
19000596927
19000603885
19000613223
19000620059
19000627871
19000634829
19000647097
19000656558
19000665713
19000672305
19000683047
19000692508
19000698977
19000705508
19000711917
19000718386
19000725100
19000733645
19000740786
19000747439
19000753970
19000760439
19000767886
19000775393
19000781680
19000789065
19000796450
19000804995
19000811343
19000820193
19000827029
19000834597
19000841616
19000848147
19000855532
19000862490
19000871340
19000877932
19000885744
19000892153
19000903506
19000910280
19000917788
19000924318
19000929628
19000936586
19000944643
19000952456
19000958620
19000963442
19000969118
19000974306
19000980165
19000985414
19000991640
19000998232
19001002382
19001008974
19001014101
19001020693
19001026552
19001033449
19001039369
19001045412
19001051271
19001056337
19001062563
19001067018
19001073305
19001078066
19001084718
19001089357
19001096193
19001102419
19001107973
19001113710
19001119447
19001126527
19001132631
19001138795
19001145204
19001150819
19001157289
19001163759
19001170351
19001176576
19001182985
19001190065
19001196779
19001203004
19001209535
19001215516
19001221620
19001229249
19001234071
19001238710
19001244813
19001250001
19001256288
19001264039
19001271180
19001278505
19001281923
19001289918
19001296205
19001303285
19001307862
19001315736
19001322938
19001330445
19001335877
19001342164
19001347047
19001353333
19001359803
19001364259
19001372865
19001379334
19001385377
19001390931
19001396363
19001404359
19001409608
19001416627
19001421937
19001428834
19001434449
19001440675
19001448182
19001453858
19001460450
19001467164
19001473023
19001479310
19001486146
19001491761
19001496399
19001504029
19001510132
19001518189
19001523682
19001531800
19001537415
19001545777
19001552796
19001558960
19001566712
19001573792
19001580140
19001586304
19001591797
19001599243
19001605164
19001612732
19001620117
19001627564
19001634766
19001640198
19001647034
19001654724
19001661865
19001668823
19001676270
19001681580
19001688599
19001695496
19001702026
19001707031
19001715088
19001722900
19001729675
19001735962
19001742248
19001749573
19001755981
19001762268
19001768310
19001776611
19001782654
19001788879
19001796264
19001803772
19001808838
19001816589
19001823547
19001829895
19001837280
19001843567
19001849609
19001856079
19001863037
19001869629
19001875854
19001883544
19001889343
19001898132
19001904357
19001910888
19001917175
19001925842
19001933044
19001939269
19001947143
19001953246
19001960021
19001967773
19001974059
19001980163
19001987487
19001995116
19002000976
19002009155
19002016723
19002021667
19002029906
19002037841
19002046691
19002053161
19002062316
19002068542
19002076537
19002084167
19002091857
19002097777
19002105041
19002110290
19002118102
19002125182
19002132995
19002140319
19002148009
19002154479
19002161132
19002167174
19002174620
19002180846
19002186461
19002192687
19002200194
19002206298
19002211974
19002219542
19002224547
19002232421
19002238402
19002244689
19002251708
19002258055
19002264159
19002272582
19002278990
19002286131
19002293333
19002300597
19002308897
19002315733
19002322447
19002329405
19002336974
19002344176
19002350645
19002357909
19002365965
19002373411
19002381407
19002388365
19002397825
19002404722
19002411131
19002418394
19002425230
19002433836
19002440123
19002447020
19002452818
19002461729
19002468809
19002476500
19002484251
19002491270
19002498777
19002506895
19002514402
19002521849
19002525938
19002534788
19002542967
19002551451
19002557676
19002564390
19002573179
19002580137
19002587278
19002595762
19002605711
19002621214
19002630552
19002636533
19002645811
19002652097
19002661436
19002667173
19002676084
19002682187
19002691099
19002696775
19002705198
19002712095
19002718625
19002727598
19002733640
19002740415
19002746396
19002751828
19002759214
19002764035
19002771787
19002778196
19002783506
19002788999
19002796323
19002802182
19002807553
19002814572
19002819882
19002827695
19002833066
19002838864
19002846189
19002851804
19002858701
19002865903
19002870664
19002879208
19002883847
19002890561
19002897519
19002903500
19002908200
19002914914
19002924313
19002932065
19002937680
19002945492
19002950986
19002957272
19002963864
19002971676
19002977170
19002984311
19002989560
19002995907
19003001523
19003008053
19003012570
19003018918
19003025570
19003031430
19003037777
19003042416
19003050839
19003056881
19003062191
19003068051
19003074826
19003080868
19003087155
19003091854
19003097958
19003104550
19003111569
19003117001
19003123043
19003130367
19003135067
19003141598
19003146664
19003153439
19003161068
19003167050
19003173397
19003179440
19003185116
19003191830
19003198544
19003204952
19003211178
19003217403
19003223446
19003232235
19003238888
19003245113
19003251705
19003260250
19003266476
19003271541
19003281734
19003288326
19003294796
19003301204
19003307369
19003314266
19003320675
19003327633
19003333797
19003339840
19003350643
19003358150
19003365657
19003371700
19003378841
19003384761
19003392025
19003396968
19003404232
19003413204
19003418148
19003426387
19003431575
19003440303
19003446040
19003452754
19003459773
19003467342
19003473750
19003480037
19003486263
19003492610
19003499934
19003506160
19003512569
19003518733
19003524837
19003532588
19003537959
19003544124
19003550593
19003558467
19003566096
19003572078
19003578547
19003585689
19003591304
19003598506
19003603389
19003610652
19003617366
19003624385
19003631648
19003636836
19003644282
19003652522
19003659419
19003667292
19003676203
19003679316
19003689814
19003695002
19003702571
19003707759
19003715388
19003721919
19003727656
19003733821
19003741633
19003747798
19003753657
19003760493
19003767695
19003774226
19003779841
19003786860
19003793757
19003800593
19003807490
19003813654
19003817133
19003827265
19003833124
19003840510
19003845698
19003854059
19003859614
19003868891
19003879206
19003886713
19003895075
19003901789
19003907526
19003914789
19003922724
19003929621
19003935724
19003941767
19003949457
19003955805
19003963617
19003969660
19003977411
19003985773
19003992365
19003998590
19004003534
19004011408
19004019647
19004027582
19004034723
19004041986
19004051447
19004059686
19004065302
19004072809
19004081293
19004087640
19004095392
19004102777
19004110101
19004115961
19004124200
19004129327
19004137201
19004143610
19004151605
19004158990
19004164545
19004173700
19004177545
19004189081
19004197992
19004204767
19004212640
19004221002
19004226922
19004235040
19004241754
19004250116
19004257623
19004265130
19004271539
19004279840
19004287652
19004293267
19004302789
19004308526
19004316400
19004322808
19004335504
19004342523
19004350274
19004357354
19004364922
19004372186
19004379937
19004389642
19004395135
19004402154
19004410149
19004419122
19004424554
19004432671
19004438592
19004448174
19004453972
19004460747
19004466973
19004473809
19004478936
19004486199
19004493462
19004498711
19004505730
19004510430
19004515984
19004522637
19004529595
19004535759
19004542351
19004546685
19004552971
19004560845
19004568047
19004574578
19004583672
19004589226
19004596306
19004604607
19004609184
19004616142
19004620964
19004626213
19004636162
19004640984
19004646477
19004653069
19004658867
19004664482
19004670830
19004678398
19004683342
19004690178
19004695183
19004702385
19004709404
19004714653
19004720756
19004726799
19004733269
19004738945
19004745170
19004751518
19004756096
19004762626
19004767814
19004774284
19004780754
19004785087
19004791923
19004796318
19004803459
19004808708
19004814872
19004820732
19004825004
19004831535
19004838432
19004843681
19004849723
19004854972
19004860405
19004867240
19004873893
19004880241
19004885368
19004891288
19004898490
19004904167
19004910758
19004916862
19004922904
19004929862
19004936698
19004942375
19004949699
19004956046
19004962577
19004970268
19004977348
19004983390
19004990287
19004997794
19005005973
19005013236
19005018607
19005025626
19005032218
19005038077
19005044852
19005051810
19005058158
19005065177
19005070914
19005076774
19005083121
19005089774
19005099051
19005107413
19005112540
19005121268
19005127250
19005135550
19005142020
19005150504
19005156729
19005164725
19005170829
19005178092
19005184134
19005190787
19005197806
19005205374
19005211844
19005217948
19005224722
19005231009
19005239493
19005245474
19005252432
19005259757
19005266104
19005271964
19005279166
19005286185
19005292960
19005297598
19005304983
19005311697
19005318411
19005325857
19005333975
19005340140
19005346060
19005353262
19005359732
19005366568
19005374319
19005380118
19005386648
19005392996
19005400137
19005407339
19005413626
19005419973
19005426992
19005432913
19005439505
19005446218
19005453482
19005460684
19005466848
19005474844
19005481497
19005486563
19005496633
19005503469
19005511038
19005518484
19005525381
19005532278
19005540334
19005547415
19005554250
19005562795
19005567739
19005575979
19005582998
19005590505
19005597463
19005605520
19005615224
19005622427
19005630788
19005638174
19005646047
19005653432
19005661611
19005669423
19005677053
19005685109
19005693410
19005701772
19005709096
19005719289
19005729482
19005737844
19005743093
19005752370
19005757741
19005767202
19005774404
19005780141
19005788137
19005794362
19005803456
19005811696
19005817616
19005826283
19005833913
19005841542
19005848866
19005856862
19005864858
19005872365
19005880544
19005888661
19005897328
19005905812
19005913625
19005921498
19005930836
19005937794
19005946400
19005956410
19005964833
19005973500
19005981556
19005988148
19005996449
19006003163
19006013356
19006020558
19006028553
19006034962
19006043995
19006050038
19006056019
19006063343
19006071156
19006078236
19006087025
19006091969
19006097889
19006105885
19006111500
19006119068
19006124317
19006129749
19006138538
19006144764
19006151234
19006157765
19006163990
19006169788
19006175648
19006182484
19006187977
19006193531
19006200428
19006205250
19006211292
19006219227
19006224537
19006231068
19006238270
19006244007
19006249500
19006255970
19006260608
19006268787
19006275074
19006280811
19006286243
19006292164
19006298267
19006301624
19006309925
19006315540
19006321155
19006327320
19006333179
19006339405
19006345508
19006354358
19006363025
19006370227
19006376270
19006383045
19006387683
19006395496
19006402210
19006408496
19006416065
19006420642
19006426685
19006433521
19006438953
19006443469
19006451953
19006456287
19006461597
19006466724
19006473926
19006477954
19006484363
19006491321
19006495349
19006502124
19006507922
19006515002
19006520557
19006527026
19006533374
19006539294
19006545642
19006552783
19006557727
19006562915
19006571216
19006577075
19006583362
19006590259
19006595691
19006602954
19006609851
19006616687
19006623462
19006630481
19006636950
19006642566
19006648242
19006653308
19006660754
19006666980
19006673388
19006678027
19006684863
19006691088
19006696581
19006704333
19006711657
19006718188
19006724108
19006731188
19006737109
19006744677
19006750597
19006756030
19006764330
19006769823
19006777453
19006783556
19006789599
19006795031
19006802599
19006808337
19006816576
19006822375
19006829882
19006836901
19006840685
19006849169
19006854845
19006861437
19006867174
19006874010
19006879870
19006887987
19006894884
19006901110
19006908312
19006915636
19006922411
19006929125
19006936754
19006943773
19006950975
19006956285
19006965990
19006973497
19006981554
19006991381
19006997118
19007003221
19007009508
19007015672
19007021837
19007027879
19007033983
19007039659
19007047289
19007053514
19007061510
19007067247
19007074754
19007081102
19007087328
19007093553
19007099229
19007105699
19007113390
19007118455
19007125474
19007130601
19007138048
19007143968
19007151170
19007158433
19007161729
19007168870
19007175828
19007182420
19007189500
19007196397
19007204332
19007210740
19007216661
19007224595
19007230394
19007237596
19007245042
19007251634
19007257798
19007264329
19007269639
19007276170
19007283799
19007290696
19007296800
19007303269
19007310899
19007317430
19007322617
19007330979
19007338609
19007343736
19007351487
19007358872
19007365159
19007375230
19007381760
19007390488
19007399033
19007405808
19007415330
19007421128
19007430405
19007436204
19007444504
19007453599
19007461777
19007469407
19007476914
19007483140
19007490647
19007498459
19007506516
19007512375
19007519944
19007527695
19007535080
19007541306
19007550522
19007558762
19007566819
19007572617
19007580185
19007588730
19007594650
19007601364
19007609787
19007616867
19007627854
19007637924
19007644577
19007651413
19007662155
19007670578
19007676010
19007686203
19007696884
19007704452
19007712143
19007720322
19007727524
19007736191
19007743210
19007749069
19007757126
19007761947
19007769943
19007776230
19007782760
19007789901
19007795395
19007802841
19007808456
19007814987
19007821945
19007827499
19007832931
19007838485
19007845504
19007852157
19007859054
19007863937
19007870895
19007877059
19007884017
19007890792
19007895492
19007903915
19007908737
19007914169
19007921127
19007927902
19007934188
19007940170
19007944930
19007953902
19007960311
19007966903
19007973617
19007979598
19007986678
19007992599
19007998580
19008004501
19008010055
19008017562
19008022445
19008030013
19008034835
19008042281
19008049850
19008056075
19008060897
19008067244
19008073104
19008079024
19008084884
19008092086
19008097457
19008102462
19008109053
19008115035
19008121138
19008126998
19008133467
19008138839
19008145003
19008151778
19008155928
19008162093
19008168624
19008173323
19008181746
19008186812
19008193770
19008198775
19008205428
19008210372
19008216841
19008225508
19008231612
19008237288
19008244856
19008250777
19008258101
19008265364
19008270735
19008277754
19008285384
19008292403
19008298933
19008305220
19008313704
19008319319
19008326399
19008331343
19008339339
19008345564
19008352766
19008359358
19008366621
19008374128
19008379133
19008384993
19008392317
19008398298
19008405684
19008412703
19008420210
19008426435
19008431440
19008439619
19008445845
19008452375
19008459333
19008465559
19008472456
19008478803
19008485761
19008492292
19008498030
19008504316
19008512312
19008518476
19008525556
19008533918
19008540205
19008545881
19008553083
19008558942
19008567060
19008572919
19008580427
19008587995
19008593488
19008601423
19008608686
19008616559
19008623762
19008629133
19008638044
19008643293
19008651777
19008657270
19008665326
19008670392
19008677350
19008687543
19008694074
19008701032
19008707196
19008713727
19008720014
19008725812
19008732282
19008738324
19008746198
19008751386
19008759076
19008764447
19008772626
19008777936
19008785565
19008791852
19008799298
19008805402
19008812482
19008818341
19008824140
19008829999
19008837201
19008846234
19008851727
19008858991
19008864178
19008872784
19008878155
19008887982
19008895062
19008902386
19008912335
19008918622
19008925091
19008933819
19008940838
19008949017
19008958111
19008966229
19008972943
19008979107
19008985394
19008992779
19008999005
19009007061
19009012738
19009018780
19009026776
19009032940
19009038861
19009046307
19009051983
19009058880
19009065960
19009072613
19009078350
19009084576
19009091778
19009097393
19009104656
19009111981
19009119061
19009124493
19009132488
19009138958
19009146832
19009152874
19009160809
19009168560
19009174358
19009182842
19009189983
19009194744
19009203106
19009209515
19009217937
19009226116
19009231670
19009239971
19009247051
19009253887
19009261028
19009266155
19009274029
19009281902
19009288921
19009294109
19009301983
19009309429
19009317058
19009322795
19009331401
19009339763
19009347332
19009352520
19009361370
19009369060
19009376140
19009384502
19009391216
19009398845
19009405376
19009411785
19009421672
19009427593
19009434978
19009442485
19009450176
19009461162
19009468608
19009474590
19009483989
19009490092
19009497295
19009503886
19009511516
19009517131
19009526286
19009531474
19009540446
19009548015
19009554545
19009561564
19009568034
19009576091
19009581584
19009589030
19009595012
19009600627
19009609416
19009616618
19009623027
19009630595
19009638407
19009644816
19009654032
19009660136
19009667460
19009674967
19009680339
19009687235
19009693461
19009700602
19009705790
19009712565
19009717875
19009724772
19009731364
19009737589
19009743754
19009750590
19009756693
19009763407
19009769511
19009776591
19009783060
19009788859
19009796366
19009801798
19009807658
19009814127
19009819803
19009827921
19009834696
19009840189
19009845743
19009851603
19009858072
19009863566
19009869425
19009875406
19009882181
19009887858
19009893351
19009900065
19009904398
19009911112
19009918070
19009923990
19009928934
19009935404
19009942057
19009946817
19009954813
19009959268
19009966837
19009972635
19009978494
19009985086
19009991556
19009996683
19010003580
19010011392
19010017191
19010022684
19010029031
19010033914
19010039652
19010045999
19010053812
19010059915
19010065347
19010071756
19010079446
19010085062
19010091959
19010099405
19010104471
19010111734
19010119058
19010125467
19010131753
19010138101
19010145975
19010153482
19010159036
19010166482
19010173196
19010179788
19010185769
19010191995
19010201211
19010211526
19010218850
19010225930
19010234048
19010239907
19010248086
19010256021
19010265420
19010271401
19010277627
19010282510
19010290139
19010297646
19010304360
19010310952
19010318887
19010324929
19010331155
19010337197
19010344888
19010351907
19010357583
19010364236
19010371499
19010377908
19010383950
19010390176
19010397805
19010404580
19010411660
19010418557
19010425881
19010431862
19010439858
19010447671
19010453286
19010464882
19010473549
19010480141
19010489846
19010499184
19010505898
19010515480
19010525246
19010535012
19010541848
19010549416
19010555825
19010562355
19010568703
19010576149
19010582253
19010588295
19010595986
19010602272
19010608009
19010615151
19010620888
19010628395
19010635963
19010640968
19010648232
19010655006
19010662514
19010667335
19010675026
19010682960
19010688454
19010696510
19010701942
19010711098
19010716408
19010723671
19010731056
19010737160
19010744118
19010750221
19010756019
19010762123
19010768654
19010775062
19010782447
19010789161
19010795631
19010803810
19010810157
19010815651
19010821876
19010830543
19010838417
19010844398
19010851722
19010858009
19010865821
19010874671
19010879615
19010889320
19010898353
19010903907
19010914954
19010925636
19010931434
19010940040
19010946815
19010954139
19010961646
19010966834
19010976234
19010983802
19010991126
19010997779
19011006080
19011012122
19011019141
19011025062
19011031104
19011038306
19011046058
19011053565
19011060279
19011067420
19011073645
19011080787
19011089026
19011094092
19011101905
19011110022
19011115393
19011124610
19011129981
19011139563
19011147132
19011153662
19011159278
19011167945
19011173926
19011182471
19011188696
19011198401
19011204382
19011212561
19011218421
19011225501
19011234229
19011241553
19011249731
19011254309
19011262061
19011267798
19011274878
19011281042
19011287817
19011293066
19011299902
19011306921
19011311621
19011318701
19011323401
19011332922
19011338843
19011345190
19011352270
19011358618
19011364843
19011371496
19011378210
19011384619
19011391760
19011398169
19011403723
19011411169
19011416052
19011423925
19011431066
19011436804
19011444067
19011449804
19011457311
19011462438
19011468054
19011474829
19011482519
19011488683
19011494604
19011500341
19011507543
19011513891
19011521093
19011526708
19011534521
19011540990
19011545934
19011553747
19011559118
19011565649
19011573034
19011582006
19011590063
19011594945
19011601171
19011606908
19011612951
19011620031
19011625219
19011630895
19011636388
19011642919
19011648839
19011654943
19011661657
19011667577
19011674352
19011678746
19011685216
19011692235
19011698888
19011704259
19011708654
19011716649
19011722203
19011728002
19011734593
19011740453
19011746312
19011751927
19011758824
19011765172
19011770543
19011777135
19011784154
19011788671
19011794408
19011801671
19011810216
19011816869
19011823094
19011828771
19011834996
19011842015
19011848119
19011853612
19011861302
19011866978
19011874608
19011879307
19011886998
19011892857
19011900609
19011906407
19011913487
19011919407
19011926549
19011932896
19011938878
19011946629
19011953526
19011959446
19011966649
19011973729
19011978733
19011985203
19011992283
19011999363
19012006077
19012012669
19012017674
19012025608
19012033177
19012039585
19012045567
19012053562
19012060276
19012067234
19012074009
19012080357
19012086033
19012093723
19012099583
19012107212
19012117710
19012130833
19012142307
19012153904
19012164768
19012173069
19012181553
19012188999
19012198154
19012205112
19012213230
19012220920
19012227939
19012235447
19012243992
19012250156
19012256687
19012264011
19012270298
19012275974
19012283176
19012291111
19012297641
19012303623
19012311924
19012318027
19012323276
19012331211
19012337802
19012344821
19012352390
19012357273
19012365085
19012370090
19012378513
19012383579
19012394443
19012400058
19012407687
19012413059
19012420749
19012426669
19012434604
19012441867
19012447849
19012455356
19012461093
19012467258
19012474460
19012479526
19012486667
19012494784
19012499728
19012505649
19012512973
19012520907
19012526278
19012534030
19012539218
19012545627
19012553805
19012561313
19012566440
19012575168
19012580722
19012589755
19012595065
19012602816
19012610141
19012617404
19012625766
19012632968
19012638827
19012645846
19012652438
19012661166
19012668063
19012675570
19012683383
19012691134
19012699313
19012706759
19012716097
19012723849
19012732516
19012739596
19012746127
19012755343
19012761507
19012770174
19012776705
19012785616
19012794222
19012800448
19012807833
19012816439
19012822359
19012831637
19012837008
19012848787
19012859469
19012873507
19012878756
19012891085
19012899935
19012907564
19012913362
19012923311
19012928987
19012939485
19012945955
19012952303
19012959871
19012967378
19012975618
19012981966
19012990816
19012993990
19013004244
19013009004
19013017244
19013022249
19013030306
19013036836
19013042696
19013049043
19013056490
19013061983
19013068208
19013074251
19013082368
19013088472
19013093904
19013100679
19013108125
19013115205
19013119539
19013124544
19013131257
19013137422
19013142061
19013148042
19013154817
19013159639
19013166291
19013174043
19013180207
19013186433
19013192292
19013200288
19013205598
19013212129
19013219209
19013224580
19013230805
19013235932
19013242097
19013248078
19013252900
19013257722
19013262483
19013268647
19013274751
19013279145
19013285249
19013292268
19013298066
19013304414
19013310151
19013314668
19013320405
19013326691
19013332124
19013338593
19013343598
19013349763
19013361420
19013368317
19013374421
19013380402
19013386201
19013391938
19013397431
19013402802
19013407990
19013414155
19013419709
19013424164
19013431672
19013435822
19013445099
19013451081
19013457917
19013465485
19013471466
19013479035
19013488007
19013495087
19013501374
19013509980
19013515839
19013520844
19013527924
19013534210
19013540070
19013546479
19013553436
19013560700
19013567536
19013573578
19013580292
19013587921
19013594757
19013601654
19013606354
19013613373
19013618805
19013625702
19013630402
19013638580
19013643280
19013650360
19013658112
19013664093
19013670807
19013678680
19013684601
19013690277
19013696625
19013701874
19013709137
19013713959
19013721283
19013725189
19013732452
19013738006
19013743561
19013751556
19013758087
19013763824
19013772003
19013777496
19013782867
19013788665
19013796173
19013802581
19013808868
19013814849
19013819854
19013826446
19013831451
19013838531
19013846282
19013853179
19013860809
19013867523
19013874297
19013880706
19013888213
19013894073
19013901946
19013907623
19013914092
19013921050
19013926299
19013933746
19013940887
19013948760
19013954986
19013961700
19013967681
19013972869
19013980865
19013986785
19013994414
19014004058
19014011321
19014017302
19014023589
19014030120
19014037017
19014042998
19014050933
19014057586
19014065154
19014073455
19014080413
19014088530
19014095610
19014100737
19014108733
19014116851
19014123748
19014131011
19014137480
19014146514
19014154204
19014161711
19014167693
19014175017
19014180876
19014187529
19014195769
19014202910
19014210539
19014217864
19014224944
19014230986
19014235869
19014243864
19014249113
19014255705
19014262968
19014269682
19014275542
19014284086
19014291350
19014298247
19014304167
19014311918
19014319609
19014326689
19014334684
19014341520
19014347685
19014354460
19014359831
19014368071
19014376249
19014383635
19014389433
19014395536
19014404081
19014412016
19014419645
19014427091
19014432463
19014439726
19014448393
19014454862
19014462980
19014470426
19014476408
19014483122
19014491850
19014499235
19014508207
19014515104
19014522001
19014530302
19014537077
19014542692
19014551969
19014558561
19014565946
19014573575
19014581327
19014588163
19014597501
19014604398
19014611844
19014619413
19014626859
19014635221
19014643155
19014650113
19014657499
19014663419
19014671476
19014677884
19014688749
19014695523
19014703275
19014710843
19014718167
19014725186
19014731717
19014736661
19014743497
19014750577
19014756558
19014761380
19014768277
19014773160
19014783475
19014789884
19014800137
19014808804
19014813992
19014821805
19014828214
19014834683
19014841336
19014849149
19014855252
19014861783
19014868741
19014876614
19014882535
19014890225
19014896695
19014903409
19014908902
19014916409
19014923733
19014930630
19014936673
19014943509
19014951138
19014957791
19014964810
19014972439
19014978421
19014985073
19014989956
19014996426
19015003140
19015008389
19015015103
19015020901
19015026821
19015032131
19015037808
19015045010
19015050686
19015058987
19015066067
19015072598
19015077419
19015083645
19015089871
19015096706
19015101772
19015108120
19015113918
19015119839
19015125149
19015131496
19015136929
19015143764
19015149746
19015155910
19015161343
19015167019
19015173855
19015179958
19015186916
19015192043
19015198757
19015205288
19015211269
19015216945
19015223720
19015229519
19015236110
19015241787
19015247707
19015253322
19015258999
19015264675
19015271083
19015278102
19015282680
19015289943
19015296474
19015302150
19015309047
19015314601
19015322170
19015328334
19015336147
19015342067
19015348598
19015359279
19015368312
19015379054
19015386562
19015396510
19015405055
19015414882
19015422145
19015432948
19015442775
19015460353
19015473170
19015483668
19015492213
19015501552
19015512477
19015522792
19015532435
19015542994
19015552455
19015561122
19015571620
19015580531
19015590968
19015599086
19015607814
19015616603
19015624049
19015632350
19015641993
19015650355
19015657740
19015667872
19015675868
19015684290
19015693873
19015704798
19015715418
19015725001
19015733424
19015741358
19015749781
19015758143
19015766382
19015774683
19015783045
19015790858
19015799158
19015805811
19015816065
19015822474
19015830835
19015838587
19015849207
19015855188
19015865442
19015872644
19015881983
19015889124
19015898584
19015907190
19015913904
19015925806
19015933252
19015941553
19015950220
19015958460
19015968469
19015976343
19015985193
19015994775
19016000147
19016009607
19016017480
19016027734
19016034814
19016044397
19016053735
19016060327
19016070337
19016077661
19016087976
19016095605
19016105371
19016113733
19016121301
19016129052
19016138818
19016147851
19016154443
19016165612
19016174585
19016183007
19016191186
19016199487
19016209191
19016225915
19016235620
19016246972
19016252831
19016261865
19016271325
19016278771
19016289025
19016299950
19016309655
19016317895
19016330834
19016339440
19016347802
19016358788
19016368798
19016377892
19016386559
19016395836
19016405846
19016414940
19016424767
19016432580
19016442284
19016450829
19016459984
19016467064
19016477562
19016491295
19016501549
19016510094
19016520836
19016530907
19016539513
19016549523
19016557945
19016568321
19016577904
19016588524
19016597435
19016605736
19016617027
19016627953
19016635765
19016645775
19016655723
19016666405
19016676231
19016685264
19016696007
19016704979
19016715416
19016724449
19016736168
19016744224
19016753074
19016763572
19016773399
19016782737
19016792686
19016802818
19016811424
19016821739
