19088946005
19088951620
19088956625
19088961569
19088966757
19088972799
19088980551
19088986288
19088991964
19088997579
19089002584
19089008505
19089016439
19089022176
19089026571
19089034628
19089039144
19089045919
19089052572
19089058981
19089065572
19089070333
19089078268
19089084432
19089092611
19089098470
19089104452
19089111776
19089118123
19089125387
19089134298
19089140401
19089147786
19089154378
19089163656
19089169942
19089174276
19089185018
19089193929
19089200887
19089208272
19089215047
19089223531
19089230855
19089239095
19089245992
19089252522
19089258748
19089266255
19089278890
19089290425
19089298909
19089305684
19089315205
19089327473
19089335103
19089342122
19089349934
19089357198
19089365193
19089372822
19089381062
19089388508
19089395772
19089404439
19089412373
19089422810
19089431965
19089437764
19089444478
19089449910
19089458210
19089462605
19089471028
19089477070
19089485432
19089489827
19089499348
19089503743
19089513264
19089517720
19089526020
19089533039
19089541584
19089545918
19089555317
19089561787
19089568867
19089574848
19089581928
19089590351
19089598896
19089606464
19089613117
19089620564
19089626606
19089635944
19089642414
19089651691
19089658405
19089668354
19089676716
19089684284
19089692829
19089702595
19089715717
19089723957
19089735309
19089746601
19089755207
19089765583
19089773639
19089788654
19089803119
19089813007
19089823078
19089833576
19089842304
19089853107
19089864154
19089876972
19089886127
19089894733
19089902545
19089913043
19089924701
19089935199
19089945270
19089953448
19089965900
19089975604
19089986346
19089991778
19090006122
19090012225
19090025409
19090037494
19090048968
19090061725
19090073382
19090084369
19090095172
19090103167
19090116595
19090125628
19090137103
19090145831
19090158465
19090171221
19090178912
19090190447
19090201251
19090212420
19090221636
19090234209
19090244402
19090254046
19090264239
19090275042
19090284319
19090295489
19090307085
19090312578
19090327532
19090335955
19090345476
19090356402
19090367144
19090378923
19090385149
19090398088
19090407610
19090421404
19090431108
19090441912
19090455034
19090467424
19090476946
19090487077
19090497514
19090510027
19090519121
19090532549
19090542863
19090553178
19090562883
19090571001
19090582780
19090590471
19090604387
19090613847
19090623308
19090635331
19090645891
19090655717
19090668412
19090678422
19090688920
19090698869
19090707536
19090717301
19090729875
19090739213
19090750871
19090759904
19090769547
19090781693
19090792436
19090802934
19090811234
19090821976
19090832841
19090841996
19090853226
19090864579
19090874894
19090884781
19090896561
19090906815
19090917313
19090927933
19090937638
19090948014
19090958634
19090969864
19090979813
19090990982
19091000809
19091011246
19091022232
19091033219
19091043411
19091053482
19091065262
19091076615
19091087235
19091097611
19091108353
19091118423
19091129227
19091139847
19091149063
19091159317
19091170120
19091180435
19091187149
19091201431
19091207351
19091221145
19091230545
19091242813
19091252700
19091262893
19091273269
19091283523
19091294998
19091305740
19091315811
19091324356
19091336318
19091344985
19091357681
19091368057
19091378249
19091387771
19091397475
19091407424
19091417251
19091429946
19091440627
19091449233
19091455886
19091465407
19091469558
19091479507
19091485732
19091493239
19091501113
19091509475
19091516677
19091522841
19091530654
19091538161
19091545302
19091553664
19091562819
19091572646
19091578749
19091587905
19091595168
19091603224
19091611281
19091621047
19091628249
19091636916
19091644423
19091652602
19091659621
19091667311
19091675551
19091682570
19091688979
19091697157
19091704115
19091713332
19091717543
19091729811
19091737624
19091747572
19091754957
19091762282
19091768873
19091778517
19091786024
19091794142
19091802565
19091810927
19091819899
19091825819
19091837233
19091844069
19091853529
19091866224
19091873060
19091883070
19091890699
19091902906
19091910719
19091918653
19091926344
19091935560
19091943922
19091950880
19091960035
19091967787
19091974806
19091981580
19091987074
19091994886
19091999830
19092008131
19092015821
19092022169
19092027296
19092033155
19092039808
19092046033
19092053968
19092061414
19092067640
19092074476
19092080884
19092087293
19092091871
19092099561
19092104871
19092113172
19092116407
19092125745
19092131788
19092137708
19092145520
19092150464
19092159009
19092165479
19092171521
19092178540
19092183789
19092191114
19092198804
19092205396
19092213269
19092220349
19092226270
19092230725
19092238660
19092247754
19092255567
19092261731
19092265271
19092275464
19092282117
19092289441
19092297864
19092301831
19092310193
19092318188
19092324658
19092333020
19092338818
19092348157
19092352551
19092362683
19092369092
19092375561
19092383557
19092391675
19092400281
19092404431
19092412976
19092420361
19092427319
19092435376
19092444226
19092454480
19092463269
19092470654
19092477429
19092483349
19092491955
19092500744
19092509106
19092514355
19092522228
19092528332
19092536083
19092542126
19092550366
19092557690
19092563976
19092571362
19092578503
19092585766
19092591564
19092599926
19092606030
19092614513
19092621044
19092627758
19092633800
19092642528
19092650280
19092658153
19092667187
19092673412
19092682079
19092688183
19092695995
19092702282
19092710766
19092719005
19092726513
19092734325
19092740673
19092748668
19092753795
19092763988
19092773143
19092779186
19092788463
19092796642
19092803722
19092811290
19092817211
19092827892
19092831920
19092841075
19092849071
19092856761
19092863292
19092872691
19092883739
19092888561
19092898875
19092907115
19092915172
19092921153
19092929393
19092939769
19092947826
19092955028
19092960033
19092970531
19092977366
19092986156
19092993602
19093002208
19093009105
19093016124
19093023692
19093032176
19093039927
19093047374
19093055186
19093062449
19093068614
19093077403
19093083201
19093094065
19093102061
19093109690
19093117686
19093124278
19093132945
19093141368
19093151316
19093161387
19093169077
19093177439
19093186045
19093193613
19093200449
19093209544
19093217966
19093225169
19093229807
19093236460
19093242197
19093248606
19093254526
19093261423
19093268503
19093272837
19093279734
19093286509
19093292551
19093297373
19093305552
19093312388
19093318308
19093323679
19093329599
19093335276
19093339975
19093348703
19093355600
19093360239
19093368357
19093375193
19093381296
19093387155
19093391855
19093400095
19093406320
19093410898
19093417612
19093424448
19093432260
19093438425
19093443186
19093450266
19093455637
19093461923
19093469675
19093475534
19093481455
19093487253
19093492014
19093498972
19093504648
19093511240
19093517709
19093522409
19093528757
19093535226
19093540658
19093547250
19093552499
19093558908
19093564096
19093570566
19093575693
19093582590
19093588754
19093594125
19093599191
19093606515
19093611947
19093618478
19093622567
19093631662
19093636972
19093645089
19093651437
19093656015
19093662728
19093669809
19093675485
19093684274
19093690621
19093695993
19093702340
19093708383
19093719003
19093726998
19093730783
19093739266
19093747262
19093753060
19093760446
19093766244
19093774178
19093779061
19093786385
19093792977
19093799386
19093805550
19093814339
19093819772
19093826546
19093833688
19093839425
19093845589
19093853402
19093858346
19093867562
19093874093
19093880746
19093886849
19093892708
19093898873
19093905770
19093913033
19093919198
19093923775
19093932808
19093938851
19093944588
19093953560
19093959298
19093965218
19093971993
19093977059
19093985726
19093991158
19094001595
19094009896
19094015694
19094022957
19094029732
19094038094
19094044136
19094049446
19094057259
19094063851
19094071663
19094078865
19094084541
19094094002
19094100716
19094105965
19094113838
19094120796
19094127022
19094132820
19094139595
19094146675
19094152779
19094159065
19094166817
19094174202
19094180549
19094186409
19094192940
19094200264
19094206489
19094214302
19094221809
19094229194
19094235176
19094243232
19094250801
19094258796
19094266548
19094273384
19094282722
19094291267
19094298896
19094305915
19094312263
19094319160
19094325019
19094333381
19094337837
19094345954
19094352851
19094359260
19094365608
19094374213
19094381538
19094386970
19094394599
19094402473
19094409431
19094416022
19094425788
19094433784
19094440559
19094444953
19094454108
19094461616
19094469550
19094476569
19094483832
19094491401
19094496894
19094504340
19094512397
19094519477
19094526069
19094534125
19094540168
19094548102
19094554267
19094564032
19094568610
19094578437
19094583380
19094593756
19094601813
19094609564
19094614386
19094625250
19094633307
19094639166
19094647711
19094655890
19094661444
19094670783
19094678717
19094684882
19094692572
19094700873
19094705695
19094715704
19094723090
19094731268
19094736029
19094745123
19094751715
19094759894
19094766974
19094775336
19094781866
19094791021
19094797552
19094804999
19094811041
19094818609
19094826971
19094834967
19094840521
19094848761
19094854315
19094861700
19094868963
19094875250
19094880560
19094887091
19094894171
19094900518
19094906622
19094914495
19094920294
19094926580
19094934271
19094941290
19094950079
19094957464
19094962530
19094971441
19094976446
19094984197
19094991766
19094998174
19095005743
19095011175
19095019292
19095025152
19095030340
19095037969
19095044622
19095050970
19095055486
19095062566
19095068792
19095075811
19095080877
19095087224
19095095220
19095100835
19095108648
19095115239
19095121221
19095127446
19095134465
19095141729
19095146550
19095153203
19095158574
19095166326
19095172551
19095178533
19095184758
19095190496
19095196599
19095202825
19095208318
19095214543
19095220464
19095225530
19095234258
19095240361
19095245976
19095252263
19095258305
19095263493
19095269902
19095276311
19095281804
19095288030
19095294743
19095300725
19095307805
19095312321
19095318913
19095325139
19095332036
19095337468
19095346440
19095352910
19095359563
19095365910
19095373601
19095379094
19095384160
19095392582
19095399663
19095405949
19095411747
19095418400
19095425602
19095432621
19095439091
19095444584
19095452763
19095458561
19095466313
19095471928
19095479924
19095485539
19095492985
19095498600
19095507817
19095515019
19095521733
19095529484
19095536198
19095544377
19095550297
19095557987
19095570133
19095576908
19095584476
19095592472
19095599430
19095607731
19095616032
19095626102
19095633610
19095639652
19095645023
19095653690
19095661625
19095668705
19095674442
19095680607
19095687198
19095692020
19095699344
19095706485
19095713321
19095718876
19095725101
19095732486
19095738834
19095743900
19095751346
19095758060
19095764774
19095771122
19095775943
19095783206
19095787906
19095795841
19095801151
19095809574
19095815738
19095822025
19095828006
19095834110
19095840946
19095847354
19095853397
19095859988
19095866092
19095872745
19095879276
19095886295
19095891971
19095898746
19095904605
19095909976
19095917300
19095923038
19095931216
19095938235
19095943057
19095948367
19095956729
19095962588
19095969180
19095977054
19095982242
19095988894
19095996341
19096004336
19096010196
19096018191
19096024356
19096032657
19096039798
19096045413
19096052432
19096059573
19096064517
19096072146
19096079287
19096086001
19096091189
19096098330
19096106021
19096112002
19096118899
19096125796
19096132510
19096139956
19096145449
19096153628
19096160220
19096172488
19096183474
19096191897
19096203371
19096210451
19096221926
19096232790
19096239992
19096247744
19096255984
19096263979
19096269900
19096277712
19096286196
19096292544
19096299318
19096308840
19096315859
19096323000
19096329958
19096338259
19096342409
19096352236
19096357241
19096365663
19096370668
19096379091
19096387087
19096394228
19096401613
19096409303
19096417726
19096424196
19096433473
19096439333
19096447145
19096455141
19096463442
19096472719
19096479860
19096486391
19096496645
19096502565
19096512514
19096518861
19096526979
19096534914
19096541017
19096548402
19096554933
19096562257
19096569459
19096578065
19096584291
19096591981
19096598695
19096605226
19096611573
19096619935
19096626344
19096633485
19096639772
19096645997
19096652711
19096659120
19096666688
19096673890
19096679750
19096684632
19096692079
19096697816
19096704347
19096712281
19096717225
19096725526
19096729737
19096736878
19096743287
19096749329
19096757569
19096762635
19096769715
19096776856
19096782533
19096788148
19096794068
19096800416
19096804932
19096812623
19096818055
19096824097
19096830628
19096837525
19096845826
19096851014
19096858826
19096865479
19096871644
19096878480
19096882996
19096890259
19096897034
19096904603
19096909546
19096916138
19096922913
19096928467
19096935364
19096941162
19096949829
19096956421
19096962708
19096967591
19096975220
19096981262
19096989136
19096995789
19097002625
19097009949
19097016907
19097023987
19097030579
19097036560
19097043945
19097049927
19097057007
19097061523
19097068970
19097074097
19097082275
19097087219
19097094849
19097098450
19097106323
19097111999
19097118347
19097125122
19097131103
19097137695
19097144531
19097152527
19097159607
19097165649
19097171264
19097179321
19097187072
19097193481
19097200073
19097205627
19097211181
19097219238
19097223205
19097231994
19097238159
19097244751
19097251892
19097258422
19097265197
19097271789
19097278747
19097284179
19097291564
19097298828
19097305847
19097311584
19097319030
19097324523
19097334594
19097341064
19097348022
19097355102
19097362487
19097369262
19097376525
19097382384
19097390624
19097395690
19097402282
19097408385
19097415282
19097423278
19097430541
19097437133
19097445373
19097451842
19097457885
19097465636
19097471312
19097479857
19097489867
19097495299
19097503173
19097512511
19097520629
19097525817
19097534728
19097540221
19097547911
19097553466
19097560424
19097565978
19097573546
19097579100
19097587401
19097591612
19097601012
19097607237
19097613768
19097621092
19097626402
19097633238
19097640074
19097647887
19097652953
19097659789
19097667052
19097673644
19097680663
19097687254
19097693053
19097701109
19097707457
19097713744
19097719420
19097727049
19097733702
19097740294
19097747496
19097754576
19097760069
19097768309
19097775999
19097783140
19097789610
19097796751
19097802733
19097809813
19097817381
19097824522
19097830931
19097838133
19097845823
19097853086
19097859739
19097867491
19097873594
19097880796
19097887571
19097894712
19097901670
19097909239
19097915708
19097923399
19097930601
19097938474
19097946714
19097954527
19097960630
19097968687
19097976438
19097982786
19097991026
19097999082
19098007688
19098013975
19098021604
19098029600
19098037534
19098043699
19098052610
19098058652
19098067136
19098072934
19098080259
19098088620
19098093137
19098104123
19098108945
19098118894
19098124021
19098134641
19098143125
19098151303
19098160886
19098167173
19098172116
19098182920
19098187863
19098199399
19098204099
19098219235
19098229855
19098236997
19098243894
19098251462
19098259030
19098263547
19098272946
19098279294
19098284238
19098291806
19098296384
19098299985
19098307980
19098312680
19098320187
19098325680
19098331601
19098337521
19098344052
19098350949
19098355588
19098363461
19098368527
19098373654
19098380124
19098386288
19098391293
19098397091
19098402035
19098408261
19098413327
19098419857
19098424923
19098430722
19098435849
19098443478
19098447262
19098455807
19098459530
19098467648
19098471920
19098479550
19098486019
19098492977
19098496700
19098504330
19098510739
19098515316
19098521359
19098527279
19098532650
19098538693
19098544064
19098550533
19098556942
19098561459
19098567440
19098573177
19098579098
19098585690
19098593075
19098599056
19098604977
19098609615
19098615169
19098620663
19098626278
19098632992
19098639034
19098644527
19098649471
19098656612
19098662655
19098669246
19098672786
19098680477
19098686886
19098692318
19098697261
19098702877
19098708980
19098713802
19098722713
19098727657
19098736995
19098743770
19098749263
19098757564
19098763179
19098773189
19098779109
19098785396
19098791500
19098801509
19098806270
19098813594
19098819148
19098825679
19098830867
19098838496
19098842281
19098849605
19098855769
19098862849
19098868892
19098875301
19098881526
19098887996
19098893550
19098900325
19098906123
19098912593
19098918880
19098925044
19098932490
19098937739
19098943904
19098948665
19098956599
19098962520
19098969539
19098975093
19098983943
19098990657
19098997126
19099002986
19099010127
19099015376
19099023005
19099026973
19099036250
19099040644
19099049311
19099055415
19099063410
19099070552
19099076228
19099081660
19099088313
19099094355
19099099604
19099105769
19099111262
19099119990
19099123957
19099131953
19099137873
19099144465
19099148310
19099155695
19099161860
19099168513
19099172297
19099179682
19099186396
19099191218
19099197687
19099204706
19099211420
19099216547
19099223566
19099230158
19099235590
19099242182
19099248835
19099253657
19099259943
19099266474
19099271784
19099276484
19099283930
19099288569
19099296320
19099301874
19099308161
19099313654
19099320856
19099327143
19099335382
19099342096
19099351862
19099358393
19099365473
19099372553
19099380609
19099384882
19099394892
19099399042
19099408869
19099416803
19099423456
19099429559
19099434198
19099440851
19099445673
19099453607
19099459894
19099466364
19099473993
19099480768
19099485895
19099493951
19099499750
19099507684
19099513849
19099520807
19099527215
19099535211
19099542047
19099549615
19099555414
19099563836
19099572137
19099578485
19099586541
19099592218
19099600091
19099606561
19099612420
19099620050
19099626336
19099634210
19099642450
19099649469
19099655450
19099663507
19099669183
19099678277
19099684014
19099691949
19099698602
19099706414
19099714593
19099722588
19099728387
19099736993
19099746636
19099754937
19099760857
19099768060
19099776482
19099782525
19099791558
19099796380
19099808160
19099816827
19099822686
19099826836
19099837151
19099844109
19099851311
19099855584
19099865838
19099873162
19099880913
19099889275
19099897271
19099903923
19099909539
19099915581
19099925225
19099932549
19099939751
19099947075
19099952874
19099958977
19099967278
19099973747
19099982598
19099989311
19099995110
19099999932
19100005791
19100012016
19100017754
19100023247
19100029656
19100037834
19100043266
19100051323
19100056816
19100063225
19100068657
19100079399
19100086418
19100092461
19100097343
19100103142
19100109062
19100115532
19100121818
19100128776
19100136833
19100142082
19100148491
19100153312
19100159172
19100165397
19100171196
19100176201
19100183342
19100188408
19100194145
19100199699
19100204948
19100210197
19100218864
19100223869
19100229667
19100235221
19100240104
19100246818
19100251457
19100259452
19100264945
19100271537
19100276969
19100282279
19100287956
19100293937
19100300407
19100306388
19100312003
19100316825
19100323295
19100328117
19100333976
19100338432
19100347099
19100352226
19100358024
19100364677
19100368949
19100375663
19100381644
19100387138
19100394096
19100399711
19100405204
19100412467
19100416740
19100423698
19100429862
19100437980
19100442985
19100448905
19100455253
19100459830
19100466666
19100471915
19100478385
19100484427
19100489982
19100497245
19100501944
19100509513
19100514151
19100522879
19100528861
19100535697
19100542899
19100548270
19100553397
19100560599
19100566519
19100574332
19100580741
19100586783
19100593375
19100599417
19100604422
19100613028
19100620596
19100628104
19100634634
19100640311
19100646353
19100653983
19100661978
19100667899
19100676993
19100682120
19100690237
19100697562
19100702261
19100709219
19100715262
19100722708
19100730093
19100736319
19100741446
19100748404
19100753470
19100760183
19100765310
19100773123
19100778555
19100786734
19100792959
19100799612
19100806021
19100812857
19100819387
19100826040
19100833364
19100840322
19100847158
19100852163
19100859854
19100864858
19100874258
19100880117
19100887502
19100892507
19100899587
19100905325
19100910391
19100915457
19100924734
19100929067
19100935476
19100942739
19100948782
19100954641
19100960683
19100966665
19100973623
19100980520
19100985036
19100992483
19100996938
19101004812
19101009817
19101015676
19101022573
19101029226
19101036977
19101042409
19101050283
19101056081
19101062124
19101070669
19101077810
19101084829
19101092092
19101098745
19101102651
19101112600
19101120290
19101128347
19101135793
19101143788
19101150746
19101156545
19101165639
19101171865
19101178578
19101187184
19101193959
19101200490
19101208486
19101216054
19101223500
19101231374
19101239858
19101244862
19101254689
19101259877
19101271230
19101279958
19101285756
19101294179
19101303700
19101310414
19101317189
19101326222
19101337025
19101344410
19101352894
19101360707
19101367787
19101373768
19101381031
19101388478
19101394764
19101400074
19101407338
19101412648
19101420094
19101425587
19101434498
19101440296
19101447071
19101452442
19101460316
19101465626
19101472828
19101478810
19101487538
19101495716
19101504017
19101510426
19101517872
19101524098
19101531727
19101539784
19101549915
19101555775
19101563587
19101571033
19101577930
19101586842
19101593494
19101600696
19101608143
19101614063
19101621876
19101629627
19101634754
19101644581
19101652149
19101659107
19101664356
19101670704
19101677845
19101682972
19101689258
19101695667
19101703662
19101708606
19101715381
19101721851
19101727954
19101732593
19101739917
19101747241
19101753162
19101760059
19101765796
19101770618
19101777271
19101782703
19101790698
19101795581
19101801318
19101807361
19101813037
19101818286
19101824024
19101831104
19101837573
19101844836
19101849902
19101856067
19101861316
19101868701
19101874133
19101881885
19101888049
19101895373
19101902026
19101908679
19101914966
19101921741
19101930896
19101936572
19101945239
19101949267
19101958178
19101965442
19101971057
19101976855
19101983813
19101991137
19101996630
19102003283
19102010119
19102015551
19102021350
19102027148
19102033129
19102039050
19102043994
19102049792
19102055957
19102060473
19102067126
19102071704
19102078845
19102085375
19102090502
19102095751
19102101000
19102108264
19102114672
19102119616
19102125658
19102131945
19102137011
19102143969
19102149584
19102156359
19102162585
19102168139
19102174670
19102180346
19102186510
19102192431
19102198595
19102204943
19102212694
19102218981
19102224840
19102230272
19102237719
19102243029
19102253832
19102259020
19102265062
19102272570
19102278612
19102284349
19102290941
19102297716
19102305162
19102311388
19102318224
19102324449
19102329760
19102337877
19102343370
19102352465
19102359117
19102365038
19102371080
19102377062
19102382860
19102389269
19102394762
19102402574
19102409960
19102416490
19102422167
19102428636
19102433946
19102440538
19102446519
19102454210
19102460069
19102465501
19102472826
19102478197
19102485338
19102490587
19102498949
19102502977
19102513475
19102519945
19102525377
19102537584
19102543626
19102552598
19102556932
19102564988
19102572252
19102578965
19102586351
19102593736
19102600999
19102609727
19102616258
19102623399
19102629624
19102635545
19102642381
19102647874
19102656541
19102660813
19102669602
19102677354
19102684556
19102690598
19102697007
19102707383
19102713364
19102720628
19102728135
19102735276
19102741929
19102748643
19102756028
19102763413
19102769639
19102776597
19102783433
19102789963
19102796555
19102803330
19102811020
19102818467
19102823899
19102832139
19102837998
19102846116
19102854477
19102864792
19102874924
19102882615
19102890854
19102897019
19102906418
19102913071
19102920578
19102928879
19102934922
19102942673
19102950852
19102958481
19102966294
19102972885
19102982773
19102989853
19102997910
19103007614
19103015610
19103023300
19103031052
19103038742
19103046494
19103054855
19103064194
19103072494
19103080673
19103088669
19103096725
19103105881
19103114059
19103121445
19103129135
19103133957
19103143905
19103148788
19103158676
19103163986
19103173996
19103182357
19103190841
19103199874
19103207687
19103215927
19103223007
19103231246
19103239852
19103247238
19103257919
19103264511
19103271896
19103279037
19103285812
19103293807
19103301559
19103309982
19103317611
19103324325
19103331710
19103338363
19103348128
19103355758
19103362960
19103369796
19103376021
19103381332
19103387313
19103395980
19103400924
19103408370
19103417159
19103426436
19103434188
19103439132
19103446883
19103455489
19103462569
19103468856
19103475997
19103479903
19103490950
19103496993
19103504805
19103512007
19103515853
19103525435
19103531844
19103536910
19103544051
19103548934
19103555281
19103562239
19103569563
19103575423
19103583235
19103588423
19103597518
19103603194
19103610457
19103616805
19103621687
19103628889
19103634627
19103640791
19103646529
19103652815
19103659651
19103665999
19103670454
19103676192
19103682417
19103687239
19103693892
19103699202
19103706831
19103710371
19103717146
19103722517
19103729048
19103735029
19103740339
19103745344
19103750959
19103757429
19103762312
19103769514
19103775801
19103781538
19103786726
19103794172
19103800764
19103806868
19103812666
19103819380
19103826277
19103831770
19103841596
19103847456
19103853987
19103861555
19103868635
19103873396
19103879133
19103885603
19103892317
19103899030
19103904157
19103911909
19103916670
19103923200
19103928144
19103935835
19103942670
19103948713
19103955122
19103962080
19103966108
19103973493
19103980390
19103985517
19103991865
19103998823
19104002668
19104013044
19104020185
19104027265
19104033796
19104040693
19104048139
19104053571
19104061139
19104068341
19104074750
19104080060
19104086591
19104091840
19104097760
19104103009
19104110334
19104115522
19104121381
19104126691
19104133527
19104139569
19104145246
19104150556
19104157636
19104161603
19104170392
19104175031
19104183270
19104187482
19104195844
19104202069
19104207074
19104213605
19104219769
19104224835
19104231122
19104237531
19104243634
19104249860
19104255231
19104261945
19104268780
19104275799
19104283002
19104290631
19104295758
19104302472
19104307171
19104314190
19104319073
19104326581
19104331952
19104338788
19104344159
19104352154
19104358014
19104365460
19104371991
19104378582
19104382611
19104391522
19104395550
19104405865
19104413128
19104419720
19104425152
19104431805
19104438763
19104446331
19104453961
19104460003
19104465985
19104473736
19104480084
19104485394
19104492901
19104498150
19104504315
19104510174
19104519573
19104524822
19104531719
19104539288
19104544720
19104553326
19104558880
19104567425
19104573467
19104579510
19104584698
19104591228
19104598492
19104605449
19104613506
19104620342
19104626629
19104634075
19104642132
19104648479
19104656780
19104664043
19104672527
19104679363
19104685466
19104692424
19104697673
19104706157
19104713787
19104720928
19104728496
19104736186
19104743144
19104750286
19104759319
19104766521
19104774700
19104782512
19104790508
19104798381
19104804851
19104814189
19104820964
19104829021
19104836528
19104845927
19104851054
19104860454
19104867961
19104874858
19104882793
19104891093
19104898601
19104907084
19104914531
19104922587
19104930644
19104936564
19104946147
19104952739
19104960490
19104967387
19104977519
19104985209
19104991252
19104999919
19105007975
19105015605
19105022013
19105030558
19105039042
19105046549
19105053080
19105063700
19105068278
19105077982
19105083109
19105092631
19105099894
19105105265
19105114603
19105120341
19105128092
19105133952
19105141398
19105146281
19105154154
19105159830
19105166300
19105171671
19105179789
19105186259
19105192301
19105197428
19105203959
19105209696
19105216837
19105223063
19105227701
19105233805
19105239969
19105246378
19105252787
19105258951
19105265604
19105270548
19105277262
19105283670
19105290323
19105296793
19105303690
19105309549
19105314188
19105320902
19105327555
19105333353
19105339945
19105344889
19105351847
19105357523
19105363626
19105368875
19105372537
19105380533
19105386881
19105392618
19105397440
19105403970
19105410318
19105414713
19105420816
19105426797
19105431619
19105437662
19105444315
19105449564
19105456461
19105462564
19105468484
19105471841
19105478860
19105484598
19105491067
19105496805
19105502786
19105507730
19105513955
19105519571
19105526468
19105533670
19105537881
19105546670
19105553262
19105557779
19105563943
19105570169
19105576333
19105582559
19105590249
19105596719
19105603006
19105609109
19105615518
19105622781
19105628274
19105637002
19105643350
19105654336
19105660806
19105666543
19105675210
19105683389
19105691750
19105699075
19105704873
19105714211
19105718911
19105729287
19105738076
19105744179
19105753579
19105757790
19105765725
19105772072
19105779702
19105787148
19105792458
19105800393
19105806130
19105814187
19105821267
19105828408
19105835366
19105841042
19105848610
19105854958
19105862221
19105868081
19105875527
19105882302
19105889504
19105895913
19105901589
19105909462
19105916298
19105923561
19105930031
19105937172
19105944802
19105948891
19105956886
19105963417
19105970253
19105978249
19105985939
19105991798
19105997475
19106005531
19106012184
19106019142
19106025917
19106032814
19106039467
19106045204
19106052772
19106061134
19106066933
19106075477
19106082435
19106088295
19106093971
19106102272
19106109108
19106116066
19106123756
19106130714
19106136635
19106144874
19106151588
19106158973
19106165870
19106174171
19106179725
19106188209
19106194435
19106201454
19106207618
19106216468
19106221229
19106230934
19106238929
19106244544
19106252723
19106261024
19106267555
19106273719
19106282020
19106291236
19106298744
19106306983
19106313514
19106321876
19106329810
19106337196
19106344337
19106355079
19106362342
19106368507
19106378577
19106384864
19106392493
19106400794
19106406714
19106413794
19106421607
19106429480
19106437354
19106444312
19106450354
19106458960
19106465003
19106472998
19106479773
19106488013
19106495093
19106502661
19106512000
19106517981
19106524695
19106533728
19106540686
19106547644
19106557410
19106565405
19106573035
19106581091
19106587378
19106595313
19106603613
19106610999
19106619482
19106627295
19106633643
19106640662
19106647559
19106657141
19106665198
19106672644
19106681067
19106687109
19106696448
19106702551
19106710364
19106718908
19106726111
19106733496
19106743078
19106750525
19106757177
19106765539
19106774206
19106781530
19106787329
19106794897
19106802099
19106808325
19106813452
19106820715
19106826208
19106833044
19106838415
19106845983
19106849951
19106857397
19106862829
19106870519
19106876257
19106882177
19106885839
19106893041
19106899633
19106904455
19106910802
19106918188
19106921972
19106930639
19106937292
19106943944
19106949621
19106956457
19106963842
19106969213
19106976354
19106983312
19106990270
19106995580
19107002965
19107010717
19107017736
19107023412
19107029577
19107036413
19107042577
19107047277
19107053136
19107057958
19107065770
19107071630
19107077306
19107082128
19107087560
19107093419
19107099340
19107105626
19107110204
19107116246
19107122350
19107127416
19107134069
19107139867
19107145055
19107152440
19107157323
19107163609
19107168919
19107174413
19107180150
19107185765
19107191930
19107197911
19107204137
19107208897
19107215977
19107220860
19107226170
19107232152
19107239293
19107245335
19107252232
19107258092
19107265599
19107271763
19107276280
19107284398
19107289464
19107296300
19107302403
19107308446
19107315342
19107322423
19107328160
19107333592
19107341160
19107347935
19107354649
19107361546
19107368809
19107376438
19107380650
19107389988
19107396580
19107403233
19107410496
19107417454
19107424229
19107429661
19107438450
19107446140
19107451267
19107459629
19107465061
19107471775
19107479649
19107485691
19107492771
19107499302
19107506992
19107512547
19107520542
19107526340
19107534214
19107538364
19107547703
19107556431
19107561863
19107572056
19107578708
19107586216
19107593357
19107600254
19107608066
19107613559
19107622715
19107626987
19107636203
19107644626
19107649692
19107657993
19107663486
19107671238
19107675510
19107684726
19107693271
19107700290
19107706455
19107711948
19107719760
19107725437
19107733798
19107740878
19107747836
19107754367
19107760043
19107769016
19107775058
19107782382
19107788974
19107795871
19107802402
19107809238
19107816196
19107823093
19107829868
19107835483
19107843173
19107851169
19107856174
19107864780
19107871066
19107878268
19107885104
19107892245
19107898776
19107905307
19107914584
19107920504
19107928134
19107934115
19107941867
19107950351
19107957248
19107964633
19107970248
19107978122
19107986300
19107993502
19107999606
19108006625
19108012667
19108022189
19108026888
19108036898
19108044039
19108051730
19108058810
19108064974
19108073702
19108081088
19108087740
19108095858
19108103732
19108110934
19108118624
19108124911
19108134005
19108142184
19108149325
19108159884
19108166659
19108176241
19108185274
19108192782
19108202364
19108209932
19108218721
19108227633
19108234530
19108243258
19108251253
19108257662
19108266573
19108274446
19108282564
19108288729
19108296541
19108306185
19108312044
19108320528
19108327669
19108334627
19108341524
19108348909
19108356477
19108361849
19108370760
19108376741
19108384920
19108392244
19108399751
19108405977
19108416048
19108423738
19108431428
19108439180
19108445344
19108454561
19108461336
19108470430
19108477205
19108483674
19108491975
19108498384
19108505220
19108510103
19108517976
19108523347
19108530610
19108535371
19108542512
19108549348
19108555024
19108560334
19108568269
19108573823
19108579560
19108585054
19108591645
19108596955
19108604158
19108610200
19108616609
19108622224
19108628449
19108634431
19108640412
19108645661
19108651948
19108658906
19108665803
19108672578
19108677277
19108683930
19108688691
19108695710
19108700532
19108707063
19108714753
19108720734
19108727814
19108733002
19108740266
19108746430
19108751862
19108759370
19108764741
19108771638
19108777619
19108782746
19108788483
19108795624
19108799103
19108806855
19108812531
19108818024
19108823700
19108830658
19108837555
19108844208
19108850007
19108856659
19108863373
19108868744
19108875763
19108881256
19108887482
19108893524
19108899689
19108905060
19108911103
19108917084
19108923554
19108929047
19108935211
19108940766
19108948029
19108953522
19108960602
19108967072
19108973908
19108978668
19108986542
19108992889
19108999481
19109005463
19109011871
19109018341
19109025482
19109033478
19109040497
19109047089
19109054169
19109061310
19109068207
19109073273
19109081634
19109087127
19109094635
19109099945
19109110687
19109116790
19109123199
19109129791
19109137420
19109144195
19109151458
19109158599
19109166107
19109173675
19109185882
19109194122
19109205718
19109214508
19109221527
19109226837
19109233428
19109240631
19109246429
19109253326
19109260040
19109266387
19109271575
19109279327
19109286224
19109293731
19109297576
19109305694
19109311858
19109316680
19109322906
19109329131
19109332976
19109342010
19109348846
19109354095
19109360930
19109367827
19109374480
19109381377
19109387786
19109395232
19109397307
19109407256
19109414153
19109419280
19109426726
19109431548
19109444121
19109453826
19109463042
19109469207
19109478850
19109494292
19109501494
19109510405
19109519316
19109527434
19109535613
19109544951
19109552092
19109559416
19109565520
19109571623
19109577971
19109584135
19109591460
19109596587
19109603423
19109608733
19109615752
19109621733
19109627165
19109633452
19109640288
19109645842
19109651945
19109657805
19109664580
19109671843
19109678557
19109685881
19109690703
19109697233
19109702482
19109710234
19109715544
19109721891
19109728300
19109735563
19109742277
19109748381
19109753874
19109761259
19109766874
19109772856
19109778349
19109786344
19109792204
19109797880
19109804350
19109810697
19109816313
19109822904
19109828581
19109836332
19109842008
19109848051
19109853788
19109862028
19109868253
19109876005
19109882841
19109889249
19109899931
19109906156
19109910917
19109921415
19109924284
19109933561
19109937894
19109948453
19109956693
19109962064
19109969877
19109977994
19109985868
19109992277
19110001676
19110009305
19110017423
19110025724
19110031888
19110040982
19110048917
19110055997
19110064664
19110073392
19110080167
19110088956
19110099515
19110106168
19110113126
19110124661
19110132535
19110140103
19110148160
19110155911
19110163358
19110170743
19110178311
19110185696
19110193509
19110202054
19110207913
19110214627
19110220608
19110227933
19110233792
19110239163
19110247464
19110254361
19110260647
19110265042
19110272122
19110280606
19110285550
19110292935
19110302395
19110309475
19110317288
19110323880
19110330471
19110336880
19110343960
19110350552
19110355313
19110362881
19110369290
19110375943
19110384060
19110391262
19110397061
19110403225
19110408596
19110414883
19110422207
19110429226
19110435452
19110442104
19110448818
19110454189
19110461941
19110467861
19110473782
19110480434
19110486843
19110492702
19110499172
19110504482
19110511379
19110516933
19110522549
19110530300
19110535671
19110541653
19110548550
19110554531
19110560024
19110566799
19110573940
19110579738
19110585293
19110592006
19110598537
19110605312
19110611843
19110619167
19110623928
19110630947
19110637111
19110642849
19110649929
19110656093
19110661953
19110668605
19110675197
19110680385
19110689357
19110695461
19110701259
19110707790
19110715541
19110722133
19110729274
19110735927
19110743923
19110750148
19110756374
19110762721
19110769740
19110775661
19110782680
19110789211
19110795009
19110803127
19110810695
19110817592
19110824000
19110830714
19110837245
19110843959
19110850612
19110859157
19110864223
19110872890
19110878627
19110887050
19110893336
19110898951
19110904384
19110913234
19110919459
19110925868
19110932948
19110939601
19110947718
19110952967
19110961024
19110968348
19110974879
19110982020
19110987940
19110995936
19111002772
19111009059
19111016566
19111023097
19111029688
19111036463
19111042872
19111049952
19111056544
19111064845
19111072108
19111079798
19111085658
19111092921
19111098719
19111106165
19111114222
19111121302
19111128748
19111133692
19111141993
19111146937
19111154749
19111162012
19111169642
19111175135
19111183191
19111189966
19111196863
19111203394
19111210108
19111216394
19111223719
19111231348
19111238306
19111244471
19111249842
19111257593
19111262781
19111271448
19111278162
19111284387
19111291468
19111298364
19111305628
19111311609
19111318079
19111325952
19111333032
19111339807
19111347986
19111353845
19111361292
19111368921
19111374902
19111384180
19111388574
19111398279
19111405176
19111413293
19111418726
19111425806
19111433252
19111441064
19111450159
19111455835
19111463159
19111468591
19111479272
19111486474
19111493615
19111500390
19111507348
19111514123
19111521203
19111529321
19111537011
19111544702
19111551721
19111558862
19111564172
19111573083
19111578515
19111587548
19111596398
19111604577
19111612817
19111625024
19111630090
19111639855
19111646874
19111655175
19111663110
19111670617
19111678490
19111687035
19111695275
19111701684
19111710839
19111719384
19111727563
19111734154
19111742638
19111751488
19111756432
19111768273
19111773400
19111784813
19111792870
19111800377
19111807641
19111817589
19111824913
19111834008
19111841210
19111849877
19111857018
19111867150
19111874535
19111883873
19111891320
19111899498
19111907372
19111918602
19111925743
19111934715
19111941918
19111950707
19111957909
19111966270
19111975365
19111982262
19111991234
19111998558
19112004967
19112012962
19112019554
19112027122
19112034630
19112041283
19112046654
19112054893
19112061851
19112068321
19112074974
19112081993
19112089561
19112097130
19112103965
19112111473
19112117027
19112124717
19112131065
19112138389
19112145652
19112151329
19112159446
19112166099
19112172691
19112180198
19112186729
19112193260
19112200279
19112207603
19112214683
19112220115
19112226951
19112233909
19112239463
19112248130
19112254417
19112260520
19112264915
19112273460
19112279258
19112283469
19112290794
19112295249
19112301902
19112308433
19112314353
19112320518
19112326194
19112331016
19112339194
19112344932
19112350913
19112356711
19112362693
19112368552
19112374717
19112382163
19112388511
19112393943
19112400535
19112406638
19112411521
19112418052
19112422873
19112430014
19112435752
19112441672
19112448264
19112454367
19112460715
19112466880
19112473899
19112480429
19112486838
19112491904
19112498618
19112504050
19112512290
19112518515
19112525961
19112529563
19112538474
19112545981
19112554282
19112562155
19112568137
19112577231
19112581076
19112588950
19112594687
19112602255
19112610068
19112615134
19112622885
19112629843
19112634360
19112641806
19112649313
19112656210
19112663473
19112670309
19112677023
19112684103
19112690573
19112695517
19112703940
19112710104
19112717794
19112726278
19112734335
19112744650
19112751791
19112760702
19112766745
19112775717
19112781820
19112788595
19112794760
19112802877
19112811178
19112818746
19112825277
19112831503
19112837850
19112844564
19112851583
19112858419
19112865560
19112873067
19112879659
19112887289
19112894491
19112901693
19112908956
19112914449
19112921041
19112926656
19112935079
19112941488
19112948324
19112954793
19112961263
19112967489
19112974080
19112981099
19112987569
19112991781
19113001973
19113007589
19113014180
19113021444
19113028218
19113034383
19113041158
19113047383
19113054464
19113062337
19113067769
19113075521
19113081868
19113089437
19113094319
19113101521
19113108724
19113115987
19113121602
19113128560
19113135823
19113142964
19113148885
19113156880
19113162251
19113170125
19113176289
19113183064
19113189778
19113197224
19113205952
19113213155
19113219075
19113226033
19113230366
19113240498
19113249714
19113255513
19113263753
19113272542
19113280415
19113286335
19113293721
19113302083
19113309834
19113315876
19113322956
19113334126
19113338887
19113349079
19113353535
19113362995
19113367634
19113378498
19113383930
19113394245
19113402424
19113415669
19113420918
19113431660
19113441425
19113449665
19113455219
19113464741
19113472248
19113480122
19113487263
19113495075
19113501606
19113509968
19113519916
19113528828
19113535663
19113543781
19113551838
19113557758
19113565937
19113573932
19113580036
19113588520
19113596332
19113604450
19113611835
19113619709
19113627277
19113633258
19113640766
19113652607
19113657367
19113667499
19113675189
19113683307
19113689716
19113699848
19113706439
19113716510
19113723224
19113732257
19113738666
19113747272
19113756427
19113762958
19113771564
19113776569
19113787921
19113792804
19113804278
19113809283
19113819964
19113828326
19113835467
19113842181
19113851092
19113857379
19113863849
19113869647
19113877582
19113882953
19113889483
19113894671
19113902850
19113910174
19113916278
19113921527
19113933368
19113939288
19113946002
19113953021
19113960223
19113966876
19113972491
19113979876
19113985064
19113992449
19113997698
19114007403
19114011187
19114020281
19114027239
19114034014
19114038775
19114046771
19114054278
19114061602
19114068072
19114074297
19114080401
19114086932
19114094317
19114101519
19114107928
19114114947
19114120318
19114126971
19114133135
19114138262
19114147783
19114153094
19114159990
19114167986
19114173357
19114181475
19114187090
19114193377
19114199419
19114205950
19114211992
19114219072
19114227068
19114233416
19114238420
19114244646
19114252092
19114256792
19114263811
19114267107
19114276567
19114282488
19114288103
19114293535
19114299272
19114306413
19114310930
19114317827
19114324419
19114330766
19114336137
19114343645
19114350603
19114356462
19114362505
19114368547
19114374956
19114381364
19114388933
19114394121
19114401140
19114407609
19114412614
19114419023
19114426225
19114431840
19114441057
19114447343
19114453874
19114460649
19114467119
19114473466
19114480058
19114487870
19114495805
19114502031
19114508867
19114515825
19114523393
19114529863
19114534806
19114543901
19114549455
19114557023
19114564469
19114570756
19114577958
19114583879
19114591081
19114597428
19114603105
19114610734
19114616288
19114623979
19114629350
19114637895
19114644669
19114651688
19114658402
19114665055
19114671525
19114678300
19114685868
19114692643
19114700211
19114707291
19114712540
19114719559
19114726090
19114733109
19114739762
19114745377
19114753678
19114760209
19114770096
19114777848
19114790970
19114797562
19114804642
19114813309
19114822647
19114830338
19114838456
19114845597
19114852005
19114857987
19114869034
19114876114
19114882828
19114889115
19114895645
19114902176
19114908707
19114915299
19114923538
19114930740
19114937759
19114944717
19114951492
19114958267
19114965103
19114971756
19114979507
19114985489
19114992569
19114998428
19115005630
19115011307
19115018448
19115024551
19115031753
19115038711
19115043960
19115052139
19115058059
19115066055
19115071609
19115079849
19115083694
19115091873
19115098220
19115105850
19115112320
19115119155
19115127334
19115135208
19115142044
19115150100
19115157608
19115165664
19115171035
19115180740
19115185501
19115196487
19115204849
19115210708
19115218215
19115226455
19115233901
19115240127
19115247207
19115256850
19115263198
19115271926
19115280532
19115289565
19115294326
19115303603
19115310195
19115317458
19115327224
19115334243
19115341445
19115349380
19115358962
19115365920
19115375319
19115382399
19115389541
19115398879
19115407973
19115415908
19115422255
19115430495
19115439162
19115444411
19115456740
19115461623
19115471083
19115478224
19115486525
19115500014
19115506667
19115515700
19115524977
19115537123
19115544203
19115552138
19115562025
19115568983
19115574782
19115584608
19115591139
19115599684
19115606703
19115617262
19115624830
19115633742
19115641676
19115649428
19115655104
19115663160
19115669142
19115677015
19115683729
19115689528
19115695570
19115702284
19115709120
19115716078
19115720839
19115728102
19115734999
19115740614
19115747389
19115755018
19115760939
19115767958
19115772291
19115780775
19115786573
19115794569
19115801161
19115808851
19115815321
19115821668
19115827589
19115833875
19115839430
19115845777
19115853346
19115858411
19115865919
19115873670
19115879713
19115886488
19115894239
19115900342
19115907606
19115915357
19115921644
19115927869
19115933607
19115939039
19115944898
19115952588
19115958631
19115964490
19115969373
19115976026
19115981153
19115988172
19115996961
19116001416
19116007947
19116013868
19116020765
19116027112
19116032849
19116039563
19116047254
19116053418
19116059156
19116064954
19116070691
19116077039
19116083020
19116089429
19116095593
19116101148
19116107373
19116113660
19116118665
19116125745
19116130872
19116138379
19116143567
19116151379
19116158459
19116165295
19116173108
19116179883
19116186108
19116193433
19116200635
19116206372
19116212475
19116218213
19116226575
19116234875
19116241284
19116249035
19116253979
19116261242
19116267285
19116274060
19116281994
19116288464
19116295117
19116302014
19116309582
19116316845
19116323193
19116328747
19116336560
19116345227
19116351330
19116359570
19116366833
19116374096
19116382519
19116391613
19116397717
19116406323
19116413464
19116421948
19116429272
19116437756
19116446667
19116454540
19116461498
19116469067
19116476513
19116483532
19116489941
19116496960
19116503796
19116509533
19116517956
19116523632
19116531750
19116539074
19116545604
19116552440
19116559215
19116566906
19116572094
19116580578
19116585521
19116594127
19116599559
19116607677
19116613964
19116621410
19116625499
19116634838
19116641979
19116648448
19116654979
19116661632
19116669689
19116674755
19116683055
19116690196
19116696727
19116702342
19116710460
19116716136
19116724315
19116729808
19116738048
19116744823
19116753612
19116759654
19116766734
19116774242
19116779185
19116788035
19116795726
19116802623
19116810741
19116819102
19116826732
19116833629
19116840465
19116847789
19116854869
19116861522
19116869090
19116874400
19116882090
19116889598
19116898326
19116904124
19116911387
19116916941
19116925059
19116930552
19116938975
19116947154
19116953684
19116960581
19116965769
19116974864
19116980235
19116989329
19116995005
19117002268
19117007639
19117016612
19117021006
19117031016
19117038218
19117047068
19117055613
19117063059
19117069773
19117077219
19117085581
19117094492
19117100901
19117106333
19117114512
19117122019
19117130747
19117140024
19117151255
19117158396
19117168711
19117173777
19117183847
19117188608
19117203073
19117214304
19117222177
19117234140
19117246775
19117258005
19117265879
19117277292
19117285898
19117295969
19117301523
19117313364
19117323618
19117333322
19117341562
19117349863
19117361398
19117369333
19117379404
19117390451
19117398263
19117406320
19117417062
19117424570
19117435190
19117443063
19117454294
19117463266
19117472055
19117480478
19117489145
19117498300
19117506906
19117518197
19117525216
19117536508
19117543466
19117552499
19117562203
19117572457
19117583322
19117595468
19117605782
19117618478
19117628304
19117641488
19117651742
19117661324
19117668465
19117678780
19117686959
19117699105
19117708748
19117716317
19117728036
19117735543
19117746529
19117754891
19117763741
19117774056
19117783516
19117792550
19117802437
19117811287
19117818978
19117829171
19117840218
19117847420
19117857918
19117865608
19117877083
19117882454
19117893685
19117904549
19117911751
19117922310
19117929756
19117940498
19117950020
19117958809
19117968452
19117976265
19117985542
19117995918
19118004707
19118013618
19118022346
19118031929
19118041755
19118049507
19118060066
19118067390
19118076790
19118085151
19118094001
19118104805
19118115242
19118125251
19118133064
19118143012
19118151435
19118160774
19118170234
19118179878
19118187995
19118196540
19118206855
19118216316
19118224677
19118234260
19118244575
19118253791
19118263129
19118273078
19118281379
19118291389
19118298896
19118311408
19118321174
19118332221
19118339179
19118349677
19118360358
19118370612
19118379035
19118388800
19118398139
19118406256
19118417304
19118424445
19118437201
19118445685
19118454901
19118463751
19118473273
19118482184
19118490363
19118501410
19118512518
19118522345
19118532233
19118538763
19118548712
19118559271
19118568487
19118576727
19118588873
19118594733
19118608282
19118614264
19118626654
19118637335
19118645208
19118656439
19118666449
19118676275
19118685064
19118695806
19118705755
19118715216
19118721807
19118729742
19118736822
19118741461
19118750372
19118757452
19118763494
19118771368
19118775762
19118784612
19118791570
19118799139
19118806158
19118812811
19118823248
19118829778
19118835455
19118843999
19118851751
19118858953
19118867132
19118873479
19118881353
19118888494
19118892522
19118902105
19118909734
19118917058
19118923345
19118928838
19118935613
19118942571
19118950139
19118956243
19118963018
19118966863
19118976812
19118982122
19118988652
19118995549
19119002385
19119008062
19119014226
19119020879
19119026128
19119032659
19119039250
19119045903
19119051213
19119057805
19119063115
19119070500
19119076360
19119083074
19119088933
19119096867
19119105046
19119113774
19119120976
19119130437
19119138921
19119144292
19119152776
19119160222
19119168706
19119174260
19119180791
19119188054
19119194035
19119201848
19119209477
19119216313
19119224370
19119231022
19119239079
19119242985
19119252690
19119259099
19119266179
19119271977
19119278508
19119285344
19119291874
19119299199
19119304203
19119312199
19119317936
19119326481
19119335270
19119341923
19119347843
19119356022
19119363774
19119372013
19119380802
19119387882
19119396000
19119403324
19119409245
19119418095
19119424137
19119432865
19119440739
19119448246
19119455997
19119461796
19119469547
19119477848
19119484135
19119491886
19119501652
19119509281
19119517826
19119522526
19119533207
19119541019
19119547062
19119554630
19119562259
19119568485
19119573795
19119580997
19119587040
19119593265
19119598148
19119605289
19119612308
19119619632
19119624637
19119633121
19119638797
19119644473
19119651065
19119657474
19119662967
19119670047
19119676029
19119681705
19119687015
19119693912
19119697574
19119706668
19119712589
19119718936
19119722720
19119729922
19119736636
19119741397
19119747317
19119755130
19119761111
19119767520
19119773868
19119778995
19119782718
19119792544
19119799930
19119806949
19119812442
19119819278
19119825564
19119831057
19119838015
19119843997
19119850955
19119856753
19119862979
19119869387
19119874270
19119882205
19119888186
19119893252
19119898501
19119905642
19119911013
19119916140
19119920779
19119926943
19119932864
19119939456
19119945864
19119952395
19119958743
19119963381
19119969180
19119975344
19119981265
19119986025
19119992007
19119997195
19120003970
19120009097
19120016604
19120024111
19120030459
19120035708
19120042849
19120050112
19120053957
19120061404
19120069033
19120073733
19120081789
19120086672
19120094240
19120101076
19120108278
19120115908
19120121035
19120130129
19120136294
19120142092
19120147402
19120155703
19120162905
19120169863
19120175844
19120182741
19120189394
19120194704
19120202089
19120209413
19120216127
19120222963
19120227846
19120235231
19120241762
19120248293
19120253420
19120261293
19120266664
19120274538
19120280458
19120285158
19120290346
19120298341
19120303163
19120320680
19120336183
19120343080
19120354555
19120363283
19120373353
19120385499
19120395814
19120405153
19120411256
19120419618
19120426149
19120434388
19120439210
19120449159
19120456422
19120463624
19120469667
19120474794
19120483827
19120489564
19120497682
19120506288
19120511659
19120519593
19120524903
19120532228
19120537355
19120544618
19120553407
19120559815
19120566529
19120572816
19120578065
19120584779
19120593873
19120600037
19120607423
19120613526
19120620118
19120626710
19120632813
19120640137
19120648133
19120654664
19120659913
19120667176
19120673218
19120680787
19120688050
19120694825
19120703004
19120708802
19120716431
19120722474
19120730103
19120737671
19120743714
19120751893
19120757203
19120765076
19120771363
19120777771
19120781495
19120791260
19120797913
19120804688
19120812561
19120818238
19120826477
19120833313
19120841370
19120849426
19120854798
19120863342
19120869751
19120877319
19120882996
19120892151
19120896607
19120905701
19120912659
19120919128
19120923157
19120931763
19120935669
19120945923
19120951172
19120958496
19120965332
19120971863
19120976684
19120984619
19120993225
19121001282
19121007873
19121015198
19121022339
19121029724
19121036560
19121045105
19121051025
19121060180
19121068725
19121076721
19121083862
19121091125
19121098388
19121104187
19121113464
19121121643
19121127746
19121133422
19121141357
19121150695
19121158691
19121163085
19121173278
19121181274
19121188781
19121196960
19121202758
19121211303
19121217956
19121225646
19121235046
19121240356
19121247741
19121254882
19121263000
19121270141
19121276610
19121283752
19121289794
19121295226
19121303283
19121309752
19121316466
19121324096
19121329223
19121334899
19121341491
19121347350
19121352904
19121358886
19121366027
19121372069
19121377562
19121385070
19121390563
19121397643
19121403563
19121409056
19121414366
19121422118
19121426085
19121434386
19121441222
19121447875
19121454833
19121460936
19121467589
19121474852
19121481688
19121485533
19121494566
19121500670
19121507018
19121513731
19121519957
19121526793
19121533629
19121541075
19121546385
19121552733
19121559141
19121565367
19121570006
19121575377
19121580076
19121586302
19121591368
19121599425
19121602781
19121610716
19121616881
19121622923
19121630125
19121636473
19121642698
19121649473
19121654783
19121659422
19121667112
19121675047
19121681456
19121686827
19121693052
19121700621
19121705809
19121713438
19121717039
19121724974
19121731626
19121738523
19121744688
19121751951
19121759336
19121765013
19121771787
19121778074
19121784910
19121791624
19121798460
19121805357
19121811399
19121817808
19121825071
19121830808
19121838438
19121844602
19121851926
19121859434
19121864439
19121872556
19121878110
19121886228
19121892759
19121899167
19121905271
19121912534
19121919553
19121926755
19121932859
19121938474
19121946103
19121953000
19121960386
19121967588
19121972532
19121980710
19121986447
19121994199
19122000730
19122007810
19122014890
19122022031
19122028440
19122034055
19122041440
19122048825
19122056821
19122062558
19122069455
19122075681
19122083310
19122089902
19122096799
19122103330
19122110287
19122117368
19122124142
19122132199
19122138974
19122145383
19122152524
19122159360
19122164487
19122172787
19122178403
19122185849
19122192624
19122199399
19122206357
19122212765
19122219601
19122226742
19122234372
19122241452
19122247921
19122254574
19122262936
19122270565
19122276486
19122286373
19122290646
19122301205
19122307675
19122313412
19122321896
19122330441
19122336910
19122344052
19122351437
19122358212
19122363949
19122371456
19122379940
19122386654
19122395626
19122403133
19122408871
19122414303
19122421505
19122426754
19122433590
19122439022
19122446590
19122450619
19122459103
19122463375
19122471737
19122493526
19122502132
19122509029
19122516414
19122523189
19122531490
19122537349
19122545162
19122552852
19122558773
19122565975
19122573726
19122580928
19122589717
19122592159
19122603267
19122608150
19122619441
19122628047
19122634700
19122642513
19122647823
19122655208
19122660823
19122668086
19122676387
19122682613
19122688167
19122696529
19122705379
19122713618
19122720821
19122728328
19122737361
19122743892
19122750178
19122760554
19122767085
19122775874
19122784846
19122791194
19122799067
19122805964
19122813838
19122822444
19122829585
19122837092
19122844661
19122852595
19122858393
19122866755
19122874934
19122880976
19122890559
19122898310
19122905879
19122913325
19122919245
19122926570
19122935176
19122939875
19122951228
19122959040
19122967646
19122975642
19122982417
19122990229
19122999995
19123006648
19123016108
19123020808
19123030268
19123036433
19123043391
19123050165
19123056330
19123060725
19123069819
19123076655
19123083369
19123090265
19123095270
19123103144
19123108027
19123116083
19123120905
19123127497
19123134333
19123141047
19123145929
19123153315
19123160028
19123165949
19123173883
19123179438
19123187250
19123193537
19123199518
19123205683
19123211664
19123218622
19123225153
19123231928
19123238458
19123245294
19123251642
19123258173
19123264948
19123270807
19123276972
19123283136
19123288812
19123295465
19123301508
19123306390
19123313715
19123318475
19123326288
19123331964
19123338251
19123345453
19123351678
19123358148
19123364862
19123371942
19123376764
19123383294
19123387811
19123394220
19123401727
19123407342
19123413019
19123418878
19123425409
19123431024
19123437616
19123442865
19123449823
19123455743
19123461480
19123468682
19123473504
19123480706
19123486200
19123492730
19123499383
19123505120
19123511407
19123517633
19123524407
19123529534
19123539056
19123545587
19123551812
19123557366
19123564263
19123571160
19123577508
19123586907
19123593804
19123603570
19123610284
19123616082
19123624078
19123629754
19123637871
19123643304
19123650933
19123656426
19123664361
19123671319
19123679925
19123686150
19123693291
19123699395
19123707879
19123713860
19123721001
19123729302
19123735833
19123745049
19123751213
19123758782
19123764275
19123770928
19123776421
19123784355
19123790703
19123797478
19123803643
19123810601
19123817986
19123824517
19123829277
19123837029
19123844109
19123850639
19123857170
19123864189
19123872002
19123877251
19123885002
19123892509
19123899406
19123904900
19123912529
19123920280
19123927727
19123932976
19123939079
19123946159
19123952507
19123957939
19123965568
19123971001
19123978752
19123984245
19123990715
19123996147
19124005119
19124010795
19124018791
19124025016
19124032097
19124038810
19124045585
19124049430
19124058220
19124066520
19124073051
19124078605
19124087455
19124094535
19124100090
19124108207
19124112968
19124119316
19124126213
19124132316
19124140434
19124147086
19124153312
19124160514
19124166313
19124173026
19124178581
19124186881
19124192924
19124200919
19124207755
19124217094
19124221610
19124230949
19124239555
19124248283
19124253165
19124264457
19124269401
19124279227
19124286612
19124295096
19124299369
19124309256
19124313468
19124322806
19124330130
19124336966
19124345145
19124352897
19124359732
19124366935
19124374625
19124381705
19124388480
19124397147
19124405509
19124410575
19124417655
19124424735
19124431388
19124436392
19124444205
19124452445
19124458792
19124465018
19124471915
19124479544
19124485892
19124493582
19124500601
19124508963
19124515921
19124521353
19124529776
19124535818
19124543082
19124549429
19124557730
19124566763
19124573660
19124580435
