19034998633
19035004614
19035010718
19035015967
19035020911
19035026099
19035031348
19035036536
19035041113
19035045813
19035053381
19035058997
19035064856
19035071875
19035076514
19035082129
19035089392
19035095251
19035101233
19035107520
19035113684
19035121130
19035126746
19035134192
19035141333
19035147558
19035155493
19035162268
19035168310
19035178015
19035185034
19035191321
19035199438
19035206457
19035218237
19035225073
19035231848
19035240759
19035248449
19035256872
19035265234
19035272985
19035280371
19035288122
19035297644
19035310217
19035321874
19035332556
19035339819
19035347692
19035355871
19035362341
19035368261
19035376684
19035382543
19035392065
19035399389
19035406347
19035411657
19035421117
19035428014
19035437292
19035443761
19035450170
19035457555
19035465795
19035473302
19035478612
19035488073
19035496435
19035504003
19035509252
19035517064
19035526342
19035534642
19035542272
19035550939
19035560155
19035567968
19035577611
19035583959
19035593114
19035602147
19035608129
19035619359
19035626683
19035638036
19035647862
19035655736
19035663182
19035672643
19035682896
19035689671
19035698155
19035706517
19035715916
19035725072
19035731908
19035740880
19035748936
19035756688
19035764378
19035773167
19035780308
19035790684
19035798192
19035806431
19035816014
19035821995
19035831944
19035839573
19035846226
19035856114
19035863316
19035872349
19035880101
19035890293
19035896336
19035907566
19035914036
19035919529
19035935398
19035946751
19035955967
19035969395
19035980076
19035989597
19035995579
19036004307
19036009739
19036019688
19036025303
19036035374
19036043186
19036050266
19036058933
19036064609
19036072727
19036082248
19036092014
19036098423
19036108982
19036115818
19036124302
19036133396
19036142673
19036152744
19036160556
19036168613
19036175388
19036182895
19036191013
19036200595
19036208774
19036215366
19036224704
19036232883
19036239719
19036247104
19036255222
19036264743
19036270725
19036280246
19036288181
19036295322
19036304172
19036311984
19036321139
19036327975
19036334994
19036343539
19036350741
19036356723
19036367221
19036373507
19036380954
19036388461
19036397616
19036405124
19036412448
19036421298
19036428683
19036435092
19036444064
19036451388
19036460543
19036468722
19036475497
19036484713
19036492404
19036501742
19036508395
19036517489
19036525851
19036532931
19036542696
19036551241
19036558566
19036567110
19036573458
19036582064
19036591402
19036599581
19036607760
19036615511
19036630221
19036638094
19036646029
19036656832
19036666109
19036675692
19036684115
19036692782
19036700167
19036705660
19036714083
19036721956
19036731417
19036739290
19036745638
19036753389
19036761690
19036768953
19036775362
19036782137
19036790377
19036798433
19036805757
19036813509
19036820711
19036827608
19036834871
19036842745
19037013459
19037021516
19037029756
19037038789
19037047090
19037055146
19037063874
19037072663
19037082734
19037090974
19037098908
19037106416
19037114289
19037121675
19037130341
19037138520
19037146333
19037154939
19037161713
19037170503
19037178193
19037186921
19037193024
19037204255
19037212311
19037220612
19037234650
19037245942
19037254304
19037260712
19037271149
19037280243
19037289460
19037297577
19037303864
19037311066
19037319977
19037329682
19037334931
19037345063
19037352326
19037359467
19037365753
19037371369
19037379181
19037386872
19037393402
19037399201
19037407013
19037413178
19037420685
19037428681
19037435944
19037442230
19037447907
19037455963
19037462799
19037470367
19037477570
19037484344
19037492462
19037498199
19037505218
19037512543
19037519562
19037526214
19037532745
19037540375
19037547882
19037555450
19037561127
19037565582
19037574798
19037580230
19037586883
19037595306
19037602142
19037608856
19037615692
19037623382
19037628875
19037635772
19037642425
19037651275
19037659271
19037665496
19037672760
19037678619
19037688140
19037694732
19037703094
19037712249
19037720672
19037729034
19037737029
19037745879
19037754668
19037760711
19037771514
19037777862
19037787017
19037794524
19037804168
19037811614
19037818694
19037828643
19037836028
19037846404
19037855803
19037863555
19037871734
19037881926
19037891509
19037899077
19037913665
19037921172
19037930022
19037935881
19037944365
19037953154
19037959929
19037968474
19037974883
19037984831
19037993376
19038000945
19038009978
19038017424
19038024687
19038033782
19038042754
19038051421
19038059660
19038063933
19038077361
19038081633
19038091826
19038099943
19038108122
19038117155
19038125334
19038133208
19038144865
19038154387
19038164641
19038171782
19038179350
19038187651
19038198088
19038206938
19038213163
19038222013
19038230558
19038238676
19038246427
19038255888
19038263456
19038272306
19038280363
19038289091
19038295988
19038304716
19038311308
19038320463
19038329435
19038335661
19038344816
19038351713
19038361051
19038368314
19038377287
19038386808
19038392789
19038400053
19038410184
19038418729
19038425504
19038436674
19038445341
19038451871
19038460294
19038468656
19038476957
19038486112
19038493314
19038500211
19038509610
19038517179
19038525724
19038536405
19038543424
19038550809
19038561246
19038567288
19038575894
19038584622
19038596402
19038603543
19038613858
19038621732
19038629300
19038636441
19038644132
19038652432
19038658719
19038666104
19038671353
19038678555
19038684232
19038691861
19038697720
19038704800
19038711941
19038717496
19038724209
19038730984
19038736539
19038744046
19038748929
19038756253
19038764065
19038770413
19038776516
19038782681
19038791714
19038797329
19038805508
19038812283
19038817959
19038824246
19038831997
19038837551
19038845608
19038852261
19038859341
19038865750
19038872280
19038878445
19038884670
19038891812
19038897122
19038905056
19038912808
19038917568
19038924343
19038930813
19038936550
19038941799
19038948513
19038954922
19038961636
19038968410
19038974026
19038980740
19038986904
19038992092
19038999111
19039005398
19039010891
19039018032
19039024685
19039030910
19039037197
19039043789
19039048916
19039056545
19039063747
19039069362
19039076626
19039083523
19039089260
19039096889
19039103237
19039110439
19039118618
19039126918
19039133266
19039140773
19039148159
19039155727
19039163906
19039170314
19039177150
19039184780
19039192043
19039200038
19039206325
19039214137
19039221156
19039227565
19039234096
19039242397
19039249477
19039256374
19039263026
19039270900
19039277187
19039286159
19039295131
19039300746
19039308009
19039316859
19039323146
19039329310
19039336757
19039343104
19039349086
19039357142
19039363002
19039370753
19039377040
19039384364
19039391627
19039396571
19039406886
19039413417
19039421168
19039428492
19039434352
19039442897
19039449733
19039456507
19039464991
19039471522
19039477320
19039485316
19039490809
19039498744
19039504542
19039513270
19039519557
19039526759
19039533167
19039539515
19039547511
19039554408
19039562647
19039569239
19039575037
19039581385
19039588709
19039595240
19039602381
19039608973
19039617335
19039623133
19039630640
19039637903
19039644495
19039651087
19039658472
19039665003
19039672815
19039678919
19039687037
19039693628
19039701563
19039707605
19039717005
19039723780
19039730738
19039739038
19039745203
19039754358
19039763697
19039771997
19039779810
19039788294
19039795435
19039804041
19039811853
19039820947
19039828699
19039834009
19039841394
19039848169
19039855127
19039863489
19039869714
19039880212
19039887231
19039893579
19039901514
19039907800
19039914331
19039922388
19039930932
19039938806
19039946313
19039952600
19039961755
19039967309
19039975183
19039982934
19039989709
19039997583
19040004235
19040011743
19040018518
19040024194
19040032800
19040040124
19040047814
19040055017
19040063317
19040073205
19040079309
19040085778
19040095849
19040105126
19040112878
19040121118
19040129296
19040135644
19040146020
19040153100
19040162438
19040172570
19040180382
19040186303
19040193627
19040201195
19040207726
19040214501
19040221581
19040229272
19040237145
19040244713
19040251549
19040258996
19040266198
19040272179
19040278588
19040283715
19040293969
19040300866
19040306603
19040311608
19040316918
19040321129
19040328331
19040334740
19040345787
19040352135
19040357750
19040363915
19040370690
19040377526
19040382469
19040390221
19040396996
19040403343
19040410851
19040416039
19040422752
19040430077
19040436974
19040442101
19040449974
19040456688
19040467064
19040472557
19040480919
19040488487
19040500633
19040506981
19040513023
19040518638
19040526573
19040534263
19040540306
19040546654
19040553428
19040557823
19040566368
19040572593
19040579063
19040586204
19040592186
19040597374
19040604759
19040611168
19040618492
19040624717
19040630943
19040636070
19040643272
19040651329
19040657615
19040663902
19040669822
19040676780
19040682273
19040689414
19040698570
19040704429
19040711082
19040717979
19040722190
19040729942
19040739585
19040743858
19040750938
19040755820
19040761924
19040768699
19040774802
19040781089
19040788230
19040793052
19040799033
19040804648
19040809226
19040817039
19040823997
19040830405
19040837424
19040843650
19040850486
19040857383
19040863059
19040868369
19040875022
19040881675
19040888022
19040894431
19040901023
19040905539
19040913657
19040920981
19040927207
19040933127
19040940512
19040947165
19040952658
19040959494
19040965964
19040973166
19040980002
19040984946
19040991965
19040997641
19041004965
19041014121
19041022665
19041035239
19041046530
19041055991
19041066550
19041074301
19041081747
19041088827
19041095297
19041100546
19041110556
19041116110
19041123068
19041129660
19041137289
19041145285
19041152792
19041159689
19041167013
19041172567
19041180868
19041187338
19041194845
19041202230
19041209372
19041215597
19041222006
19041228476
19041236044
19041242636
19041249044
19041255514
19041262838
19041267965
19041273580
19041280660
19041285238
19041292257
19041298666
19041305624
19041312154
19041316854
19041324728
19041331747
19041337728
19041345052
19041352743
19041359518
19041364767
19041369894
19041376974
19041383016
19041388753
19041394735
19041402975
19041410360
19041418477
19041425496
19041432027
19041436422
19041443624
19041449910
19041457418
19041463155
19041470479
19041477437
19041482442
19041488790
19041495870
19041503560
19041508809
19041516927
19041521505
19041529012
19041535298
19041541341
19041547139
19041555623
19041562398
19041569295
19041572774
19041583638
19041588948
19041597371
19041604756
19041612569
19041619283
19041626302
19041633809
19041645284
19041651082
19041661336
19041669087
19041677937
19041684956
19041691853
19041699361
19041708638
19041714741
19041722981
19041731465
19041736714
19041743977
19041751118
19041756184
19041761616
19041770161
19041775959
19041786091
19041793965
19041801228
19041807820
19041815876
19041823140
19041828511
19041834126
19041842793
19041848896
19041857075
19041863301
19041870747
19041877339
19041885639
19041891682
19041899616
19041907063
19041913654
19041921894
19041927021
19041934406
19041940693
19041947102
19041953449
19041960285
19041965351
19041971821
19041977619
19041982197
19041988850
19041993366
19042001911
19042007343
19042012958
19042017963
19042023456
19042028644
19042036884
19042043903
19042050556
19042057819
19042064411
19042073078
19042078571
19042086445
19042092670
19042100177
19042106952
19042114215
19042120685
19042126056
19042133136
19042138385
19042145465
19042149982
19042156696
19042160785
19042168170
19042174884
19042180560
19042185748
19042192340
19042198200
19042203815
19042209369
19042216144
19042221637
19042227985
19042233478
19042239825
19042245929
19042252704
19042258746
19042264056
19042269794
19042277911
19042288959
19042297443
19042303546
19042312884
19042320453
19042324969
19042332538
19042337726
19042344256
19042350055
19042355548
19042363971
19042371356
19042378009
19042385028
19042391009
19042397235
19042403155
19042410235
19042416034
19042423297
19042429644
19042435382
19042440875
19042447222
19042454180
19042459918
19042464984
19042470172
19042477007
19042482440
19042489337
19042494952
19042502398
19042509600
19042515093
19042522051
19042530535
19042537310
19042542803
19042550921
19042557268
19042563372
19042568316
19042575823
19042580889
19042589251
19042596026
19042603045
19042609881
19042614763
19042621294
19042626116
19042633379
19042638262
19042646746
19042653643
19042660174
19042666338
19042673113
19042680071
19042686907
19042693560
19042700090
19042705767
19042713518
19042719255
19042726091
19042732500
19042742876
19042750139
19042757952
19042764726
19042771990
19042780107
19042784685
19042791460
19042799028
19042805742
19042813249
19042820024
19042825700
19042833025
19042843095
19042850969
19042855913
19042863908
19042872636
19042880632
19042887895
19042894609
19042903215
19042910661
19042918718
19042924272
19042932695
19042940873
19042946367
19042955034
19042960588
19042968950
19042974992
19042982072
19042988542
19042996171
19043004045
19043009599
19043017167
19043025102
19043030107
19043039323
19043047685
19043054215
19043059342
19043067277
19043074174
19043081132
19043087357
19043093522
19043100541
19043106034
19043113541
19043118180
19043125932
19043131791
19043137284
19043144364
19043150834
19043157182
19043165055
19043171220
19043179032
19043184342
19043191483
19043197282
19043205826
19043211930
19043219254
19043225968
19043232071
19043240067
19043247818
19043255021
19043261551
19043269059
19043275650
19043282547
19043289933
19043294999
19043302506
19043310257
19043317826
19043325577
19043332108
19043339127
19043345230
19043352799
19043359452
19043368851
19043376663
19043382706
19043388504
19043396622
19043403030
19043411942
19043419083
19043429825
19043436661
19043443802
19043450455
19043460770
19043470230
19043481277
19043490616
19043499344
19043508743
19043516250
19043525284
19043533767
19043540970
19043552566
19043560074
19043568618
19043577652
19043591934
19043602676
19043610672
19043616836
19043622085
19043629470
19043635574
19043641738
19043648086
19043652908
19043660110
19043667739
19043674575
19043679702
19043687393
19043693923
19043701003
19043706985
19043713577
19043720718
19043727187
19043733596
19043739944
19043746352
19043752517
19043759414
19043764419
19043770888
19043775771
19043780898
19043787185
19043792373
19043799331
19043806899
19043813491
19043818740
19043824782
19043830398
19043836318
19043841384
19043849318
19043855178
19043861220
19043867690
19043873916
19043879287
19043885085
19043890578
19043897109
19043902846
19043908828
19043914016
19043918471
19043923476
19043930800
19043936293
19043940688
19043947096
19043951369
19043958022
19043963332
19043970107
19043976271
19043981520
19043986647
19043990859
19043996840
19044002760
19044008681
19044014906
19044021437
19044025710
19044032668
19044036879
19044043837
19044049330
19044055861
19044061659
19044067763
19044073561
19044079726
19044085280
19044090285
19044096266
19044103041
19044109816
19044115187
19044121657
19044127577
19044137770
19044143263
19044149366
19044157789
19044167494
19044176832
19044181776
19044189466
19044195692
19044203138
19044210401
19044215834
19044223646
19044230726
19044237440
19044243971
19044251905
19044259168
19044265943
19044272352
19044279127
19044284864
19044292371
19044296888
19044304456
19044310011
19044316847
19044320936
19044328382
19044333753
19044340833
19044347608
19044352735
19044358717
19044365797
19044372388
19044377454
19044383436
19044391004
19044397291
19044404249
19044411085
19044417066
19044423841
19044430555
19044437146
19044442945
19044452649
19044458631
19044465833
19044471814
19044477613
19044483350
19044490308
19044495069
19044502881
19044509473
19044516858
19044522840
19044530225
19044536511
19044541577
19044548169
19044556043
19044563306
19044568799
19044576184
19044581189
19044588147
19044596631
19044603406
19044609815
19044615979
19044621472
19044627515
19044632947
19044639050
19044645642
19044652722
19044658704
19044666821
19044672864
19044680127
19044686169
19044692883
19044699353
19044707715
19044715039
19044721386
19044726147
19044734631
19044739026
19044747082
19044757031
19044765637
19044775525
19044786755
19044793408
19044800793
19044810498
19044817639
19044825024
19044831127
19044836865
19044842175
19044848217
19044855969
19044861401
19044867809
19044874035
19044880505
19044887158
19044894116
19044903088
19044910534
19044917431
19044924755
19044930981
19044935741
19044944042
19044950207
19044956310
19044964428
19044971142
19044977184
19044983593
19044991649
19044998241
19045005138
19045011791
19045020275
19045027782
19045035228
19045041881
19045047619
19045054821
19045061290
19045068859
19045077037
19045082470
19045090282
19045097301
19045103832
19045112010
19045119091
19045126171
19045133922
19045141307
19045147838
19045153270
19045161632
19045168102
19045174022
19045183116
19045190685
19045198070
19045203929
19045211742
19045217540
19045224193
19045231273
19045238231
19045247203
19045254527
19045262340
19045268809
19045277232
19045282725
19045289683
19045297374
19045304820
19045313182
19045321177
19045328746
19045335643
19045342296
19045348460
19045353831
19045361583
19045368907
19045373484
19045379039
19045386546
19045391795
19045399302
19045404917
19045412486
19045417491
19045425181
19045432200
19045437388
19045447154
19045454234
19045460581
19045467845
19045474131
19045484812
19045491038
19045497752
19045503794
19045510264
19045519053
19045524851
19045531321
19045537119
19045544321
19045549082
19045553782
19045559031
19045565989
19045571665
19045578501
19045584177
19045589609
19045594736
19045600779
19045606760
19045612070
19045617197
19045621531
19045628367
19045633249
19045640452
19045646250
19045652536
19045657602
19045664255
19045670359
19045676584
19045682444
19045688303
19045693613
19045698984
19045704294
19045710581
19045716196
19045720652
19045726938
19045732553
19045739267
19045746652
19045751962
19045757578
19045764047
19045769602
19045775522
19045781870
19045789011
19045796701
19045802133
19045808664
19045813669
19045819833
19045825388
19045831674
19045837717
19045844186
19045850473
19045857309
19045863412
19045868600
19045874277
19045881235
19045887277
19045892831
19045898813
19045903879
19045910165
19045916208
19045922738
19045929574
19045935800
19045943185
19045949472
19045955514
19045962411
19045971139
19045976754
19045982492
19045989328
19045994699
19046001474
19046006051
19046012765
19046021493
19046026742
19046035531
19046041696
19046053292
19046060128
19046065743
19046074716
19046082650
19046089303
19046095651
19046100411
19046107308
19046114266
19046119454
19046126107
19046131844
19046137215
19046143014
19046149544
19046155587
19046163277
19046168954
19046175118
19046182137
19046188790
19046194771
19046200448
19046207894
19046212777
19046220589
19046227120
19046234749
19046240304
19046248055
19046254891
19046260201
19046266854
19046275093
19046281380
19046286202
19046292000
19046298958
19046304817
19046311592
19046319283
19046325875
19046331795
19046338021
19046343758
19046349434
19046357918
19046364571
19046371956
19046378365
19046384407
19046390511
19046395760
19046401985
19046409493
19046416634
19046423653
19046430000
19046437019
19046444099
19046449470
19046457832
19046462776
19046472359
19046478401
19046485603
19046492195
19046499031
19046505562
19046512153
19046517769
19046526497
19046532661
19046540168
19046546394
19046554878
19046559822
19046570442
19046576912
19046583259
19046589180
19046596870
19046602546
19046610908
19046616340
19046622871
19046630744
19046639045
19046643745
19046651863
19046658393
19046671027
19046678779
19046685615
19046695686
19046702216
19046711555
19046722114
19046728950
19046737495
19046743598
19046751105
19046756843
19046764106
19046770026
19046776496
19046783515
19046789557
19046796332
19046804328
19046809394
19046817328
19046824469
19046831122
19046840094
19046845832
19046854071
19046859809
19046865973
19046875251
19046882392
19046889045
19046895880
19046902289
19046909369
19046916144
19046922858
19046929816
19046936774
19046944892
19046952399
19046959662
19046963690
19046973151
19046979987
19046986945
19046994696
19047000861
19047006476
19047014899
19047022101
19047027472
19047034735
19047042242
19047047613
19047055426
19047062079
19047068182
19047076727
19047081793
19047087286
19047093756
19047098517
19047106085
19047112982
19047120062
19047127081
19047132086
19047139349
19047144537
19047150091
19047155951
19047161627
19047167425
19047175360
19047180426
19047186163
19047194647
19047200628
19047206243
19047211309
19047217718
19047223577
19047229437
19047236456
19047244451
19047249639
19047254156
19047260442
19047267278
19047272894
19047277227
19047282781
19047288152
19047296697
19047302007
19047310979
19047318731
19047325567
19047333135
19047340581
19047350408
19047355657
19047363225
19047370000
19047374944
19047380742
19047387762
19047393377
19047400091
19047405218
19047411382
19047418218
19047422979
19047429509
19047437078
19047443486
19047450139
19047456365
19047462102
19047468816
19047475591
19047481572
19047489080
19047496343
19047500859
19047509282
19047514348
19047521916
19047528691
19047535161
19047541997
19047548345
19047554265
19047561406
19047567204
19047575505
19047581914
19047588139
19047595830
19047602300
19047608220
19047617070
19047623357
19047630986
19047637334
19047644353
19047650395
19047656804
19047664860
19047671269
19047679265
19047687443
19047692326
19047699650
19047706486
19047713749
19047721501
19047728886
19047734379
19047741459
19047747502
19047755436
19047762211
19047769596
19047777897
19047784428
19047791813
19047797367
19047804936
19047813114
19047820133
19047826115
19047834721
19047840580
19047846684
19047854313
19047861149
19047868534
19047877140
19047882328
19047889896
19047897038
19047905033
19047910709
19047919743
19047928226
19047934940
19047943668
19047951115
19047957401
19047965458
19047971073
19047979801
19047985782
19047991886
19047998966
19048006717
19048012089
19048019901
19048026493
19048033390
19048040897
19048048954
19048054996
19048061771
19048069095
19048076053
19048083805
19048090213
19048096256
19048103763
19048110904
19048118106
19048124210
19048131473
19048138004
19048144962
19048151859
19048159061
19048165103
19048173465
19048179202
19048185550
19048192813
19048199710
19048208072
19048215213
19048221439
19048232059
19048240481
19048247378
19048256412
19048262881
19048270938
19048279178
19048286197
19048293948
19048300662
19048305850
19048315005
19048323794
19048330996
19048338870
19048346804
19048353579
19048362246
19048367678
19048376162
19048383242
19048392214
19048399539
19048407473
19048413516
19048421633
19048428286
19048436465
19048443423
19048448794
19048458010
19048463381
19048472537
19048476687
19048487917
19048495242
19048502749
19048508669
19048519411
19048526919
19048534487
19048543276
19048550905
19048559023
19048566714
19048573611
19048581362
19048590639
19048598513
19048606997
19048614992
19048622377
19048631960
19048640566
19048647707
19048656374
19048662966
19048669985
19048677797
19048684084
19048692568
19048701296
19048706789
19048713198
19048720888
19048729372
19048735414
19048741457
19048749391
19048756166
19048761842
19048769045
19048774599
19048781618
19048789125
19048795656
19048803712
19048808900
19048816225
19048821046
19048828554
19048834230
19048841615
19048847352
19048854433
19048860780
19048867982
19048874574
19048881349
19048887330
19048894044
19048901124
19048907533
19048914979
19048920106
19048927491
19048934694
19048940431
19048947877
19048955323
19048962098
19048967225
19048975648
19048980653
19048987794
19048992860
19048999879
19049006227
19049012574
19049017640
19049023927
19049030030
19049036073
19049043275
19049048707
19049055421
19049060609
19049067506
19049073243
19049079469
19049085145
19049091615
19049099000
19049104615
19049109925
19049116212
19049121949
19049128724
19049135255
19049142091
19049147950
19049153443
19049159485
19049166260
19049172913
19049179383
19049185792
19049192322
19049198365
19049205750
19049211731
19049219483
19049227295
19049233826
19049239075
19049247071
19049254273
19049260315
19049267090
19049272827
19049279480
19049286499
19049291748
19049298889
19049304871
19049312012
19049321350
19049326782
19049334656
19049340576
19049348633
19049354553
19049362305
19049368958
19049376343
19049382935
19049390503
19049395203
19049402405
19049410767
19049417847
19049424255
19049431457
19049437561
19049443664
19049451538
19049457153
19049465210
19049470764
19049478576
19049485107
19049492248
19049497131
19049506103
19049510986
19049518554
19049527038
19049534362
19049540649
19049546447
19049554443
19049561706
19049567688
19049575744
19049581420
19049588867
19049596130
19049602600
19049609436
19049617492
19049622558
19049630798
19049639892
19049647582
19049656860
19049666992
19049675292
19049682678
19049691406
19049697509
19049704223
19049711120
19049717345
19049724609
19049730956
19049738158
19049744750
19049751342
19049757445
19049763976
19049770873
19049776916
19049783812
19049791503
19049798034
19049803893
19049811400
19049818053
19049825377
19049833190
19049842040
19049848510
19049854979
19049863951
19049871642
19049879698
19049887206
19049895262
19049903807
19049910155
19049918456
19049923705
19049931578
19049937865
19049945067
19049951720
19049959044
19049966063
19049973387
19049979613
19049987853
19049996214
19050002257
19050009825
19050015868
19050023375
19050029661
19050037108
19050044859
19050052305
19050058775
19050065123
19050072935
19050078978
19050086790
19050093138
19050101744
19050108946
19050115843
19050123472
19050131407
19050138365
19050146177
19050154112
19050159483
19050168516
19050174070
19050181944
19050189268
19050197691
19050205381
19050212217
19050219419
19050226194
19050233396
19050241758
19050247923
19050254698
19050261900
19050271848
19050278379
19050286008
19050294126
19050301878
19050309507
19050317564
19050326047
19050333921
19050343015
19050349912
19050358396
19050365354
19050372861
19050380369
19050388486
19050398191
19050405942
19050413266
19050419858
19050430356
19050437131
19050445493
19050452085
19050462888
19050470029
19050477231
19050484189
19050496457
19050504331
19050512509
19050517819
19050525876
19050532285
19050539487
19050544125
19050551389
19050557980
19050565366
19050573727
19050579038
19050588498
19050596127
19050602963
19050609555
19050617978
19050624142
19050630978
19050637021
19050642514
19050648984
19050656247
19050662350
19050669186
19050677426
19050684689
19050690487
19050697323
19050705014
19050709836
19050716977
19050722958
19050730038
19050735775
19050742184
19050749386
19050754879
19050761532
19050766720
19050774044
19050782467
19050788815
19050794186
19050800411
19050805844
19050811032
19050818173
19050823239
19050829708
19050835751
19050841183
19050848568
19050854000
19050861813
19050866818
19050874081
19050879757
19050885433
19050892574
19050898373
19050904110
19050910824
19050916622
19050923458
19050928463
19050933712
19050940731
19050946895
19050952267
19050958126
19050965145
19050972713
19050978451
19050984066
19050990352
19050996517
19051002437
19051009823
19051014766
19051021907
19051028804
19051034420
19051040584
19051047481
19051054317
19051061885
19051069271
19051074581
19051083309
19051088741
19051096492
19051103755
19051109798
19051116695
19051122859
19051128536
19051136287
19051142146
19051149043
19051155147
19051163692
19051170467
19051176692
19051183101
19051191341
19051198726
19051205928
19051214351
19051221248
19051227107
19051235042
19051242305
19051249934
19051255916
19051262935
19051270198
19051275203
19051281123
19051288508
19051296565
19051301814
19051309626
19051317195
19051323542
19051330806
19051336909
19051342524
19051348750
19051356074
19051363826
19051369807
19051375788
19051383357
19051390437
19051394892
19051402644
19051408686
19051415949
19051423335
19051430049
19051435603
19051443354
19051450495
19051457453
19051465327
19051472651
19051478877
19051483942
19051491206
19051496088
19051505183
19051511530
19051519892
19051525080
19051532770
19051538508
19051546259
19051551508
19051559260
19051565241
19051572443
19051579157
19051585077
19051591303
19051598932
19051604364
19051612177
19051619074
19051626825
19051633783
19051640375
19051645685
19051653315
19051660822
19051666254
19051672968
19051680597
19051689081
19051697443
19051703790
19051710993
19051717768
19051725275
19051733148
19051738886
19051746576
19051753717
19051760858
19051767816
19051776300
19051782892
19051789789
19051796197
19051803094
19051810602
19051820856
19051828363
19051837640
19051847040
19051856622
19051863946
19051873346
19051880426
19051890008
19051897638
19051905877
19051911187
19051919183
19051925836
19051933709
19051941339
19051948846
19051955804
19051961114
19051970819
19051976922
19051983758
19051991998
19051998956
19052006097
19052013116
19052020806
19052027398
19052035027
19052042535
19052050836
19052057671
19052066827
19052076043
19052081841
19052090630
19052097466
19052106316
19052113030
19052121697
19052128899
19052137627
19052143242
19052151970
19052161736
19052170708
19052192193
19052203545
19052216790
19052228203
19052240044
19052251580
19052263542
19052273613
19052284355
19052295769
19052310417
19052321709
19052330010
19052338860
19052347099
19052356194
19052365715
19052374443
19052385124
19052393181
19052402336
19052410576
19052420036
19052430839
19052441337
19052451042
19052461906
19052470817
19052480522
19052489433
19052499016
19052508598
19052518669
19052527702
19052536125
19052546135
19052554924
19052565483
19052573722
19052583183
19052592887
19052602775
19052610649
19052619987
19052631339
19052641654
19052652641
19052663810
19052673209
19052684928
19052695182
19052708488
19052721671
19052729240
19052739799
19052746512
19052756705
19052768363
19052776786
19052786124
19052795768
19052804557
19052815360
19052823722
19052834464
19052841361
19052852713
19052862906
19052873831
19052880423
19052891776
19052900565
19052911063
19052919974
19052927481
19052937674
19052948477
19052956595
19052966971
19052980521
19052997671
19053016714
19053035818
19053053824
19053074759
19053093863
19053114431
19053134085
19053151785
19053170584
19053183035
19053192617
19053202444
19053211050
19053225027
19053239187
19053254385
19053269277
19053285268
19053299367
19053308584
19053317922
19053326650
19053337636
19053346548
19053355276
19053364736
19053374502
19053387685
19053398366
19053407338
19053415822
19053426625
19053436696
19053445546
19053456044
19053466359
19053475514
19053484975
19053494985
19053504384
19053514028
19053524098
19053534474
19053545155
19053554799
19053566518
19053576649
19053583485
19053596242
19053605641
19053616383
19053625722
19053638173
19053647084
19053659474
19053675099
19053686329
19053699635
19053707997
19053719166
19053729176
19053737599
19053748341
19053758778
19053768727
19053776234
19053788807
19053796070
19053806324
19053816944
19053827931
19053837025
19053848499
19053858387
19053866749
19053876942
19053885181
19053894154
19053904529
19053913990
19053925037
19053936085
19053945423
19053954273
19053965076
19053973499
19053981739
19053990223
19053998890
19054004017
19054012195
19054018970
19054026966
19054033435
19054039783
19054045887
19054054309
19054060840
19054067981
19054073230
19054080676
19054090198
19054097034
19054103565
19054110340
19054116748
19054121936
19054131030
19054136646
19054143115
19054151904
19054158740
19054165210
19054171924
19054179065
19054186755
19054194080
19054201526
19054207263
19054214526
19054220752
19054225879
19054233630
19054241687
19054246692
19054254687
19054258716
19054268115
19054274157
19054281909
19054289172
19054295153
19054301623
19054308764
19054319018
19054323657
19054330676
19054337634
19054345019
19054352160
19054359484
19054365405
19054374316
19054380480
19054388415
19054397631
19054403185
19054412890
19054419726
19054427416
19054432787
19054440356
19054447192
19054454577
19054459582
19054466540
19054473009
19054478381
19054484789
19054491686
19054496264
19054503161
19054511034
19054515795
19054522936
19054530016
19054536181
19054542711
19054549303
19054555773
19054561693
19054567858
19054575121
19054580126
19054585924
19054592516
19054599169
19054604601
19054611193
19054616442
19054623095
19054627733
19054634386
19054641954
19054648851
19054655016
19054660936
19054666674
19054673143
19054679064
19054685900
19054692797
19054699693
19054704942
19054710314
19054716966
19054722521
19054729540
19054734850
19054742723
19054748521
19054756517
19054762743
19054769273
19054775438
19054782335
19054789476
19054794481
19054801134
19054805528
19054812181
19054817857
19054824510
19054830003
19054836229
19054841600
19054845811
19054852769
19054857408
19054864427
19054870103
19054875657
19054881822
19054887437
19054893358
19054898301
19054903672
19054910508
19054915879
19054921251
19054926805
19054933213
19054939012
19054943345
19054952500
19054957627
19054966111
19054972581
19054979600
19054984239
19054990952
19054998033
19055002793
19055010911
19055016282
19055023179
19055027085
19055033799
19055039109
19055046067
19055052415
19055059556
19055066270
19055070542
19055078355
19055082810
19055089524
19055093980
19055102280
19055107590
19055114487
19055121018
19055126206
19055131943
19055139084
19055144944
19055152024
19055159104
19055166428
19055172532
19055178940
19055184922
19055190720
19055198655
19055203354
19055210740
19055217575
19055222885
19055228257
19055235520
19055241196
19055248398
19055254441
19055262070
19055269394
19055274704
19055283554
19055293381
19055301071
19055307114
19055313278
19055319870
19055327561
19055335617
19055340622
19055350266
19055355576
19055362839
19055369186
19055374618
19055381332
19055387009
19055393845
19055401657
19055407211
19055413986
19055419540
19055426437
19055431991
19055438705
19055445236
19055451706
19055457931
19055464706
19055470627
19055476974
19055482895
19055489792
19055496383
19055502548
19055509811
19055514389
19055521530
19055527389
19055532638
19055539596
19055546981
19055554245
19055559310
19055566879
19055576034
19055582870
19055590804
19055597946
19055604537
19055612411
19055619186
19055626571
19055632308
19055638778
19055645797
19055652938
19055660323
19055665389
19055672591
19055678207
19055684981
19055690963
19055698043
19055703719
19055710616
19055717330
19055722335
19055730208
19055734969
19055744430
19055750533
19055757308
19055763900
19055772017
19055779464
19055787215
19055793746
19055798995
19055806075
19055814009
19055820967
19055826583
19055834639
19055840255
19055848555
19055856612
19055863570
19055870650
19055877791
19055883895
19055891524
19055898848
19055907515
19055914168
19055922774
19055928633
19055938216
19055945601
19055951643
19055960371
19055968611
19055976607
19055983504
19055992720
19055999251
19056006453
19056017012
19056023298
19056031843
19056039839
19056046858
19056052534
19056060225
19056067122
19056074629
19056084700
19056093794
19056099714
19056111006
19056118147
19056124617
19056132551
19056141951
19056149153
19056155989
19056163130
19056169538
19056175642
19056184492
19056191389
19056200056
19056207014
19056213911
19056221296
19056227827
19056233625
19056243879
19056252058
19056263471
19056272810
19056282636
19056289655
19056298627
19056306379
19056313337
19056319501
19056327375
19056332807
19056340864
19056346723
19056353681
19056359968
19056365461
19056370771
19056377851
19056383344
19056390607
19056396466
19056403913
19056411786
19056416791
19056422650
19056429975
19056437848
19056442731
19056450482
19056455426
19056463727
19056469525
19056475812
19056482831
19056488996
19056496076
19056502179
19056507672
19056516095
19056520856
19056528302
19056532452
19056539777
19056545026
19056552350
19056557477
19056564984
19056570904
19056576337
19056583722
19056590619
19056594891
19056601178
19056606915
19056613385
19056620282
19056624798
19056633038
19056638531
19056644085
19056650616
19056656231
19056662091
19056668011
19056674908
19056681378
19056686749
19056692059
19056699627
19056705365
19056710431
19056717755
19056723309
19056728924
19056736065
19056741680
19056748272
19056753826
19056760723
19056765850
19056773113
19056781109
19056787762
19056795818
19056801067
19056807781
19056814007
19056821636
19056828228
19056833721
19056843060
19056852337
19056859905
19056867718
19056875896
19056882610
19056891033
19056898418
19056904034
19056912578
19056919720
19056926128
19056931194
19056939251
19056946697
19056953350
19056960918
19056967266
19056973552
19056979961
19056987651
19056993511
19057001567
19057007305
19057013835
19057021282
19057026470
19057033855
19057039836
19057047283
19057053020
19057060161
19057067058
19057073589
19057079997
19057087261
19057093974
19057101116
19057107280
19057113628
19057121623
19057127910
19057135112
19057141277
19057148418
19057155925
19057161052
19057168559
19057173503
19057180766
19057187785
19057194133
19057201152
19057208171
19057215739
19057222392
19057229899
19057236552
19057242228
19057250224
19057255900
19057264018
19057269755
19057277751
19057282756
19057290446
19057295817
19057303935
19057311137
19057317302
19057324321
19057331950
19057337748
19057345256
19057350505
19057357646
19057364665
19057372172
19057378886
19057385539
19057391459
19057397196
19057404704
19057409342
19057416789
19057422892
19057428690
19057435831
19057441935
19057447672
19057455851
19057461710
19057470377
19057490092
19057499064
19057506876
19057513285
19057526041
19057536051
19057542460
19057551310
19057558146
19057566874
19057575052
19057582254
19057589335
19057594339
19057602091
19057606974
19057614725
19057619730
19057630533
19057637491
19057643778
19057649698
19057655802
19057661173
19057668863
19057676187
19057682901
19057688944
19057697000
19057703897
19057709879
19057715433
19057723428
19057729837
19057737650
19057744180
19057750040
19057756998
19057762979
19057770731
19057776651
19057783426
19057791238
19057798685
19057803811
19057811075
19057817666
19057823038
19057831033
19057836465
19057845498
19057853555
19057860818
19057866555
19057875345
19057880899
19057890359
19057896402
19057905435
19057913674
19057919351
19057926553
19057934610
19057941262
19057947732
19057955422
19057964028
19057969888
19057978005
19057984414
19057992410
19057998330
19058005166
19058011636
19058022195
19058029763
19058036050
19058042153
19058049050
19058055764
19058061684
19058069253
19058076699
19058082497
19058089089
19058094948
19058099465
19058107033
19058113503
19058119912
19058127297
19058132912
19058138161
19058143776
19058150551
19058156411
19058161538
19058168923
19058175087
19058181008
19058187661
19058195595
19058202370
19058207558
19058215615
19058221230
19058229653
19058238381
19058244789
19058250588
19058256569
19058263771
19058270119
19058276955
19058283180
19058287636
19058294899
19058300514
19058305885
19058313271
19058317665
19058323463
19058328407
19058333290
19058340126
19058345497
19058352272
19058359169
19058365028
19058370338
19058373207
19058379860
19058385841
19058391273
19058396217
19058404457
19058409462
19058416542
19058421730
19058428077
19058433265
19058438026
19058445045
19058449501
19058456337
19058461342
19058466713
19058472633
19058478431
19058483436
19058492347
19058496864
19058503089
19058508094
19058514259
19058520362
19058526039
19058533485
19058538795
19058544166
19058550086
19058556922
19058564735
19058569007
19058578529
19058583656
19058591163
19058598060
19058604835
19058609290
19058616187
19058621864
19058630775
19058636817
19058641395
19058648780
19058653480
19058659949
19058666297
19058675025
19058680884
19058688270
19058693336
19058700355
19058707679
19058712562
19058720679
19058727942
19058734290
19058740943
19058747229
19058754554
19058760657
19058767066
19058775794
19058783545
19058791846
19058798194
19058804419
19058813025
19058819678
19058826880
19058833838
19058838782
19058847205
19058852698
19058860510
19058865210
19058872901
19058879065
19058886023
19058893469
19058898169
19058905615
19058910254
19058919714
19058925391
19058931128
19058937354
19058943396
19058949561
19058957251
19058963904
19058971167
19058976538
19058983679
19058989172
19058996008
19059001013
19059007910
19059015661
19059022925
19059029028
19059033789
19059040625
19059047155
19059053015
19059059179
19059068213
19059073034
19059080175
19059084631
19059091833
19059097265
19059103003
19059109594
19059117468
19059123571
19059130834
19059136938
19059144323
19059148840
19059156469
19059164160
19059171484
19059178320
19059183447
19059191503
19059197057
19059204992
19059210180
19059218298
19059225561
19059232214
19059239416
19059245885
19059252843
19059259130
19059267431
19059275304
19059280492
19059288427
19059295324
19059301732
19059307958
19059316747
19059323705
19059330541
19059339086
19059345495
19059351232
19059358678
19059365636
19059372716
19059380407
19059388341
19059396764
19059403600
19059412084
19059420507
19059429235
19059436437
19059445104
19059455174
19059462316
19059470555
19059478307
19059484105
19059491612
19059498509
19059506078
19059511327
19059519505
19059524815
19059534886
19059541661
19059549412
19059557103
19059564000
19059572056
19059578404
19059585240
19059593663
19059600133
19059606907
19059615452
19059622166
19059630955
19059637486
19059644200
19059650609
19059656712
19059665745
19059671116
19059680149
19059686070
19059695042
19059700047
19059709507
19059716587
19059723545
19059730381
19059739537
19059746006
19059752476
19059758640
19059769200
19059775608
19059781101
19059788731
19059796604
19059801914
19059808567
19059815769
19059822056
19059827915
19059832554
19059840855
19059846592
19059852512
19059859898
19059865757
19059870823
19059877964
19059883335
19059890720
19059895115
19059902134
19059908603
19059913730
19059920139
19059925266
19059930454
19059937290
19059944370
19059950535
19059956028
19059962558
19059968418
19059975742
19059981845
19059987644
19059994785
19060000888
19060006504
19060011997
19060019077
19060025730
19060030551
19060036289
19060043247
19060049289
19060055942
19060061862
19060071689
19060078464
19060085300
19060091403
19060098605
19060104831
19060112582
19060119663
19060125888
19060132297
19060138705
19060143954
19060149142
19060155368
19060161594
19060165927
19060172214
19060177951
19060183200
19060189059
19060195163
19060200778
19060207431
19060214938
19060221530
19060225680
19060232028
19060238559
19060245150
19060252902
19060259433
19060266024
19060272067
19060277499
19060284640
19060288790
19060296908
19060302462
19060308810
19060315341
19060322238
19060329257
19060336215
19060344332
19060350741
19060356906
19060363803
19060371554
19060377963
19060383029
19060391268
19060397372
19060403536
19060410372
19060417818
19060423190
19060429903
19060435641
19060441012
19060449801
19060456637
19060462679
19060468294
19060474276
19060479525
19060487215
19060492464
19060500399
19060506380
19060511934
19060518099
19060525545
19060529696
19060536715
19060543795
19060551485
19060558443
19060565645
19060572420
19060579195
19060585482
19060590548
19060596773
19060602999
19060608980
19060614473
19060621981
19060627596
19060633943
19060641023
19060647981
19060654207
19060660555
19060669283
19060675691
19060682039
19060689790
19060697237
19060702242
19060710725
19060719331
19060726106
19060733308
19060739290
19060744051
19060752840
19060758882
19060764558
19060769990
19060777376
19060783479
19060789461
19060798372
19060804048
19060813020
19060817842
19060824922
19060832307
19060838472
19060843538
19060851655
19060858857
19060865205
19060871064
19060878877
19060884309
19060892060
19060899568
19060906160
19060912812
19060918977
19060926667
19060932832
19060939607
19060946015
19060953706
19060960603
19060968232
19060975007
19060982148
19060988557
19060995210
19061003571
19061010957
19061017731
19061024812
19061031342
19061038850
19061045686
19061052949
19061061188
19061066376
19061074982
19061081940
19061088471
19061094880
19061103119
19061109162
19061116791
19061122529
19061131928
19061139435
19061146637
19061154145
19061160675
19061167572
19061174591
19061181305
19061191193
19061199066
19061206391
19061214081
19061221466
19061228546
19061236115
19061242768
19061251068
19061257111
19061266327
19061274323
19061281830
19061289581
19061297638
19061304779
19061313080
19061321930
19061327911
19061336273
19061343780
19061351654
19061359283
19061367767
19061379242
19061386993
19061393707
19061400726
19061409576
19061416107
19061425201
19061432220
19061440338
19061449127
19061454986
19061463592
19061471832
19061478729
19061483917
19061491424
19061498626
19061505218
19061509979
19061519317
19061525970
19061532501
19061538604
19061546661
19061552459
19061558807
19061565032
19061572967
19061578216
19061586273
19061592742
19061599822
19061606292
19061613677
19061620086
19061626739
19061633941
19061639251
19061646941
19061654571
19061660613
19061667449
19061673308
19061680266
19061686614
19061693694
19061700286
19061708098
19061715789
19061723174
19061731048
19061737639
19061743804
19061752471
19061760711
19061769561
19061774932
19061780547
19061788054
19061793730
19061800688
19061807830
19061813262
19061820220
19061826140
19061830901
19061838774
19061847685
19061854399
19061860137
19061866667
19061873564
19061878386
19061885832
19061892058
19061900237
19061907134
19061916350
19061922942
19061929900
19061935576
19061942229
19061947844
19061954375
19061960234
19061966154
19061971648
19061978178
19061985380
19061991057
19061997648
19062002958
19062009672
19062021330
19062027006
19062035307
19062043486
19062053068
19062061857
19062067900
19062072783
19062080351
19062087187
19062094999
19062099760
19062106718
19062112211
19062119474
19062125517
19062133085
19062137907
19062145658
19062152128
19062159391
19062164457
19062171720
19062179044
19062184110
19062193571
19062200529
19062207304
19062215177
19062221891
19062228300
19062234891
19062241727
19062250272
19062256254
19062262357
19062268766
19062277067
19062282621
19062290983
19062297819
19062305204
19062310880
19062318082
19062324369
19062329984
19062336942
19062342618
19062349454
19062357511
19062364591
19062372403
19062379117
19062384366
19062391629
19062400540
19062408658
19062414884
19062421598
19062428311
19062433499
19062441312
19062448087
19062456326
19062462003
19062469144
19062474759
19062481900
19062488065
19062493497
19062502896
19062509854
19062516141
19062523526
19062528958
19062535306
19062542325
19062548428
19062555569
19062562955
19062570096
19062576260
19062582425
19062588467
19062596341
19062603543
19062608914
19062616360
19062624295
19062629422
19062637295
19062644131
19062654568
19062662747
19062671780
19062678921
19062682400
19062692959
19062699002
19062708889
19062715786
19062720974
19062729153
19062734158
19062741665
19062748501
19062754482
19062761929
19062768154
19062775662
19062782192
19062788113
19062795010
19062803127
19062810818
19062817532
19062826565
19062833401
19062840237
19062847439
19062854153
19062860134
19062869167
19062875759
19062882717
19062886867
19062899013
19062905971
19062912868
19062919887
19062926845
19062934047
19062940944
19062946987
19062955532
19062961025
19062969997
19062976467
19062983974
19062991176
19062999782
19063008998
19063016872
19063023952
19063032253
19063038722
19063046474
19063055812
19063064906
19063071925
19063079677
19063089259
19063095607
19063105190
19063113979
19063121913
19063128383
19063136439
19063145778
19063154262
19063160853
19063168422
19063176784
19063185451
19063192042
19063200099
19063209437
19063217616
19063225795
19063234340
19063241969
19063251796
19063259120
19063266932
19063274073
19063283412
19063288722
19063297511
19063303309
19063311976
19063320338
19063326380
19063332606
19063339198
19063346766
19063352870
19063359828
19063364954
19063372523
19063379298
19063384913
19063393458
19063398890
19063409083
19063414820
19063422633
19063429041
19063436915
19063442713
19063449549
19063457117
19063462122
19063470240
19063477198
19063483668
19063489893
19063497767
19063503809
19063510340
19063515467
19063522913
19063528162
19063535608
19063540552
19063548059
19063554468
19063561243
19063566614
19063573511
19063580103
19063584436
19063592127
19063597986
19063603723
19063609705
19063615686
19063622766
19063627649
19063634241
19063639124
19063645777
19063652490
19063658716
19063663294
19063670068
19063675806
19063681177
19063687463
19063696314
19063701868
19063708032
19063714807
19063719080
19063725427
19063731164
19063738611
19063744104
19063750146
19063756860
19063761804
19063769189
19063775964
19063782312
19063787744
19063795251
19063800866
19063805993
19063813196
19063821252
19063826135
19063834314
19063840478
19063847924
19063852746
19063860192
19063866845
19063874169
19063881066
19063887780
19063893579
19063900720
19063907189
19063912499
19063921166
19063928918
19063933740
19063940820
19063948754
19063955407
19063961450
19063970666
19063982018
19063987817
19063996178
19064001916
19064010339
19064017297
19064025170
19064031029
19064038232
19064044091
19064051659
19064057824
19064065331
19064072838
19064078454
19064085595
19064093285
19064099816
19064106347
19064112877
19064117760
19064127770
19064134484
19064141015
19064147240
19064154992
19064161095
19064167199
19064173851
19064182518
19064189659
19064199547
19064208214
19064213707
19064221337
19064228661
19064236656
19064242088
19064249962
19064256249
19064262840
19064269615
19064275963
19064284508
19064290489
19064297142
19064305016
19064311851
19064319969
19064325828
19064333275
19064340172
19064346763
19064352928
19064359886
19064366051
19064371055
19064378380
19064386619
19064392540
19064398765
19064404869
19064411216
19064418724
19064424949
19064432090
19064437828
19064443443
19064452293
19064458397
19064465599
19064473777
19064479759
19064487693
19064496238
19064502281
19064510276
19064515953
19064523887
19064530296
19064538108
19064546531
19064553611
19064560691
19064568015
19064574424
19064579795
19064588096
19064595542
19064606345
19064613364
19064620994
19064626731
19064636069
19064641746
19064649741
19064657859
19064667930
19064675620
19064683555
19064694053
19064700644
19064708152
19064717795
19064724082
19064731833
19064737998
19064743735
19064752036
19064757163
19064766013
19064771811
19064780539
19064786032
19064794577
19064801901
19064808127
19064813620
19064822043
19064829733
19064836020
19064843405
19064849570
19064857443
19064863669
19064869772
19064877707
19064885214
19064891440
19064898825
19064907980
19064915243
19064922690
19064929648
19064938193
19064949423
19064957358
19064963461
19064973715
19064981161
19064989706
19064997397
19065005331
19065011923
19065020468
19065030111
19065037985
19065044394
19065051901
19065057455
19065066305
19065073507
19065080465
19065087912
19065094015
19065100302
19065106344
19065112264
19065118368
19065126669
19065132162
19065138632
19065145651
19065151388
19065158346
19065164205
19065172750
19065179403
19065184225
19065191549
19065198263
19065204244
19065210592
19065216573
19065222616
19065230184
19065236654
19065242208
19065247823
19065255331
19065259664
19065267171
19065273397
19065281026
19065287008
19065292867
19065300557
19065306051
19065311788
19065318990
19065325216
19065337972
19065344381
19065350484
19065357991
19065364705
19065370565
19065377828
19065385640
19065392476
19065399434
19065405049
19065411031
19065416402
19065422933
19065429280
19065435079
19065441853
19065446248
19065453389
19065459920
19065466695
19065471761
19065478047
19065484090
19065489766
19065496358
19065502888
19065508931
19065516194
19065521870
19065526875
19065533955
19065538838
19065545857
19065552937
19065558125
19065564534
19065571614
19065578755
19065583149
19065590718
19065595234
19065602070
19065608418
19065616841
19065622395
19065631367
19065636555
19065644368
19065650471
19065658284
19065663472
19065671772
19065679280
19065685383
19065691181
19065699360
19065706806
19065712544
19065718281
19065726154
19065733906
19065740498
19065746845
19065751850
19065760334
19065765278
19065773212
19065780659
19065786762
19065791645
19065799641
19065806110
19065812580
19065818317
19065826191
19065831867
19065838215
19065844868
19065851032
19065857990
19065864277
19065871418
19065877888
19065884235
19065892109
19065898761
19065904560
19065911213
19065918476
19065924274
19065932941
19065939045
19065945453
19065952838
19065960895
19065967426
19065974384
19065983905
19065991107
19065999042
19066005878
19066014972
19066021564
19066028278
19066036334
19066042194
19066049396
19066055682
19066062885
19066068378
19066075458
19066081317
19066088641
19066093707
19066100970
19066107379
19066114825
19066120380
19066127704
19066136188
19066142779
19066149005
19066153949
19066161029
19066168414
19066174762
19066181964
19066189105
19066197040
19066203692
19066209491
19066217608
19066223712
19066231829
19066236956
19066245074
19066250872
19066259661
19066265582
19066274249
19066282489
19066288714
19066297991
19066306170
19066313006
19066318682
19066326922
19066335711
19066342913
19066349688
19066357195
19066364764
19066372088
19066380206
19066387041
19066393450
19066400774
19066407854
19066415301
19066422686
19066429156
19066436236
19066444781
19066452166
19066459307
19066468340
19066477068
19066484636
19066490252
19066497698
19066504290
19066511675
19066520891
19066531023
19066537310
19066545244
19066551470
19066561052
19066570635
19066576738
19066585955
19066594377
19066602129
19066609636
19066617449
19066625017
19066632951
19066641435
19066648454
19066662492
19066672136
19066679643
19066688554
19066701250
19066708696
19066718400
19066726457
19066736040
19066743608
19066750200
19066757036
19066765520
19066772172
19066782182
19066789567
19066796769
19066807512
19066813005
19066821244
19066830278
19066837663
19066845292
19066857682
19066863969
19066870317
19066876481
19066882585
19066888505
19066895951
19066902238
19066908280
19066916337
19066922624
19066930070
19066935807
19066943070
19066949296
19066956193
19066961991
19066969376
19066976518
19066981644
19066988236
19066995744
19067003922
19067010209
19067016129
19067020829
19067027909
19067032609
19067042191
19067047440
19067053605
19067060624
19067066605
19067072465
19067078385
19067083756
19067091080
19067098343
19067103959
19067110306
19067117630
19067123002
19067129776
19067136979
19067141190
19067148575
19067152848
19067160965
19067166642
19067172440
19067178971
19067184708
19067192581
19067199356
19067205521
19067209854
19067216568
19067222366
19067228958
19067235672
19067241715
19067245865
19067252457
19067258438
19067264786
19067270523
19067276932
19067283157
19067289810
19067294083
19067302322
19067309219
19067317825
19067323685
19067332962
19067339981
19067344986
19067355911
19067363418
19067368240
19067377151
19067383438
19067389114
19067394302
19067401443
19067406448
19067414199
19067420974
19067428970
19067435562
19067443130
19067450210
19067455398
19067461441
19067468704
19067475662
19067482192
19067488479
19067495498
19067501663
19067506606
19067514602
19067522170
19067529800
19067535354
19067543044
19067548049
19067555923
19067561660
19067567947
19067575942
19067583816
19067589431
19067596267
19067602737
19067607803
19067616836
19067623366
19067629714
19067636001
19067642653
19067650344
19067655959
19067662307
19067670363
19067677077
19067685134
19067691237
19067699172
19067704360
19067711562
19067718032
19067725295
19067732741
19067740126
19067746901
19067753310
19067759658
19067766310
19067772475
19067780593
19067786879
19067792861
19067800734
19067807082
19067812819
19067820204
19067825881
19067833083
19067838881
19067844740
19067851943
19067858229
19067865614
19067871413
19067878676
19067884718
19067891798
19067898329
19067905836
19067911757
19067918715
19067925246
19067932631
19067944960
19067950880
19067957228
19067965162
19067972120
19067979933
19067986952
19067995375
19068002882
19068007887
19068015699
19068020582
19068027967
19068034559
19068041639
19068049513
19068055799
19068061781
19068068006
19068076185
19068086805
19068093702
19068104200
19068113600
19068123426
19068133802
19068141981
19068152357
19068159803
19068170789
19068180921
19068190504
19068199537
19068209241
19068219617
19068225355
19068233655
19068239576
19068247266
19068253309
19068260572
19068267103
19068274793
19068280713
19068288404
19068294141
19068301587
19068307203
19068314283
19068320691
19068327100
19068336682
19068344312
19068350721
19068356031
19068365308
19068370740
19068376905
19068386121
19068393384
19068401746
19068408032
19068414624
19068422864
19068428113
19068435986
19068442090
19068450024
19068455701
19068463513
19068469678
19068478406
19068485974
19068492993
19068500928
19068507947
19068514966
19068523694
19068529248
19068538342
19068544385
19068551831
19068559765
19068567700
19068575390
19068583142
19068591565
19068598706
19068604748
19068611767
19068618237
19068625256
19068633557
19068639965
19068646557
19068652417
19068659252
19068665661
19068672619
19068679638
19068688305
19068694531
19068700878
19068708935
19068714672
19068721935
19068729809
19068734509
19068741955
19068746594
19068757397
19068764294
19068770763
19068776379
19068785351
19068791698
19068797741
19068801098
19068810436
19068815380
19068822826
19068830517
19068836010
19068842296
19068849132
19068855114
19068860607
19068866344
19068873302
19068881359
19068885875
19068893017
19068899547
19068905346
19068911632
19068917064
19068924144
19068931163
19068936412
19068942577
19068947460
19068953807
19068960216
19068966930
19068972972
19068978710
19068987255
19068991954
19068998607
19069003978
19069010814
19069016612
19069022899
19069027660
19069033946
19069039745
19069045726
19069052074
19069059093
19069064586
19069070628
19069076244
19069081981
19069089183
19069095348
19069100719
19069108958
19069115916
19069120494
19069127025
19069133494
19069139964
19069145885
19069153270
19069158824
19069165660
19069172557
19069178599
19069185862
19069191050
19069197886
19069206126
19069213450
19069219737
19069225230
19069232737
19069237803
19069246348
19069253733
19069265391
19069274058
19069279612
19069287303
19069292491
19069299876
19069308238
19069313487
19069322642
19069327647
19069335398
19069340220
19069348643
19069353770
19069361948
19069367136
19069374461
19069379343
19069386729
19069393931
19069400156
19069407786
19069416209
19069422678
19069428416
19069435801
19069441477
19069448984
19069454722
19069460764
19069467844
19069475290
19069481882
19069488169
19069495127
19069501413
19069508738
19069515146
19069521799
19069528269
19069533213
19069542612
19069549509
19069556223
19069562876
19069571359
19069577097
19069584909
19069590402
19069597544
19069602976
19069610483
19069617990
19069625192
19069630747
19069637888
19069643564
19069650888
19069657846
19069664743
19069671457
19069678354
19069684457
19069691721
19069697885
19069703744
19069710458
19069717538
19069726144
19069732309
19069739267
19069746103
19069751718
19069758188
19069766061
19069775216
19069781198
19069789315
19069796579
19069801828
19069810617
19069818368
19069826669
19069833566
19069839975
19069847604
19069854623
19069861520
19069869210
19069876107
19069883798
19069891610
19069897653
19069904916
19069910653
19069920663
19069929208
19069938485
19069946725
19069957223
19069964486
19069971444
19069980416
19069987191
19069994210
19070002450
19070008492
19070015694
19070022530
19070028206
19070034554
19070041878
19070047494
19070055245
19070061654
19070069771
19070077645
19070085030
19070091927
19070097176
19070104927
19070112679
19070121346
19070127266
19070136544
19070142830
19070150276
19070158821
19070166268
19070172188
19070180489
19070187508
19070195198
19070204231
19070209419
19070218758
19070225288
19070234383
19070242806
19070252937
19070258797
19070267158
19070274788
19070283028
19070291817
19070299812
19070307869
19070315925
19070323982
19070333076
19070341255
19070349312
19070355781
19070363228
19070373237
19070382698
19070388923
19070396797
19070403877
19070411628
19070419502
19070425788
19070431709
19070437751
19070445503
19070451911
19070457405
19070463142
19070470161
19070477424
19070483711
19070489997
19070496284
19070501167
19070508308
19070516364
19070521308
19070528877
19070536079
19070542732
19070547553
19070555000
19070559882
19070567390
19070574409
19070580451
19070588325
19070593635
19070601264
19070606757
19070612372
19070619575
19070626288
19070631354
19070640082
19070646491
19070653388
19070660651
19070667853
19070674811
19070683905
19070690741
19070697760
19070705695
