19196360158
19196365346
19196370290
19196375844
19196381277
19196385976
19196391897
19196396840
19196401784
19196407400
19196412710
19196418752
19196423879
19196428762
19196433584
19196439199
19196443898
19196449209
19196454519
19196460073
19196465078
19196470082
19196475942
19196481374
19196488149
19196495107
19196500356
19196506276
19196513661
19196519887
19196524159
19196534230
19196540334
19196546559
19196552480
19196559987
19196565602
19196575002
19196582143
19196589894
19196596669
19196603200
19196609975
19196619740
19196627736
19196633656
19196641652
19196648610
19196654652
19196662038
19196669545
19196676991
19196684621
19196691579
19196698170
19196705678
19196711598
19196720082
19196726674
19196734303
19196741261
19196748341
19196754994
19196760365
19196768788
19196776844
19196783741
19196793080
19196799977
19196807118
19196814930
19196824208
19196831105
19196838063
19196846302
19196852223
19196861744
19196870045
19196875660
19196883412
19196890247
19196898243
19196906483
19196914112
19196921497
19196927418
19196935719
19196943165
19196949879
19196957020
19196965931
19196970325
19196980213
19196988087
19196995655
19197002308
19197011402
19197018116
19197024830
19197033985
19197040516
19197048694
19197056141
19197063160
19197072620
19197080799
19197088550
19197096729
19197103992
19197112415
19197120471
19197127613
19197134632
19197142505
19197149524
19197155811
19197165454
19197171924
19197179675
19197186084
19197196216
19197204028
19197213977
19197221790
19197228931
19197237659
19197246326
19197254321
19197261645
19197269946
19197276965
19197283008
19197290027
19197299426
19197308886
19197315539
19197322986
19197330920
19197338488
19197344897
19197352588
19197362170
19197369555
19197377246
19197383105
19197391955
19197400073
19197406359
19197414904
19197422351
19197431262
19197436633
19197445178
19197453539
19197459826
19197468554
19197475390
19197484423
19197491869
19197498583
19197505724
19197513842
19197522082
19197530016
19197537646
19197544909
19197551989
19197558886
19197568407
19197576525
19197583422
19197591601
19197598375
19197605944
19197614428
19197621386
19197628954
19197637377
19197644091
19197650805
19197659166
19197666063
19197675158
19197683153
19197691942
19197699144
19197705980
19197712511
19197718920
19197726183
19197732958
19197743944
19197752550
19197760790
19197767748
19197775987
19197783983
19197791124
19197799486
19197806688
19197816087
19197822679
19197830308
19197837633
19197846788
19197856248
19197862657
19197871263
19197878648
19197885972
19197894273
19197903062
19197910325
19197919786
19197926927
19197935594
19197943223
19197953416
19197958360
19197967149
19197975084
19197983140
19197991136
19197998887
19198006028
19198011521
19198018907
19198026658
19198036668
19198043138
19198050828
19198057664
19198067063
19198074815
19198081101
19198087571
19198097276
19198104966
19198111985
19198118577
19198127488
19198134812
19198142930
19198148118
19198157151
19198164414
19198171128
19198176743
19198184617
19198191575
19198196946
19198205796
19198211716
19198218491
19198226487
19198233445
19198241684
19198250657
19198257553
19198266098
19198275437
19198282151
19198288925
19198296860
19198301255
19198310288
19198317307
19198326584
19198334397
19198342270
19198348740
19198356491
19198363693
19198369064
19198378403
19198386826
19198393234
19198398483
19198406906
19198414047
19198420700
19198428390
19198435471
19198443100
19198450363
19198456833
19198464401
19198472214
19198479599
19198488510
19198494430
19198503586
19198511947
19198519638
19198528671
19198537094
19198545639
19198553268
19198562545
19198571029
19198578292
19198585739
19198593673
19198602157
19198611434
19198619308
19198626693
19198635177
19198643173
19198650985
19198658248
19198666671
19198674789
19198682967
19198690475
19198697860
19198706527
19198714034
19198722701
19198730025
19198734969
19198746078
19198753402
19198763351
19198770858
19198776839
19198785689
19198794112
19198799239
19198809127
19198812850
19198826095
19198833480
19198841842
19198847518
19198853377
19198863753
19198869307
19198876326
19198882674
19198890181
19198897261
19198904036
19198910994
19198918440
19198923628
19198930709
19198935958
19198943099
19198950057
19198959639
19198966292
19198972884
19198980452
19198987166
19198993636
19198999251
19199007918
19199014632
19199022200
19199026228
19199034346
19199040999
19199047591
19199054365
19199061751
19199067732
19199074385
19199080916
19199086348
19199093306
19199100813
19199109968
19199118574
19199124617
19199133711
19199139509
19199147444
19199154829
19199161665
19199171064
19199178694
19199184919
19199194929
19199201094
19199209211
19199217817
19199227461
19199238386
19199245771
19199253706
19199264082
19199268903
19199279401
19199285749
19199293440
19199300581
19199305891
19199313459
19199319074
19199328352
19199333540
19199341840
19199347211
19199355451
19199361249
19199369733
19199378156
19199386945
19199393415
19199401349
19199409406
19199417951
19199424299
19199433393
19199442121
19199448407
19199456098
19199463727
19199470563
19199479047
19199486798
19199494367
19199500897
19199508588
19199517072
19199522687
19199531598
19199539227
19199548505
19199557477
19199566144
19199574262
19199582074
19199589337
19199597882
19199605084
19199612286
19199619000
19199628949
19199635724
19199643536
19199650189
19199659894
19199666974
19199674725
19199680768
19199688763
19199697125
19199704205
19199710431
19199719037
19199727093
19199735211
19199741192
19199745709
19199756634
19199762371
19199771832
19199776409
19199787762
19199795269
19199802471
19199810772
19199819134
19199826092
19199835735
19199841351
19199850750
19199860088
19199866863
19199873333
19199883831
19199890484
19199899029
19199905682
19199914227
19199923748
19199932354
19199938702
19199946819
19199954082
19199961529
19199972271
19199981304
19199991436
19200000713
19200007915
19200016887
19200026836
19200035442
19200041790
19200051982
19200061626
19200070598
19200077678
19200085918
19200092388
19200100200
19200106182
19200115459
19200121501
19200130351
19200136272
19200145061
19200151531
19200160625
19200166606
19200174785
19200182658
19200188457
19200197551
19200203044
19200213237
19200221049
19200228679
19200234355
19200244121
19200251384
19200256511
19200262858
19200269511
19200275371
19200281596
19200288249
19200294352
19200300639
19200307292
19200312419
19200318644
19200324931
19200331157
19200337931
19200343608
19200350200
19200356791
19200363932
19200368693
19200376628
19200381694
19200389323
19200394511
19200400614
19200407389
19200413615
19200418803
19200426493
19200432353
19200438456
19200444254
19200450846
19200456828
19200462443
19200467570
19200476176
19200482218
19200489603
19200495829
19200501261
19200507365
19200513346
19200518595
19200524821
19200532267
19200538492
19200544474
19200549357
19200555704
19200561014
19200568827
19200574442
19200581522
19200584940
19200592081
19200597757
19200605387
19200609293
19200616251
19200622110
19200628275
19200635172
19200641947
19200648539
19200653666
19200660501
19200668375
19200675882
19200686258
19200692057
19200697855
19200703897
19200712137
19200717813
19200725138
19200732034
19200737894
19200743814
19200750162
19200755960
19200763223
19200771097
19200775858
19200782755
19200787759
19200795694
19200801370
19200807840
19200813699
19200821146
19200825418
19200833475
19200840555
19200845804
19200853067
19200857583
19200864786
19200871866
19200878946
19200884622
19200891336
19200896890
19200904580
19200909951
19200919107
19200925027
19200932901
19200939615
19200946084
19200952249
19200959146
19200965432
19200972573
19200979043
19200985452
19200991799
19200998208
19201004251
19201010598
19201017312
19201023965
19201030618
19201035439
19201043191
19201048074
19201055398
19201062295
19201068887
19201075967
19201082497
19201088052
19201094582
19201102090
19201108437
19201115884
19201122231
19201127785
19201135049
19201142922
19201148720
19201154214
19201162087
19201168252
19201175637
19201181618
19201188332
19201194985
19201201088
19201208230
19201212624
19201219765
19201227822
19201236489
19201243019
19201250588
19201257668
19201264443
19201274330
19201288857
19201297402
19201305336
19201312050
19201320107
19201327187
19201334816
19201341957
19201349465
19201355507
19201362831
19201368752
19201376015
19201383400
19201391335
19201396645
19201402077
19201410194
19201416298
19201423317
19201429542
19201435768
19201441933
19201448952
19201455238
19201462135
19201465919
19201474525
19201480934
19201487587
19201493690
19201500648
19201507362
19201513832
19201520729
19201527931
19201532997
19201541969
19201550575
19201557716
19201564796
19201571937
19201576881
19201585548
19201593116
19201601295
19201608375
19201613868
19201622352
19201628150
19201636512
19201644142
19201651771
19201660011
19201666541
19201671851
19201680518
19201685950
19201693275
19201700416
19201707252
19201714576
19201721351
19201727027
19201736671
19201742591
19201750953
19201759009
19201767432
19201776343
19201783057
19201788855
19201796485
19201804419
19201812110
19201819983
19201828650
19201834571
19201842139
19201850074
19201855811
19201864051
19201870276
19201878211
19201886817
19201893714
19201901465
19201907813
19201917639
19201924597
19201931677
19201938757
19201947669
19201952368
19201964087
19201970557
19201980017
19201987524
19201995032
19202000037
19202013342
19202020117
19202026099
19202032690
19202040320
19202048743
19202055212
19202062353
19202068335
19202074621
19202082068
19202088904
19202093664
19202101965
19202109350
19202116308
19202122839
19202129248
19202135778
19202140600
19202147802
19202154516
19202160620
19202167761
19202173559
19202178442
19202186132
19202193395
19202199255
19202206335
19202214208
19202220068
19202225256
19202232641
19202237646
19202242346
19202249242
19202256933
19202263097
19202267370
19202275121
19202279699
19202285802
19202292150
19202298376
19202305700
19202311925
19202317480
19202322240
19202328832
19202333654
19202340246
19202345190
19202354528
19202360204
19202366186
19202371862
19202377355
19202383214
19202389074
19202396276
19202401647
19202407567
19202414037
19202419835
19202425451
19202431676
19202438146
19202444921
19202449926
19202455602
19202463353
19202469091
19202475682
19202482335
19202488195
19202494481
19202499730
19202506261
19202512670
19202518407
19202524449
19202531163
19202538060
19202544896
19202549718
19202555821
19202562840
19202569554
19202584019
19202593541
19202600560
19202606724
19202617406
19202626927
19202633824
19202642674
19202649632
19202656041
19202662022
19202668675
19202674962
19202683018
19202689305
19202695591
19202702183
19202708470
19202715184
19202720738
19202727940
19202734593
19202741001
19202747227
19202754185
19202760105
19202766148
19202771031
19202779331
19202785923
19202792454
19202799900
19202805699
19202812107
19202819737
19202826756
19202831028
19202839329
19202846897
19202851658
19202860508
19202866062
19202874912
19202881199
19202888401
19202896213
19202903843
19202908543
19202915989
19202924045
19202930942
19202938084
19202944187
19202950901
19202956821
19202964023
19202970493
19202976597
19202982883
19202989597
19202995578
19203002109
19203009067
19203014438
19203023533
19203029514
19203035678
19203042759
19203049289
19203055271
19203061496
19203067905
19203075901
19203083835
19203090305
19203096164
19203102024
19203108676
19203113254
19203122653
19203129672
19203136447
19203143527
19203149082
19203156345
19203162326
19203170017
19203176974
19203183566
19203192111
19203199252
19203206393
19203214206
19203221103
19203228976
19203237216
19203245578
19203253818
19203259738
19203268710
19203276339
19203285251
19203291842
19203297946
19203303744
19203312106
19203318515
19203324191
19203332370
19203338839
19203344210
19203352572
19203359957
19203369235
19203376925
19203384432
19203389926
19203399813
19203407626
19203415316
19203420748
19203427828
19203434542
19203442599
19203447726
19203455416
19203462130
19203469881
19203477267
19203484347
19203489169
19203497591
19203505770
19203513460
19203520602
19203527132
19203535189
19203542879
19203550814
19203556551
19203564058
19203571749
19203579561
19203588778
19203596102
19203602144
19203608675
19203618380
19203622774
19203631746
19203638277
19203647676
19203654695
19203662874
19203669710
19203677339
19203683809
19203692476
19203698946
19203706270
19203714205
19203720613
19203726656
19203735079
19203741426
19203748262
19203756197
19203763216
19203768465
19203776521
19203782320
19203788240
19203795076
19203801851
19203809297
19203814546
19203823945
19203831392
19203835847
19203843965
19203850007
19203856660
19203863130
19203869600
19203876008
19203882295
19203889497
19203895784
19203906221
19203912446
19203918916
19203925569
19203933564
19203940522
19203947053
19203954316
19203965913
19203971650
19203979585
19203984345
19203991059
19203997895
19204004304
19204010713
19204016633
19204021516
19204028047
19204033479
19204039216
19204046418
19204052033
19204057404
19204063142
19204068818
19204074616
19204081452
19204085908
19204094025
19204100861
19204106415
19204117158
19204131379
19204139374
19204147736
19204157197
19204165741
19204173066
19204181794
19204190155
19204197175
19204203766
19204209137
19204217438
19204223114
19204229157
19204235260
19204241486
19204248200
19204254669
19204262177
19204268463
19204275116
19204281586
19204287323
19204293183
19204299774
19204305329
19204310822
19204317841
19204323456
19204331146
19204337433
19204343842
19204350250
19204357758
19204363678
19204370636
19204376678
19204384491
19204389618
19204394928
19204404877
19204411163
19204417389
19204423492
19204429962
19204437225
19204442413
19204450287
19204458282
19204464325
19204470550
19204477325
19204481903
19204489837
19204494537
19204503753
19204510406
19204516449
19204524566
19204530609
19204538177
19204543975
19204550384
19204563018
19204569671
19204577850
19204584320
19204591522
19204600189
19204607452
19204613067
19204620818
19204626556
19204634002
19204639617
19204647247
19204653838
19204661224
19204667693
19204675018
19204681792
19204688567
19204695220
19204701995
19204709075
19204716643
19204724395
19204731048
19204738677
19204745452
19204752715
19204758391
19204767669
19204772246
19204781768
19204787383
19204794036
19204800628
19204807097
19204814544
19204820708
19204827849
19204834502
19204841643
19204846709
19204855010
19204860015
19204868071
19204873809
19204881438
19204886992
19204893401
19204900542
19204906279
19204913359
19204919341
19204927092
19204932768
19204938323
19204946013
19204951567
19204957976
19204963530
19204971220
19204976897
19204984770
19204991118
19204998747
19205004973
19205011442
19205017973
19205025114
19205032561
19205037443
19205045439
19205050871
19205058378
19205065031
19205073088
19205081572
19205089506
19205095793
19205103788
19205111235
19205117338
19205123320
19205134489
19205141996
19205149137
19205157621
19205164457
19205172026
19205179960
19205189115
19205196073
19205206327
19205212248
19205220426
19205229154
19205237699
19205243864
19205253629
19205265287
19205272977
19205279630
19205284818
19205293729
19205299711
19205307157
19205312955
19205321317
19205326993
19205333951
19205339567
19205346219
19205354154
19205363736
19205369596
19205376859
19205383085
19205390104
19205396940
19205404569
19205412687
19205418790
19205427274
19205435269
19205443204
19205449247
19205457608
19205465421
19205471707
19205480313
19205485929
19205494351
19205501431
19205507535
19205514066
19205519498
19205525479
19205533841
19205541043
19205547208
19205553311
19205558072
19205565579
19205570645
19205577054
19205582608
19205589688
19205596341
19205601102
19205607266
19205613492
19205618191
19205625821
19205631070
19205638150
19205643460
19205650967
19205656704
19205675503
19205681668
19205688199
19205694241
19205700833
19205707608
19205712796
19205720547
19205725796
19205733303
19205742276
19205749539
19205758084
19205765652
19205772793
19205778713
19205786099
19205791653
19205796414
19205803311
19205810269
19205816067
19205823330
19205828945
19205836880
19205844021
19205849880
19205857998
19205862820
19205871120
19205881741
19205889492
19205894619
19205902981
19205909145
19205917385
19205923183
19205930080
19205936855
19205941189
19205948513
19205955105
19205961513
19205966701
19205973537
19205978664
19205985073
19205992092
19205999050
19206004787
19206010769
19206016567
19206022609
19206029934
19206034694
19206042385
19206049160
19206054409
19206061000
19206067836
19206072780
19206080409
19206086208
19206093410
19206099635
19206107265
19206111965
19206119838
19206127284
19206132350
19206139919
19206146877
19206154750
19206160121
19206168300
19206173915
19206181300
19206188686
19206195582
19206203334
19206208766
19206214381
19206222133
19206227687
19206235377
19206241847
19206249049
19206254909
19206263270
19206269923
19206276820
19206283473
19206289576
19206296046
19206303431
19206309718
19206316737
19206323451
19206329921
19206334559
19206341517
19206348597
19206355006
19206362452
19206367335
19206374232
19206381312
19206387843
19206392787
19206401209
19206406825
19206414576
19206420252
19206426051
19206433497
19206440821
19206446436
19206455653
19206461939
19206469080
19206474635
19206483057
19206489100
19206496790
19206503016
19206512232
19206520045
19206528650
19206535792
19206543055
19206548914
19206556177
19206562098
19206570093
19206576868
19206584436
19206590357
19206596033
19206603113
19206610376
19206616663
19206624781
19206630518
19206636072
19206643824
19206650110
19206656763
19206663050
19206669214
19206674829
19206683008
19206689478
19206696863
19206700891
19206709009
19206715296
19206722559
19206729028
19206737024
19206743982
19206748987
19206755212
19206762842
19206771020
19206775842
19206783655
19206790735
19206796960
19206802576
19206809167
19206816247
19206822717
19206830163
19206835962
19206841577
19206849817
19206855371
19206862512
19206868554
19206876977
19206883569
19206891443
19206900048
19206905969
19206914697
19206922204
19206928247
19206936669
19206945581
19206952539
19206958520
19206966516
19206974694
19206982141
19206990075
19206995751
19207004479
19207010034
19207019006
19207026452
19207033471
19207041161
19207048364
19207054955
19207063988
19207071679
19207080224
19207087731
19207093957
19207101281
19207107995
19207117211
19207125268
19207133324
19207141015
19207148278
19207157982
19207167382
19207173302
19207182213
19207192711
19207202782
19207211632
19207218956
19207226158
19207236351
19207241844
19207253319
19207260460
19207267174
19207273766
19207279869
19207285851
19207292626
19207298546
19207306236
19207310631
19207318077
19207321800
19207330956
19207337181
19207343712
19207348534
19207356468
19207361595
19207368065
19207374657
19207381126
19207387291
19207393761
19207399742
19207404869
19207412681
19207417503
19207424644
19207429588
19207435997
19207442100
19207448387
19207454918
19207460411
19207467186
19207472923
19207477501
19207483421
19207490074
19207495567
19207500328
19207507225
19207514183
19207519737
19207526451
19207532127
19207536949
19207545310
19207550804
19207555931
19207561363
19207568504
19207575584
19207581626
19207587852
19207594566
19207601280
19207606284
19207612022
19207618247
19207624656
19207630698
19207635581
19207642356
19207647727
19207652671
19207657737
19207664390
19207671226
19207677207
19207682456
19207688438
19207695029
19207701194
19207706992
19207711814
19207719199
19207725486
19207731894
19207739402
19207745139
19207753806
19207758262
19207767051
19207775168
19207781455
19207789084
19207795127
19207802268
19207809775
19207816794
19207823813
19207831259
19207838645
19207845969
19207851340
19207858786
19207865378
19207871115
19207877280
19207883811
19207891257
19207896079
19207903952
19207910544
19207917563
19207925131
19207932028
19207936789
19207944724
19207951682
19207958395
19207965536
19207970847
19207978903
19207986899
19207994162
19207999228
19208006369
19208014059
19208021200
19208027243
19208035299
19208041281
19208047690
19208055197
19208061667
19208068991
19208075827
19208082052
19208089987
19208095846
19208102194
19208110434
19208115805
19208123983
19208133627
19208139974
19208146200
19208152548
19208160543
19208165243
19208173055
19208180258
19208187460
19208193319
19208200643
19208207235
19208213094
19208220480
19208226034
19208233419
19208239034
19208246420
19208254293
19208259908
19208265462
19208272420
19208278158
19208287069
19208293661
19208300130
19208306051
19208311849
19208318075
19208322774
19208328634
19208336873
19208341695
19208350789
19208355733
19208364095
19208371358
19208378133
19208383687
19208390889
19208397176
19208402059
19208411885
19208419515
19208427083
19208434163
19208438985
19208446370
19208457295
19208466756
19208473592
19208480000
19208489461
19208496297
19208501790
19208508809
19208514729
19208519307
19208526265
19208533345
19208539082
19208546284
19208553731
19208560994
19208566914
19208574910
19208580037
19208587971
19208596516
19208602376
19208609883
19208615010
19208621724
19208627705
19208632893
19208643574
19208650227
19208657185
19208663167
19208671101
19208678791
19208685566
19208693501
19208700337
19208706623
19208715290
19208723835
19208731221
19208737263
19208743183
19208749653
19208755818
19208762837
19208768696
19208774922
19208783405
19208789631
19208796589
19208803303
19208811054
19208818317
19208828022
19208834797
19208841450
19208847675
19208854694
19208861164
19208870258
19208879902
19208885700
19208893513
19208899799
19208907062
19208913410
19208921650
19208927265
19208935932
19208944355
19208950947
19208958881
19208965046
19208972004
19208978290
19208985309
19208994648
19209001545
19209008869
19209015155
19209022052
19209027545
19209033466
19209038593
19209045124
19209050556
19209058490
19209062213
19209069965
19209076190
19209082599
19209086933
19209096637
19209104755
19209111652
19209119403
19209126727
19209133075
19209143451
19209150714
19209158710
19209167499
19209172443
19209180072
19209186481
19209193561
19209198321
19209204974
19209211383
19209216998
19209223224
19209227740
19209235858
19209241229
19209247760
19209252520
19209259417
19209267108
19209279437
19209289325
19209297503
19209305072
19209311785
19209318133
19209326068
19209331256
19209339617
19209344317
19209351275
19209357379
19209363604
19209370257
19209375750
19209382647
19209387042
19209393633
19209399310
19209404437
19209413165
19209420123
19209426592
19209434710
19209439532
19209446856
19209454913
19209460162
19209466753
19209472979
19209479265
19209486590
19209491167
19209497759
19209505999
19209514239
19209520952
19209527239
19209533770
19209541094
19209548357
19209555376
19209562883
19209569597
19209577532
19209585283
19209591753
19209599199
19209606707
19209612261
19209619524
19209626116
19209634294
19209640947
19209647966
19209654314
19209660662
19209670122
19209676531
19209683061
19209693742
19209702287
19209709184
19209717546
19209725114
19209733049
19209736894
19209746233
19209753435
19209759965
19209766374
19209772111
19209779375
19209787065
19209793168
19209799089
19209803972
19209809343
19209815935
19209821916
19209831132
19209837846
19209843034
19209849809
19209857011
19209862809
19209869951
19209877641
19209883439
19209890397
19209897721
19209904313
19209910173
19209916520
19209923783
19209929643
19209936296
19209941484
19209946794
19209953324
19209958817
19209966874
19209973100
19209980058
19209986283
19209994340
19209998612
19210006852
19210013627
19210020707
19210027543
19210035355
19210041520
19210047562
19210053544
19210058305
19210064408
19210070512
19210077897
19210083451
19210089493
19210096085
19210101761
19210106522
19210112687
19210119950
19210126603
19210131852
19210138382
19210145707
19210151627
19210159440
19210165238
19210173539
19210181107
19210187271
19210195511
19210201432
19210209915
19210217362
19210224015
19210231156
19210237992
19210243851
19210250565
19210258011
19210264664
19210270462
19210277725
19210284134
19210294083
19210304703
19210311539
19210318924
19210329178
19210335953
19210344864
19210356094
19210365860
19210373062
19210381973
19210389908
19210396377
19210404251
19210410965
19210419082
19210425918
19210432083
19210440445
19210447220
19210453140
19210459854
19210465713
19210472732
19210478592
19210485977
19210494094
19210500503
19210506424
19210512649
19210520095
19210526992
19210533218
19210539566
19210545974
19210555068
19210560867
19210569412
19210575942
19210584853
19210590835
19210599624
19210605239
19210610671
19210619888
19210627151
19210635635
19210641860
19210649306
19210655715
19210663711
19210671096
19210676833
19210683913
19210689956
19210696303
19210703383
19210709609
19210714187
19210720168
19210726150
19210732863
19210737990
19210746108
19210750869
19210757460
19210762099
19210768813
19210773574
19210779738
19210786208
19210792189
19210797377
19210803359
19210807997
19210814101
19210820449
19210827101
19210833083
19210840041
19210845839
19210852248
19210857863
19210865248
19210870375
19210877394
19210883070
19210888625
19210894362
19210899611
19210905287
19210910597
19210915663
19210922499
19210928175
19210934157
19210940321
19210948561
19210956312
19210962050
19210969069
19210978346
19210982863
19210994032
19211002516
19211009962
19211015639
19211022169
19211027968
19211033644
19211038771
19211046217
19211052137
19211057753
19211063124
19211068556
19211075209
19211079176
19211089918
19211096876
19211104017
19211109999
19211113783
19211121473
19211127088
19211132704
19211138380
19211145033
19211151808
19211158766
19211164686
19211170057
19211176527
19211181410
19211188429
19211193311
19211200636
19211206495
19211213636
19211220533
19211227186
19211234205
19211241041
19211248731
19211255994
19211262708
19211269300
19211273817
19211283155
19211289258
19211297803
19211304273
19211310804
19211317640
19211325757
19211335584
19211341260
19211348829
19211355115
19211362012
19211368116
19211374280
19211380933
19211388990
19211395764
19211402356
19211409070
19211414929
19211420484
19211426587
19211431165
19211439771
19211447705
19211453137
19211460217
19211465283
19211472363
19211477673
19211486035
19211492261
19211499280
19211502942
19211510815
19211516553
19211523328
19211529858
19211539197
19211549023
19211553906
19211562329
19211569165
19211579785
19211588025
19211597302
19211603894
19211611523
19211618298
19211625866
19211634045
19211640088
19211644970
19211650341
19211656567
19211661877
19211669506
19211675671
19211683789
19211690625
19211698132
19211705029
19211710766
19211717602
19211724743
19211731396
19211738354
19211744824
19211750988
19211756725
19211762768
19211769238
19211775219
19211781323
19211788830
19211794933
19211801647
19211808666
19211814159
19211820568
19211825634
19211832897
19211840832
19211846508
19211852367
19211860424
19211868542
19211875805
19211882885
19211891308
19211897716
19211905102
19211911999
19211917492
19211923351
19211931957
19211939220
19211947094
19211953563
19211960643
19211966625
19211972545
19211979992
19211986278
19211995067
19212001415
19212009593
19212015392
19212021678
19212027599
19212035716
19212042125
19212051952
19212058238
19212065929
19212072276
19212080211
19212086742
19212094432
19212103099
19212110423
19212120189
19212126659
19212133495
19212142223
19212148387
19212155223
19212162913
19212171031
19212177928
19212185985
19212192576
19212201060
19212209666
19212218455
19212225657
19212234752
19212241832
19212252818
19212259776
19212268870
19212279918
19212291758
19212300242
19212308482
19212315562
19212322520
19212326548
19212335887
19212340342
19212351939
19212357798
19212370677
19212377574
19212383067
19212390879
19212397959
19212404490
19212412424
19212417612
19212422678
19212428416
19212435374
19212441477
19212448191
19212456003
19212460886
19212467783
19212473826
19212478892
19212484690
19212491587
19212496592
19212502573
19212508310
19212515818
19212520395
19212526194
19212532419
19212537180
19212543039
19212549326
19212553721
19212560617
19212562693
19212572214
19212578440
19212584360
19212590403
19212595774
19212602304
19212608957
19212614939
19212619638
19212626779
19212631540
19212638803
19212643381
19212649057
19212653757
19212660105
19212665720
19212673532
19212677133
19212684946
19212691477
19212697763
19212703012
19212708933
19212714914
19212718942
19212727243
19212732858
19212739023
19212744211
19212750497
19212755136
19212760446
19212764963
19212771432
19212777475
19212784311
19212790780
19212795114
19212800729
19212806589
19212810678
19212819955
19212827340
19212833932
19212841989
19212847970
19212859628
19212865365
19212873666
19212877633
19212887582
19212894235
19212900399
19212906076
19212911080
19212917916
19212923593
19212931161
19212936654
19212942086
19212947579
19212954415
19212963693
19212969674
19212976327
19212982797
19212989327
19212996102
19213004708
19213011910
19213017281
19213021981
19213029427
19213034066
19213041817
19213048348
19213053292
19213061715
19213066476
19213072884
19213077767
19213084481
19213091439
19213098275
19213103585
19213108895
19213115609
19213123177
19213129830
19213135750
19213140999
19213149117
19213153511
19213162667
19213167000
19213176216
19213180977
19213188485
19213192452
19213201851
19213205757
19213214730
19213220955
19213228340
19213233101
19213240425
19213245064
19213253670
19213258553
19213265999
19213271919
19213278206
19213283821
19213290352
19213297249
19213302559
19213309578
19213314461
19213320625
19213325874
19213332588
19213339363
19213346687
19213353645
19213359383
19213364815
19213370430
19213377205
19213383613
19213391304
19213397712
19213403511
19213411323
19213417061
19213424141
19213431282
19213440559
19213445259
19213458137
19213465583
19213472236
19213479377
19213487068
19213494880
19213500740
19213509651
19213516181
19213522346
19213528572
19213534797
19213540229
19213549507
19213556709
19213563545
19213569831
19213576850
19213583259
19213590278
19213596442
19213603889
19213608466
19213617805
19213624824
19213631782
19213638557
19213645331
19213651191
19213657844
19213662726
19213670661
19213677558
19213684333
19213691474
19213698981
19213705390
19213713080
19213720588
19213728278
19213733283
19213741523
19213748847
19213755927
19213763190
19213768622
19213776129
19213783454
19213791022
19213797980
19213803473
19213810553
19213818183
19213825202
19213830329
19213838019
19213842230
19213852484
19213860114
19213868475
19213876532
19213882330
19213889655
19213897833
19213905402
19213912360
19213918585
19213927924
19213935065
19213942999
19213949591
19213957709
19213965948
19213973212
19213980047
19213987311
19213995672
19214002447
19214008368
19214018316
19214025213
19214034247
19214040106
19214047796
19214056158
19214064398
19214070623
19214079779
19214086859
19214096868
19214103948
19214110662
19214118048
19214124273
19214130621
19214138983
19214145086
19214154058
19214159734
19214168279
19214172369
19214181402
19214187872
19214196783
19214204412
19214214544
19214221746
19214230230
19214236578
19214242620
19214248540
19214255559
19214259160
19214267461
19214273504
19214280767
19214287786
19214294988
19214299688
19214306951
19214313604
19214319707
19214326177
19214333196
19214343511
19214349248
19214356328
19214362249
19214368169
19214373906
19214380742
19214384832
19214391729
19214398076
19214403813
19214410222
19214416387
19214423039
19214427739
19214435307
19214440190
19214445928
19214452580
19214458440
19214464909
19214471257
19214476018
19214482854
19214488347
19214494695
19214500127
19214505986
19214511723
19214517827
19214524602
19214530644
19214534917
19214541630
19214547673
19214553960
19214560490
19214566899
19214572819
19214577946
19214583989
19214590397
19214596501
19214601567
19214608220
19214615422
19214622441
19214628361
19214634343
19214639958
19214647343
19214651493
19214658940
19214666081
19214672917
19214678288
19214685124
19214692387
19214697636
19214704350
19214709660
19214716862
19214724430
19214731022
19214737248
19214743656
19214750004
19214756535
19214767948
19214776676
19214783024
19214788334
19214796757
19214804996
19214812626
19214819035
19214828800
19214837345
19214843937
19214850834
19214857731
19214864506
19214870975
19214878055
19214883121
19214889652
19214896671
19214903019
19214909733
19214916874
19214923771
19214929447
19214936344
19214942081
19214949100
19214954654
19214961795
19214967716
19214974674
19214982120
19214987491
19214993412
19215000431
19215006351
19215011783
19215020023
19215025577
19215032474
19215038089
19215046634
19215053287
19215060611
19215070010
19215076724
19215082950
19215089603
19215095645
19215102725
19215109317
19215115909
19215123721
19215131168
19215137820
19215144839
19215151614
19215157107
19215164310
19215169803
19215178042
19215183963
19215191897
19215197757
19215205081
19215210757
19215217837
19215223513
19215230410
19215236270
19215244265
19215250003
19215258059
19215264224
19215270449
19215277102
19215285464
19215290286
19215299380
19215305911
19215313174
19215318057
19215325320
19215329226
19215339114
19215343997
19215354495
19215362795
19215367678
19215375430
19215380434
19215387026
19215393801
19215399599
19215406557
19215414858
19215423952
19215430788
19215437929
19215447451
19215452639
19215463686
19215468325
19215478640
19215486696
19215493044
19215497927
19215508486
19215515993
19215523256
19215530642
19215536135
19215544191
19215549440
19215557375
19215565432
19215572573
19215578798
19215586061
19215593447
19215600893
19215607302
19215614870
19215621034
19215629274
19215635988
19215642946
19215647890
19215658327
19215663210
19215672670
19215677797
19215688295
19215696230
19215701906
19215709169
19215717226
19215721925
19215730836
19215738649
19215747865
19215753236
19215763246
19215771181
19215777345
19215784852
19215792421
19215800477
19215808778
19215814332
19215822206
19215830446
19215838502
19215845765
19215852357
19215857179
19215867311
19215874513
19215881776
19215887818
19215893983
19215900392
19215905580
19215913331
19215918214
19215926209
19215931703
19215937867
19215943055
19215950868
19215956239
19215963624
19215969605
19215976319
19215983155
19215989808
19215995057
19216001649
19216007386
19216013795
19216019959
19216026917
19216032960
19216039857
19216044495
19216052796
19216058777
19216064271
19216072022
19216075806
19216084473
19216092408
19216097168
19216105042
19216111817
19216117005
19216124451
19216130616
19216136841
19216143372
19216149598
19216157532
19216164246
19216170349
19216175904
19216182190
19216188050
19216192749
19216200135
19216205811
19216211792
19216218201
19216223389
19216230896
19216235901
19216242493
19216247681
19216254273
19216260071
19216266235
19216272766
19216278809
19216284424
19216291077
19216296936
19216303894
19216310486
19216315552
19216321777
19216328186
19216333862
19216341125
19216346435
19216353882
19216359375
19216366821
19216372253
19216377807
19216383972
19216391052
19216397033
19216401367
19216408203
19216413879
19216419616
19216425964
19216432312
19216438781
19216445922
19216452697
19216457641
19216465210
19216470153
19216477478
19216484558
19216491088
19216496582
19216503051
19216509948
19216515685
19216522643
19216530029
19216536559
19216543517
19216550109
19216557128
19216564330
19216571594
19216578246
19216584838
19216591247
19216599242
19216607482
19216612548
19216622741
19216628051
19216636657
19216642211
19216650939
19216654784
19216664123
19216668761
19216677550
19216684203
19216691466
19216700316
19216705809
19216714171
19216720519
19216730101
19216736327
19216744201
19216751830
19216756896
19216764403
19216771422
19216778380
19216785094
19216791991
19216799437
19216805052
19216812438
19216818602
19216826048
19216833006
19216838622
19216846007
19216851561
19216858397
19216863402
19216870970
19216877928
19216884459
19216890074
19216896239
19216903319
19216909911
19216915404
19216922911
19216928953
19216936278
19216942320
19216949827
19216955748
19216963133
19216971434
19216977415
19216983458
19216991148
19216996946
19217006529
19217013426
19217020628
19217027342
19217034117
19217040892
19217048155
19217054808
19217061033
19217067686
19217074400
19217081114
19217088560
19217095213
19217101255
19217107664
19217116270
19217122618
19217130674
19217136595
19217145445
19217152830
19217158689
19217164854
19217174009
19217180845
19217186826
19217192991
19217201292
19217208067
19217213926
19217219907
19217228269
19217234312
19217241758
19217250730
19217257871
19217263608
19217272031
19217277707
19217287290
19217293821
19217304197
19217310666
19217319577
19217325376
19217333921
19217340512
19217350705
19217357236
19217366635
19217373166
19217381223
19217389951
19217398252
19217405698
19217416806
19217423276
19217427793
19217439511
19217444577
19217456296
19217462643
19217471799
19217480161
19217491025
19217496823
19217506039
19217513852
19217519772
19217526608
19217535031
19217540219
19217548642
19217555356
19217562436
19217566769
19217576047
19217583005
19217590817
19217598507
19217606320
19217613400
19217618649
19217625119
19217632260
19217639706
19217646542
19217652890
19217659909
19217666439
19217673153
19217679501
19217686093
19217693356
19217698605
19217705746
19217712887
19217719418
19217724423
19217731136
19217737850
19217744076
19217750851
19217757137
19217762875
19217769955
19217775753
19217782894
19217788692
19217796139
19217801998
19217810604
19217817074
19217824215
19217830379
19217836910
19217842892
19217849666
19217854183
19217861812
19217868099
19217874141
19217880672
19217885433
19217892086
19217896908
19217904781
19217910457
19217916439
19217922664
19217927486
19217933956
19217939937
19217946651
19217951534
19217958309
19217964046
19217970455
19217976192
19217981624
19217987483
19217994747
19218000850
19218004634
19218014339
19218018489
19218025264
19218032100
19218038692
19218044124
19218050716
19218057857
19218062618
19218069148
19218074947
19218083797
19218094600
19218101131
19218107661
19218113582
19218120784
19218125789
19218134273
19218140559
19218146968
19218153621
19218159785
19218165889
19218172236
19218177180
19218183833
19218190486
19218195979
19218203791
19218209224
19218216487
19218222590
19218230281
19218236506
19218244380
19218249018
19218255793
19218261958
19218268733
19218276057
19218282649
19218287287
19218294734
19218301753
19218308467
19218315058
19218320124
19218328791
19218333735
19218341425
19218348505
19218354914
19218360529
19218366999
19218374018
19218380732
19218388789
19218394770
19218401057
19218408137
19218415339
19218421625
19218428828
19218436396
19218442255
19218448908
19218456476
19218461664
19218470209
19218474238
19218482782
19218490961
19218497614
19218504145
19218511042
19218517756
19218523005
19218531427
19218536371
19218542841
19218549311
19218555902
19218562921
19218569513
19218574884
19218584711
19218595331
19218605036
19218613886
19218623224
19218632074
19218641046
19218650934
19218660822
19218670404
19218682306
19218690118
19218701105
19218709711
19218720209
19218729852
19218740655
19218752374
19218761468
19218771112
19218780633
19218790704
19218800164
19218812127
19218821771
19218831292
19218840936
19218849359
19218861688
19218870599
19218881402
19218890313
19218899835
19218908868
19218918572
19218928521
19218937920
19218947503
19218956841
19218966790
19218977349
19218985589
19218995965
19219005181
19219012994
19219023614
19219033013
19219043328
19219048943
19219060723
19219069695
19219080315
19219090996
19219098015
19219108757
19219119194
19219127434
19219135186
19219145806
19219157097
19219165398
19219174248
19219181999
19219189568
19219200371
19219209099
19219221001
19219229485
19219238457
19219246452
19219255547
19219265373
19219275078
19219283623
19219293327
19219301323
19219311272
19219319572
19219327080
19219336174
19219345939
19219356315
19219364006
19219374382
19219382072
19219390678
19219399162
19219411003
19219419548
19219431938
19219441398
19219450431
19219462516
19219472343
19219482963
19219493156
19219503044
19219515006
19219524528
19219532829
19219543693
19219553153
19219562492
19219573661
19219583427
19219593803
19219602775
19219613212
19219620719
19219630729
19219640433
19219650443
19219661796
19219670707
19219685660
19219696524
19219704032
19219715751
19219724356
19219735526
19219743705
19219751395
19219760306
19219771903
19219780814
19219790824
19219798453
19219807913
19219816153
19219825614
19219834708
19219843131
19219856924
19219865286
19219874197
19219884817
19219893668
19219903799
19219911307
19219921988
19219931204
19219939871
19219950430
19219960501
19219968985
19219975760
19219986929
19219997915
19220006521
19220016226
19220028555
19220034414
19220045584
19220056692
19220063589
19220074697
19220083425
19220090811
19220096243
19220102407
19220109243
19220116079
19220121816
19220129629
19220136282
19220141836
19220147512
19220156301
19220161245
19220167532
19220174673
19220180227
19220187429
19220193594
19220201284
19220208547
19220214834
19220222280
19220227346
19220234731
19220241445
19220248037
19220254323
19220261220
19220267629
19220274465
19220282033
19220288503
19220296254
19220302846
19220309804
19220316884
19220320790
19220328603
19220335561
19220343740
19220349233
19220358022
19220365346
19220371022
19220379506
19220384999
19220393483
19220401662
19220408071
19220416432
19220422780
19220428761
19220437489
19220443654
19220450612
19220457570
19220464894
19220469411
19220477223
19220483022
19220491811
19220495961
19220506215
19220511769
19220519826
19220525136
19220533375
19220538380
19220546803
19220551625
19220560658
19220564503
19220574208
19220580983
19220585804
19220592213
19220598439
19220605885
19220611256
19220618092
19220623036
19220627674
19220636708
19220642506
19220647389
19220655323
19220660328
19220666859
19220673695
19220679676
19220684986
19220690296
19220697071
19220704701
19220710438
19220717640
19220723560
19220729664
19220736927
19220744312
19220748219
19220755909
19220761341
19220767628
19220772938
19220780201
19220786610
19220792286
19220798878
19220805530
19220811756
19220818409
19220822803
19220831470
19220835743
19220845081
19220849170
19220858204
19220863147
19220870044
19220876575
19220881519
19220887989
19220894458
19220901966
19220907581
19220913440
19220919910
19220926319
19220931324
19220939197
19220945484
19220953907
19220959217
19220966419
19220972522
19220979541
19220985523
19220992603
19220998767
19221008472
19221016834
19221021777
19221028919
19221036243
19221043872
19221051990
19221059680
19221065173
19221071887
19221076770
19221084460
19221089465
19221096667
19221101611
19221109119
19221115100
19221121997
19221127795
19221135425
19221141833
19221147387
19221153125
19221161181
19221167102
19221172778
19221178576
19221184863
19221191882
19221198718
19221205859
19221214831
19221219775
19221229602
19221236865
19221243579
19221250903
19221257861
19221265185
19221272631
19221279345
19221286852
19221293322
19221301928
19221308215
19221315966
19221321826
19221327319
19221336962
19221344958
19221352526
19221358996
19221367541
19221374071
19221381762
19221387377
19221395373
19221400255
19221410387
19221415148
19221424059
19221430956
19221437853
19221442858
19221450731
19221457262
19221464525
19221470568
19221477465
19221481127
19221488085
19221493090
19221499010
19221504259
19221511156
19221517015
19221522570
19221528307
19221534227
19221539965
19221545397
19221551256
19221557726
19221561449
19221568041
19221573717
19221580370
19221584642
19221593187
19221597460
19221606310
19221613329
19221620348
19221625719
19221632982
19221640733
19221646654
19221652635
19221659044
19221665758
19221670518
19221677721
19221683031
19221690172
19221696092
19221703783
19221709642
19221716783
19221722825
19221728929
19221734788
19221740953
19221744920
19221750963
19221757005
19221763109
19221769456
19221774156
19221782457
19221787217
19221793443
19221798570
19221806016
19221811509
19221816575
19221821275
19221827989
19221833970
19221840989
19221844895
19221853013
19221856492
19221864488
19221867784
19221875657
19221881639
19221888291
19221894517
19221899461
19221906175
19221913316
19221920640
19221925523
19221932603
19221938889
19221945176
19221951157
19221956712
19221962205
19221969102
19221976426
19221981797
19221989243
19221995835
19222001877
19222008652
19222015183
19222022080
19222027573
19222034287
19222039109
19222046860
19222054062
19222060349
19222066819
19222074509
19222081284
19222087571
19222094101
19222099167
19222107102
19222112595
19222118515
19222125717
19222131333
19222136765
19222143479
19222148911
19222156235
19222161728
19222168869
19222174240
19222180771
19222186081
19222192734
19222198776
19222205063
19222211899
19222219101
19222225082
19222230759
19222235031
19222244003
19222247910
19222256515
19222261459
19222270859
19222276718
19222285812
19222291122
19222299179
19222305099
19222310287
19222318039
19222326340
19222333298
19222339584
19222346115
19222353744
19222360702
19222366928
19222374435
19222380661
19222387924
19222393783
19222400131
19222405624
19222413070
19222419296
19222427658
19222434555
19222442550
19222450180
19222458358
19222463729
19222471725
19222476425
19222483932
19222491683
19222497115
19222505538
19222514083
19222523422
19222533004
19222542403
19222552291
19222558822
19222564376
19222571029
19222576156
19222584029
19222589828
19222597640
19222603255
19222612350
19222618209
19222624679
19222630782
19222637191
19222644576
19222652450
19222657821
19222664412
19222669722
19222676070
19222682418
19222687484
19222694869
19222702498
19222707869
19222713057
19222720381
19222725569
19222733016
19222739058
19222746504
19222753096
19222759078
19222763533
19222770552
19222776595
19222782881
19222789351
19222796065
19222803145
19222809798
19222815779
19222820540
19222828474
19222833113
19222840865
19222846175
19222853499
19222858687
19222864973
19222870100
19222877302
19222883040
19222892256
19222898909
19222905134
19222911116
19222918989
19222926130
19222934248
19222940413
19222948286
19222956465
19222963850
19222969587
19222976240
19222982405
19222987471
19222994551
19223002302
19223007673
19223014936
19223020430
19223026289
19223033186
19223038740
19223046430
19223053572
19223060102
19223066084
19223072737
19223079756
19223084944
19223092146
19223099897
19223107343
19223114729
19223120466
19223125532
19223133100
19223139814
19223146650
19223151838
19223159650
19223164533
19223171125
19223176008
19223182783
19223188276
19223194929
19223201032
19223207746
19223213849
19223219709
19223224531
19223230634
19223237592
19223244550
19223251142
19223257612
19223264020
19223269391
19223274579
19223280805
19223287397
19223292585
19223299237
19223306379
19223311994
19223317365
19223324750
19223330731
19223339337
19223343793
19223350690
19223356183
19223361676
19223367169
19223372663
19223378827
19223385175
19223393109
19223397809
19223406537
19223412396
19223417828
19223425641
19223432111
19223437116
19223443829
19223449750
19223455060
19223461713
19223466656
19223476117
19223481915
19223486615
19223494794
19223501385
19223506695
19223514264
19223520550
19223526471
19223534649
19223541363
19223548260
19223554547
19223562848
19223568646
19223574505
19223581402
19223588177
19223594525
19223600750
19223606243
19223613385
19223619183
19223625653
19223631512
19223638409
19223645184
19223649945
19223657147
19223664349
19223671124
19223677166
19223683392
19223689373
19223696209
19223704022
19223711224
19223716961
19223724163
19223730389
19223737957
19223744244
19223751812
19223758892
19223764568
19223771954
19223779766
19223786297
19223792522
19223798076
19223803509
19223811931
19223818157
19223826214
19223830852
19223838482
19223845928
19223852947
19223859356
19223866008
19223872417
19223879009
19223886089
19223891155
19223898357
19223905376
19223912151
19223919780
19223925579
19223932170
19223937908
19223943035
19223949748
19223956951
19223963420
19223968852
19223976177
19223981975
19223988872
19223994670
19224001140
19224007243
19224014629
19224019389
19224026592
19224033366
19224039836
19224046123
19224052592
19224059489
19224066264
19224073650
19224078899
19224085490
19224090678
19224098491
19224105083
19224111857
19224119670
19224125224
19224131389
19224138652
19224145305
19224152263
19224158915
19224167338
19224175700
19224181071
19224189433
19224196330
19224202494
19224209758
19224216777
19224222392
19224230632
19224236308
19224243632
19224249247
19224255778
19224263529
19224271525
19224276286
19224283244
19224289164
19224295939
19224300211
19224307780
19224312113
19224320170
19224328410
19224333353
19224341288
19224345988
19224353251
19224357828
19224366556
19224375040
19224381327
19224388712
19224396158
19224402201
19224409403
19224415446
19224422953
19224430765
19224438944
19224445780
19224452067
19224457926
19224466410
19224472391
19224480875
19224487711
19224495340
19224503702
19224510111
19224515787
19224525309
19224531351
19224539469
19224545877
19224554361
19224560526
19224567789
19224573526
19224582987
19224588541
19224593668
19224603800
19224611795
19224617288
19224625162
19224632425
19224637918
19224646158
19224653543
19224662637
19224670328
19224675760
19224682962
19224689920
19224696878
19224704507
19224711893
19224718667
19224727945
19224733743
19224739847
19224748025
19224754129
19224761087
19224767679
19224778299
19224785867
19224794046
19224800515
19224810342
19224816751
19224825051
19224830789
19224840005
19224846170
19224853982
19224861672
19224868264
19224874001
19224883035
19224889871
19224895547
19224902871
19224908975
19224914956
19224922280
19224926919
19224933938
19224940957
19224947488
19224953469
19224959389
19224965127
19224969643
19224975869
19224981667
19224989663
19224995583
19225003090
19225008034
19225013894
19225021340
19225026040
19225033486
19225040444
19225046364
19225052590
19225058144
19225063942
19225069436
19225075722
19225079628
19225087929
19225093972
19225099770
19225104836
19225110573
19225116066
19225122109
19225129006
19225134682
19225141213
19225146279
19225152260
19225156105
19225163857
19225169350
19225175575
19225180702
19225186440
19225191872
19225197792
19225203713
19225208656
19225215248
19225222450
19225228188
19225231789
19225237770
19225242897
19225249062
19225254921
19225260719
19225267311
19225273170
19225279152
19225283913
19225290199
19225295021
19225304298
19225310158
19225315834
19225319862
19225327125
19225334083
19225340248
19225346901
19225352211
19225359474
19225364235
19225371376
19225377174
19225383827
19225390419
19225398048
19225406105
19225412208
19225417579
19225424293
19225431800
19225436805
19225445655
19225452979
19225460670
19225466102
19225472999
19225478126
19225484962
19225490211
19225497352
19225505286
19225512061
19225516883
19225524696
19225528358
19225537513
19225543861
19225550697
19225558692
19225563270
19225570106
19225576270
19225583289
19225588416
19225596473
19225603553
19225609534
19225614783
19225621741
19225626807
19225634314
19225639502
19225646766
19225654395
19225661109
19225667334
19225673072
19225679480
19225686133
19225693946
19225701148
19225707618
19225714148
19225720740
19225727149
19225733618
19225739905
19225746497
19225753638
19225759436
19225765967
19225771399
19225778052
19225783484
19225790015
19225796912
19225801978
19225810278
19225816443
19225822058
19225827185
19225834082
19225841406
19225850806
19225858069
19225864966
19225870703
19225877478
19225884802
19225892309
19225899145
19225907019
19225913672
19225920569
19225926733
19225933447
19225940954
19225945349
19225954870
19225960241
19225967993
19225973059
19225981482
19225989050
19225994238
19226001135
19226009558
19226017065
19226023352
19226031103
19226037756
19226046179
19226053015
19226062719
19226070410
19226077856
19226086767
19226092626
19226101720
19226108617
19226120702
19226127966
19226136816
19226141027
19226150060
19226156713
19226162878
19226169958
19226175695
19226184667
19226191625
19226201391
19226207189
19226215429
19226221593
19226228795
19226235326
19226242894
19226249425
19226258580
19226265661
19226270910
19226277135
19226286168
19226293431
19226300084
19226307408
19226316075
19226321019
19226330113
19226336522
19226347814
19226355992
19226362645
19226370030
19226379674
19226386632
19226395970
19226403294
19226412328
19226419713
19226428319
19226434239
19226443822
19226450780
19226456883
19226466893
19226471898
19226483006
19226488133
19226498753
19226503880
19226514012
19226521214
19226529698
19226536107
19226544957
19226551243
19226559727
19226567112
19226574253
19226582371
19226589573
19226594761
19226599583
19226607884
19226613865
19226620091
19226626438
19226633457
19226640354
19226647862
19226654942
19226661167
19226669102
19226674778
19226681309
19226687107
19226695347
19226701206
19226709568
19226715977
19226720737
19226726902
19226734104
19226738682
19226746006
19226754856
19226759678
19226768772
19226774876
19226782627
19226786838
19226795322
19226801487
19226809421
19226817112
19226824070
19226828159
19226835300
19226843540
19226848545
19226857639
19226863315
19226869297
19226877903
19226885532
19226891513
19226897434
19226902988
19226910007
19226916843
19226924655
19226931491
19226938144
19226943637
19226949985
19226956455
19226961704
19226968417
19226975253
19226980380
19226985935
19226992282
19226997775
19227005527
19227009738
19227017673
19227024081
19227029941
19227037021
19227042026
19227050204
19227055026
19227062778
19227067844
19227074313
19227079501
19227087497
19227093417
19227099338
19227106906
19227113742
19227119845
19227126620
19227130771
19227137729
19227146396
19227151278
19227157992
19227164584
19227170871
19227178012
19227184420
19227191989
19227199130
19227205172
19227212619
19227217990
19227226412
19227232760
19227239047
19227244479
19227253085
19227257601
19227264803
19227271700
19227278231
19227285189
19227291781
19227298312
19227307467
19227315401
19227322726
19227327608
19227335116
19227343478
19227349581
19227357760
19227364535
19227373202
19227380648
19227387362
19227394198
19227400423
19227407076
19227415804
19227422152
19227427523
19227436434
19227444674
19227450106
19227457186
19227464022
19227471895
19227479036
19227484896
19227492464
19227499483
19227507540
19227516268
19227522249
19227530367
19227537203
19227545503
19227550020
19227559175
19227565828
19227572298
19227578584
19227585237
19227591890
19227598482
19227605501
19227611971
19227618990
19227626558
19227632478
19227640047
19227646577
19227653535
19227660005
19227664949
19227673128
19227678682
19227686006
19227691438
19227698945
19227704439
19227712434
19227717866
19227725679
19227731111
19227739351
19227745698
19227752961
19227759431
19227765779
19227772004
19227779634
19227785737
19227793428
19227800447
19227807466
19227813752
19227819856
19227829194
19227834321
19227842500
19227849092
19227856111
19227863374
19227870759
19227878144
19227885835
19227892060
19227897797
19227906037
19227911835
19227919892
19227926423
19227934296
19227941499
19227948884
19227956147
19227963715
19227969147
19227977936
19227983369
19227992585
19227997956
19228007416
19228014618
19228022736
19228030060
19228035676
19228043915
19228050751
19228061188
19228069611
19228076081
19228082672
19228092499
19228099579
19228109955
19228121735
19228129853
19228137177
19228145050
19228153290
19228159882
19228167450
19228174652
19228181244
19228189240
19228196075
19228203400
19228210175
19228216888
19228225006
19228232696
19228239166
19228248688
19228256134
19228262421
19228269379
19228277801
19228283844
19228294159
19228301300
19228309295
19228315765
19228322540
19228328399
19228336700
19228342071
19228349579
19228356598
19228362762
19228368255
19228375030
19228381927
19228388641
19228394073
19228401397
19228406585
19228414703
19228420989
19228427581
19228433807
19228441863
19228447906
19228454559
19228462005
19228466766
19228473541
19228480377
19228487518
19228492950
19228501617
19228507781
19228514312
19228520538
19228528411
19228535247
19228540069
19228549590
19228555816
19228562469
19228568450
19228575896
19228581756
19228588103
19228596099
19228603118
19228608855
19228615142
19228620757
19228626799
19228632842
19228639922
19228646819
19228651336
19228657988
19228664031
19228671233
19228676726
19228692839
19228699797
19228707793
19228714751
19228724455
19228732878
19228739836
19228746489
19228754302
19228761504
19228768034
19228775603
19228785918
19228791533
19228799223
19228805754
19228811736
19228818571
19228826750
19228833098
19228840117
19228845671
19228852324
19228858732
19228863981
19228872587
19228878508
19228884672
19228891813
19228897917
19228905058
19228913359
19228918486
19228926359
19228932036
19228939238
19228946074
19228953642
19228961882
19228968168
19228975370
19228983183
19228988371
19228996122
19229002409
19229011442
19229018156
19229025236
19229032621
19229038053
19229045927
19229053617
19229060026
19229067716
19229072599
19229079862
19229087675
19229094450
19229100431
19229108121
19229114957
19229122343
19229130033
19229135648
19229143034
19229149137
19229157865
19229166044
19229170988
19229179532
19229184720
19229192106
19229198209
19229206388
19229213468
19229220365
19229226468
19229233426
19229240445
19229246732
19229255277
19229263639
19229269376
19229276395
19229284574
19229290860
19229297025
19229306180
19229317166
19229325040
19229330838
19229339139
19229346951
19229354093
19229364346
19229372098
19229378629
19229386014
19229394559
19229401456
19229409024
19229415860
19229421902
19229429776
19229437405
19229441373
19229449673
19229458279
19229465359
19229472073
19229479092
19229484952
19229492276
19229499173
19229506497
19229514554
19229521084
19229527798
19229534024
19229540982
19229547268
19229555386
19229560391
19229569180
19229576321
19229583401
19229592007
19229597378
19229604702
19229612454
19229619595
19229627346
19229634548
19229640347
19229648281
19229654751
19229663052
19229669338
19229677883
19229687100
19229693142
19229701565
19229708340
19229715542
19229722805
19229730312
19229740017
19229744778
19229754360
19229761257
19229768337
19229775600
19229783108
19229790859
19229799648
19229807705
19229815700
19229821560
19229831752
19229841518
19229847744
19229855678
19229865505
19229873500
19229881496
19229890285
19229899379
19229907924
19229918178
19229926540
19229935329
19229944423
19229952724
19229961879
19229971706
19229980251
19229986598
19229997585
19230003932
19230013271
19230020900
19230027431
19230036159
19230044704
19230053187
19230060023
19230067775
19230075404
19230082362
19230089992
19230096583
19230103663
19230108241
19230115565
19230122645
19230130030
19230134486
19230143458
19230150782
19230155909
19230164943
19230170253
19230176478
19230183131
19230188990
19230195704
19230202235
19230208094
19230215785
19230221888
19230227381
19230232997
19230239405
19230245081
19230252894
19230259181
19230266566
19230272608
19230279078
19230285120
19230291041
19230297205
19230303309
19230307520
19230317957
19230324000
19230329676
19230334681
19230339136
19230346094
19230351038
19230358851
19230362879
19230369227
19230374720
19230380518
19230386683
19230392298
19230398523
19230404505
19230410486
19230416895
19230422083
19230427210
19230433130
19230438379
19230445032
19230451441
19230457483
19230462549
19230468164
19230473047
19230478784
19230484766
19230491724
19230497644
19230503137
19230508692
19230514734
19230520410
19230524378
19230532190
19230539453
19230545374
19230551477
19230556055
19230561731
19230568445
19230575891
19230581689
19230588953
19230598230
19230603540
19230610559
19230616846
19230623010
19230632165
19230638208
19230643518
19230651391
19230657556
19230664880
19230672082
19230680383
19230687585
19230694665
19230700891
19230705835
19230713281
19230721338
19230728418
19230734643
19230741357
19230747216
19230755029
19230761010
19230768701
19230775354
19230783837
19230788781
19230795617
19230801965
19230808190
19230813928
19230820153
19230822412
19230831628
19230838525
19230843530
19230851647
19230856957
19230864098
19230869164
19230877953
19230884057
19230891747
19230896935
19230902978
19230908288
19230914452
19230921166
19230928490
19230933800
19230939477
19230944848
19230952904
19230959740
19230965539
19230971215
19230980004
19230984826
19230991662
19230997887
19231004174
19231009362
19231017052
19231024376
19231029870
19231037865
19231043053
19231050194
19231055382
19231063134
19231068261
19231075524
19231080651
19231087426
19231094261
19231100182
19231105126
