18874919514
18874925190
18874930195
18874934590
18874940571
18874944905
18874952534
18874957600
18874962300
18874966633
18874970844
18874976643
18874981892
18874987263
18874992817
18874998188
18875003254
18875008991
18875013203
18875019245
18875024677
18875029377
18875034260
18875040241
18875045490
18875051716
18875057026
18875063740
18875068928
18875074726
18875080769
18875086079
18875092792
18875099872
18875107014
18875112446
18875120746
18875126850
18875132587
18875139240
18875145160
18875152668
18875158954
18875167621
18875174091
18875179889
18875185505
18875193256
18875198017
18875206684
18875214191
18875220417
18875227558
18875232990
18875239276
18875245990
18875252826
18875259662
18875264972
18875272296
18875279254
18875288837
18875295490
18875303485
18875309345
18875317706
18875326190
18875331805
18875339862
18875345782
18875352802
18875360126
18875368732
18875377521
18875383685
18875390460
18875399127
18875407611
18875413837
18875421588
18875427997
18875436114
18875443255
18875451190
18875459063
18875467242
18875473040
18875481219
18875488299
18875496173
18875503436
18875510211
18875517474
18875526385
18875532366
18875539447
18875547442
18875553546
18875562152
18875569598
18875576068
18875584979
18875592730
18875599688
18875606585
18875614520
18875622698
18875632220
18875640093
18875646563
18875653826
18875661761
18875667071
18875675677
18875682696
18875691241
18875698504
18875706499
18875711687
18875720904
18875729937
18875736468
18875745745
18875753557
18875762652
18875770952
18875778521
18875787249
18875794207
18875802996
18875808001
18875817278
18875825212
18875831804
18875842119
18875849443
18875857988
18875863726
18875872026
18875880815
18875886980
18875894914
18875901567
18875910906
18875918413
18875926714
18875932451
18875939043
18875949785
18875957658
18875965593
18875972124
18875979631
18875987382
18875993608
18876002702
18876011430
18876018083
18876024553
18876033037
18876040056
18876047075
18876055253
18876062517
18876070329
18876077043
18876085405
18876092057
18876099687
18876106828
18876113603
18876121965
18876129777
18876137162
18876143632
18876150895
18876159440
18876169206
18876177018
18876183488
18876191361
18876199540
18876206437
18876212602
18876222123
18876230973
18876239274
18876247697
18876253373
18876260758
18876269669
18876278519
18876287003
18876295243
18876303239
18876311051
18876318619
18876324723
18876333207
18876342362
18876348527
18876356705
18876363541
18876375138
18876381730
18876389603
18876396927
18876405960
18876412552
18876420426
18876429581
18876435684
18876443192
18876452286
18876459183
18876467606
18876475846
18876483475
18876490921
18876498184
18876505264
18876515335
18876523148
18876530167
18876539993
18876547745
18876554581
18876561600
18876571060
18876578873
18876588394
18876596573
18876604324
18876613296
18876620010
18876628860
18876636917
18876645035
18876651077
18876658645
18876664138
18876673477
18876682083
18876692825
18876701675
18876707656
18876715957
18876726150
18876732559
18876741897
18876750320
18876759292
18876765579
18876774551
18876780837
18876789687
18876797927
18876805007
18876813857
18876821975
18876829177
18876836990
18876846084
18876854140
18876860305
18876870193
18876877273
18876885940
18876893752
18876901443
18876908889
18876917739
18876923842
18876933547
18876940505
18876948684
18876955214
18876964614
18876971755
18876979628
18876987319
18876995009
18877002089
18877008315
18877016982
18877025710
18877033095
18877041213
18877047866
18877054946
18877061659
18877070265
18877077895
18877086134
18877092909
18877100295
18877108290
18877115859
18877122755
18877130934
18877140150
18877148512
18877155531
18877164137
18877170119
18877179823
18877186720
18877196059
18877203444
18877208632
18877219069
18877226149
18877235487
18877242628
18877249220
18877257948
18877265028
18877274977
18877282789
18877291578
18877300428
18877306471
18877314894
18877321913
18877331617
18877339552
18877347486
18877356520
18877362379
18877369154
18877377332
18877388319
18877395338
18877404432
18877410963
18877417738
18877424696
18877431043
18877436903
18877444288
18877450208
18877456373
18877465467
18877471021
18877476758
18877483594
18877489393
18877495435
18877501356
18877508924
18877516553
18877523450
18877530530
18877535779
18877542249
18877549268
18877558057
18877563916
18877570203
18877576978
18877583692
18877588941
18877595594
18877602185
18877610120
18877615430
18877621228
18877628064
18877633802
18877640576
18877646924
18877654126
18877663159
18877670056
18877677686
18877682569
18877691480
18877698926
18877706677
18877714185
18877721875
18877728894
18877735486
18877742932
18877749402
18877756238
18877764905
18877774487
18877780957
18877787182
18877797009
18877804516
18877814709
18877821911
18877831616
18877837781
18877846142
18877854321
18877863049
18877868786
18877876233
18877883984
18877892041
18877900463
18877906933
18877916149
18877922985
18877930981
18877938977
18877945202
18877954968
18877963574
18877969677
18877978161
18877987255
18877994030
18878003368
18878011425
18878020702
18878026745
18878035656
18878043835
18878052746
18878057995
18878065807
18878072460
18878079418
18878086010
18878092419
18878101452
18878108471
18878113354
18878120678
18878127453
18878135387
18878143078
18878150646
18878157909
18878163585
18878170360
18878177379
18878184581
18878193126
18878200573
18878208446
18878216442
18878223094
18878230236
18878237316
18878244518
18878253490
18878261485
18878268505
18878276134
18878282848
18878289317
18878296398
18878303050
18878313121
18878320140
18878326244
18878334850
18878342479
18878348399
18878356395
18878362437
18878370921
18878376964
18878384532
18878392955
18878400584
18878408214
18878415965
18878423472
18878429088
18878441050
18878448802
18878454539
18878463145
18878469310
18878476451
18878483958
18878491221
18878498912
18878506114
18878513438
18878521373
18878528086
18878535288
18878542979
18878550181
18878557078
18878565379
18878574290
18878581126
18878589304
18878596262
18878606211
18878613108
18878621958
18878629404
18878635264
18878644785
18878654124
18878660471
18878669016
18878675791
18878685129
18878692576
18878705454
18878712107
18878722117
18878728830
18878738230
18878744516
18878752939
18878760996
18878770823
18878777292
18878784311
18878792551
18878798593
18878806223
18878812693
18878817148
18878824839
18878831125
18878837229
18878841806
18878849253
18878855905
18878860666
18878866770
18878875314
18878879221
18878886667
18878893625
18878898264
18878905588
18878910349
18878917612
18878922311
18878929147
18878935800
18878941904
18878947214
18878954050
18878959970
18878965890
18878972482
18878979440
18878984689
18878991464
18878996957
18879003793
18879011911
18879019967
18879025888
18879032968
18879038827
18879044626
18879050424
18879056588
18879062448
18879068368
18879075326
18879080026
18879085580
18879093026
18879098336
18879105172
18879110971
18879117074
18879121774
18879127816
18879133248
18879140023
18879146676
18879152169
18879158151
18879162118
18879168710
18879174203
18879180001
18879185861
18879193856
18879199654
18879204659
18879211617
18879216439
18879222176
18879229256
18879235299
18879240853
18879246773
18879252328
18879257821
18879264962
18879270394
18879276253
18879282845
18879288766
18879295235
18879302010
18879306710
18879317635
18879323556
18879332284
18879336861
18879344613
18879352303
18879358284
18879366036
18879374459
18879381722
18879387947
18879398079
18879405709
18879411629
18879417671
18879425301
18879432076
18879439461
18879445626
18879452034
18879458748
18879463692
18879469917
18879477242
18879484017
18879491402
18879497933
18879503426
18879510689
18879516243
18879524117
18879529610
18879536140
18879543892
18879549263
18879557442
18879563972
18879570564
18879577156
18879583809
18879591194
18879597847
18879605354
18879612007
18879618049
18879624702
18879631721
18879638374
18879646858
18879651863
18879659248
18879665840
18879672859
18879679267
18879686225
18879690925
18879698677
18879705513
18879712226
18879718757
18879725288
18879729866
18879737800
18879744880
18879750739
18879759895
18879765022
18879769477
18879779060
18879786323
18879791694
18879797492
18879804694
18879811347
18879816718
18879824348
18879829780
18879835944
18879841254
18879849372
18879854926
18879861579
18879866950
18879874579
18879879951
18879887397
18879893744
18879902106
18879909186
18879916083
18879922675
18879928840
18879935309
18879942572
18879948249
18879958686
18879963385
18879971381
18879983039
18879990363
18879998236
18880005500
18880011969
18880023566
18880029059
18880036994
18880045233
18880051215
18880059455
18880066168
18880073859
18880079962
18880087409
18880093451
18880098944
18880107916
18880113715
18880121710
18880127814
18880136481
18880143866
18880148138
18880156378
18880163641
18880169501
18880178168
18880185797
18880190497
18880199469
18880204657
18880212408
18880219061
18880226507
18880234381
18880240179
18880247870
18880255316
18880263433
18880269842
18880277349
18880285467
18880292791
18880299261
18880307135
18880315924
18880320989
18880331426
18880336920
18880346319
18880353338
18880361395
18880368414
18880378057
18880384405
18880390264
18880401006
18880406866
18880416998
18880422857
18880431402
18880439580
18880447210
18880454473
18880464117
18880471075
18880478155
18880487798
18880495183
18880501836
18880512029
18880518194
18880526616
18880535039
18880540777
18880549077
18880556829
18880562749
18880571599
18880576726
18880583013
18880588933
18880594731
18880601262
18880607122
18880612920
18880618779
18880625737
18880630193
18880637395
18880643987
18880650151
18880656133
18880662847
18880668767
18880673467
18880681096
18880686162
18880695561
18880700810
18880708684
18880716618
18880722112
18880728032
18880735051
18880741826
18880748784
18880755315
18880763310
18880771550
18880776555
18880783818
18880789311
18880796513
18880801701
18880808964
18880814030
18880820317
18880825688
18880830815
18880836186
18880843083
18880849553
18880854863
18880860173
18880867924
18880873234
18880879338
18880884892
18880889714
18880896305
18880903630
18880909123
18880914372
18880921025
18880926823
18880933110
18880938420
18880944584
18880950077
18880955692
18880961796
18880966313
18880972782
18880978703
18880985416
18880991825
18880997990
18881003056
18881009769
18881014713
18881021366
18881026859
18881033451
18881039188
18881046513
18881052494
18881057011
18881064030
18881068485
18881075504
18881082645
18881088505
18881093876
18881100956
18881106022
18881113651
18881121280
18881128971
18881135624
18881142399
18881147220
18881155033
18881162174
18881167179
18881175174
18881180057
18881188480
18881194217
18881202213
18881207950
18881215457
18881221744
18881229434
18881234134
18881242130
18881248905
18881255863
18881262637
18881268070
18881278751
18881286502
18881294376
18881301395
18881306827
18881314456
18881319278
18881326663
18881336368
18881343082
18881349307
18881356021
18881362674
18881369021
18881377383
18881384097
18881391971
18881397647
18881405459
18881411197
18881417544
18881425540
18881431155
18881437686
18881445681
18881451236
18881458926
18881464785
18881472598
18881477725
18881486026
18881492556
18881499636
18881505740
18881510989
18881518618
18881523440
18881529544
18881536379
18881542788
18881550723
18881558352
18881565005
18881571536
18881579836
18881587283
18881592654
18881599795
18881606631
18881612978
18881617861
18881625918
18881630740
18881638491
18881644167
18881650271
18881657229
18881664004
18881669436
18881677004
18881682558
18881688906
18881694399
18881702761
18881708498
18881715883
18881721804
18881728579
18881734621
18881743288
18881751650
18881759218
18881766420
18881772646
18881779665
18881787416
18881792360
18881801943
18881807131
18881816530
18881820925
18881830812
18881838320
18881844240
18881851930
18881858156
18881866029
18881874880
18881880922
18881888063
18881894838
18881902223
18881911195
18881919252
18881927736
18881935426
18881944093
18881954164
18881961549
18881970338
18881976991
18881984254
18881990663
18881997438
18882005494
18882012880
18882019777
18882026979
18882034974
18882044130
18882052186
18882059755
18882065675
18882072999
18882081117
18882088807
18882096376
18882103456
18882109071
18882116822
18882123841
18882130494
18882138246
18882146119
18882152406
18882159669
18882167970
18882175050
18882181153
18882189088
18882197388
18882205201
18882212647
18882220399
18882228699
18882235596
18882243348
18882252442
18882259949
18882265809
18882274720
18882280823
18882289734
18882295228
18882303711
18882308777
18882316041
18882323060
18882329712
18882336609
18882342713
18882347840
18882355164
18882360352
18882365967
18882371216
18882380432
18882386658
18882392762
18882398621
18882405579
18882411621
18882419434
18882424011
18882432800
18882439331
18882445496
18882452881
18882458130
18882465088
18882470398
18882477295
18882482544
18882488525
18882495239
18882500855
18882507751
18882514282
18882519775
18882527405
18882531616
18882539490
18882545654
18882551758
18882557922
18882563782
18882569153
18882576111
18882582397
18882588318
18882594909
18882601257
18882607300
18882613220
18882622863
18882631286
18882636657
18882644653
18882649231
18882656189
18882662841
18882669860
18882679077
18882684936
18882690979
18882695617
18882703430
18882707519
18882715209
18882721862
18882728393
18882733764
18882739990
18882746154
18882751037
18882758239
18882763854
18882771179
18882778564
18882783752
18882789367
18882796325
18882802367
18882808227
18882812682
18882819335
18882826049
18882832458
18882838073
18882844726
18882850219
18882857055
18882863830
18882868651
18882876037
18882881408
18882887694
18882895263
18882902343
18882908935
18882916137
18882922789
18882929015
18882935119
18882940978
18882947081
18882953490
18882959716
18882966613
18882972838
18882979979
18882984618
18882992125
18882998290
18883005187
18883012938
18883017699
18883025084
18883029845
18883037413
18883042662
18883050108
18883057555
18883064452
18883071227
18883078429
18883084105
18883091185
18883099242
18883106871
18883113707
18883119139
18883127135
18883132811
18883138975
18883145567
18883151671
18883159361
18883164427
18883171812
18883178526
18883186217
18883193297
18883200621
18883209959
18883217039
18883224608
18883230345
18883236998
18883244627
18883251585
18883260923
18883267515
18883275206
18883282164
18883288389
18883295957
18883301206
18883309080
18883316526
18883323911
18883332273
18883339903
18883348753
18883355345
18883360960
18883368955
18883374815
18883382932
18883388181
18883394834
18883402525
18883408567
18883414793
18883420896
18883428342
18883435606
18883440794
18883447263
18883455198
18883463071
18883468442
18883475828
18883483640
18883491025
18883496641
18883502927
18883510190
18883516233
18883523679
18883529416
18883536802
18883542722
18883550534
18883556394
18883562192
18883569272
18883576841
18883583982
18883590634
18883598569
18883605039
18883614194
18883620908
18883628537
18883634152
18883643369
18883649289
18883657285
18883662961
18883671140
18883678769
18883684445
18883693478
18883701657
18883707455
18883715329
18883722348
18883729611
18883738095
18883746457
18883754147
18883759091
18883768918
18883776486
18883784482
18883793515
18883800229
18883806515
18883815732
18883822690
18883831051
18883839901
18883845822
18883855465
18883863034
18883868710
18883875973
18883883847
18883890744
18883899349
18883911373
18883918514
18883925839
18883933468
18883940792
18883949032
18883957028
18883965084
18883973385
18883981808
18883993588
18884002193
18884008114
18884017391
18884022945
18884034054
18884044979
18884051571
18884060055
18884066646
18884074886
18884080318
18884088436
18884095760
18884104000
18884110408
18884116695
18884122432
18884129879
18884135677
18884144405
18884150447
18884156551
18884162410
18884168880
18884174678
18884181514
18884185848
18884193172
18884199825
18884205928
18884212093
18884216731
18884222591
18884229976
18884234310
18884241329
18884247859
18884254512
18884259944
18884266597
18884272823
18884277522
18884283992
18884290645
18884297176
18884302364
18884309871
18884315059
18884321895
18884327388
18884334407
18884339656
18884345454
18884350886
18884356624
18884362178
18884368281
18884375606
18884382258
18884387691
18884393306
18884399959
18884404170
18884410640
18884416926
18884422664
18884429316
18884435969
18884440974
18884446955
18884452266
18884458430
18884464045
18884470210
18884475703
18884482234
18884487971
18884493281
18884499873
18884503901
18884510981
18884517695
18884524165
18884530146
18884537104
18884542231
18884547663
18884554682
18884562129
18884567561
18884573542
18884579157
18884587824
18884594233
18884601069
18884607233
18884616877
18884623835
18884630671
18884638605
18884643732
18884650812
18884659540
18884668940
18884675165
18884684809
18884690180
18884697077
18884703669
18884709589
18884717280
18884722773
18884729303
18884737238
18884742060
18884749628
18884755793
18884761835
18884768366
18884774469
18884781427
18884787470
18884793451
18884799555
18884805719
18884814142
18884819391
18884825434
18884833307
18884839411
18884846124
18884852777
18884859674
18884867426
18884872736
18884880243
18884887933
18884893732
18884899774
18884906122
18884912225
18884918756
18884925531
18884932733
18884937555
18884945856
18884950311
18884958612
18884966119
18884971612
18884978265
18884984613
18884990106
18884994806
18885001397
18885008416
18885014581
18885020135
18885026178
18885032953
18885038629
18885043878
18885050470
18885056024
18885064325
18885070123
18885077752
18885084344
18885090692
18885096307
18885103448
18885109979
18885116265
18885122857
18885129510
18885134759
18885142144
18885148736
18885155816
18885160699
18885168389
18885173394
18885183343
18885191277
18885196831
18885206719
18885213250
18885223016
18885232232
18885238518
18885246392
18885251458
18885259270
18885268181
18885276787
18885284783
18885293267
18885300530
18885309380
18885316460
18885322380
18885328484
18885333794
18885340569
18885345818
18885353386
18885359551
18885366387
18885373101
18885379448
18885386467
18885393975
18885401116
18885407463
18885414910
18885422539
18885429253
18885434136
18885439995
18885447868
18885454277
18885460930
18885467278
18885474663
18885480400
18885487175
18885492790
18885499870
18885505974
18885514213
18885521660
18885527458
18885533806
18885542229
18885549248
18885556938
18885563164
18885569450
18885575432
18885586906
18885594780
18885600761
18885607841
18885617241
18885623527
18885629936
18885637199
18885644401
18885651115
18885659294
18885666130
18885671867
18885677482
18885684562
18885692802
18885698356
18885709037
18885714713
18885723441
18885729545
18885736930
18885743583
18885749564
18885756400
18885762077
18885768363
18885773307
18885778983
18885784965
18885790519
18885796683
18885800956
18885807304
18885813041
18885818839
18885824332
18885831718
18885838553
18885845695
18885852469
18885858878
18885867850
18885874747
18885883170
18885890372
18885896964
18885904410
18885911307
18885916251
18885924186
18885932914
18885940055
18885947867
18885954825
18885961966
18885968802
18885978018
18885984366
18885994864
18886004447
18886010794
18886019950
18886026541
18886036307
18886044547
18886052969
18886064017
18886072806
18886082022
18886090018
18886097952
18886105887
18886113943
18886123221
18886133353
18886141653
18886150137
18886157889
18886166067
18886174307
18886183279
18886192129
18886200491
18886210012
18886218618
18886227469
18886236258
18886244925
18886252554
18886261709
18886269155
18886278616
18886286489
18886293997
18886301626
18886312673
18886320913
18886328726
18886335439
18886345083
18886355276
18886365286
18886374380
18886381277
18886390615
18886399526
18886409231
18886416067
18886426931
18886436941
18886445608
18886452688
18886463491
18886474965
18886484792
18886492177
18886502675
18886510122
18886520192
18886530690
18886539235
18886547536
18886556325
18886564809
18886576100
18886585195
18886594777
18886603261
18886612721
18886620961
18886630605
18886639394
18886647328
18886658437
18886669423
18886680470
18886690785
18886700795
18886711171
18886722218
18886735768
18886744679
18886754872
18886765248
18886774281
18886783803
18886794667
18886804310
18886813649
18886823597
18886833241
18886840077
18886849293
18886859059
18886869068
18886876454
18886885121
18886894337
18886903309
18886910877
18886923206
18886931446
18886942677
18886954823
18886963001
18886971241
18886980885
18886992359
18887001575
18887010914
18887022266
18887030933
18887040455
18887051319
18887061756
18887071949
18887082020
18887090992
18887100147
18887107349
18887118641
18887127674
18887137195
18887147998
18887157520
18887166980
18887177112
18887184497
18887195850
18887206714
18887216174
18887224109
18887233875
18887245166
18887259937
18887269336
18887277637
18887288562
18887296435
18887306995
18887318347
18887325671
18887336780
18887345019
18887354114
18887363635
18887372912
18887383410
18887393786
18887401416
18887412219
18887422290
18887431384
18887441638
18887449206
18887459704
18887469226
18887477038
18887488391
18887497119
18887507739
18887516406
18887523791
18887533618
18887543261
18887552966
18887559069
18887565478
18887573046
18887580614
18887588610
18887595995
18887602465
18887610461
18887616259
18887624193
18887630846
18887637560
18887644335
18887650866
18887657274
18887663744
18887670214
18887676500
18887681078
18887687059
18887693102
18887699511
18887707384
18887713121
18887719286
18887725878
18887731920
18887737047
18887743090
18887752123
18887759142
18887765245
18887770433
18887776354
18887782396
18887790026
18887795580
18887803880
18887808946
18887814684
18887821459
18887825731
18887832750
18887839159
18887844103
18887851610
18887864000
18887870531
18887876268
18887883470
18887890184
18887896837
18887905138
18887909837
18887917894
18887923143
18887931077
18887937120
18887943651
18887947862
18887955675
18887962938
18887967943
18887975389
18887983018
18887988023
18887993089
18887999986
18888005479
18888011277
18888017381
18888024217
18888031175
18888035203
18888041917
18888046556
18888053147
18888059007
18888065293
18888070542
18888075975
18888081651
18888087815
18888093431
18888099229
18888104356
18888110826
18888118211
18888123948
18888130662
18888138841
18888143906
18888150254
18888158067
18888164536
18888168870
18888175889
18888183274
18888187852
18888194138
18888200974
18888206589
18888211655
18888218857
18888223679
18888230576
18888234116
18888242905
18888246750
18888253586
18888257920
18888264084
18888270188
18888276047
18888283188
18888289048
18888296311
18888303208
18888309067
18888314804
18888320847
18888327317
18888334153
18888341416
18888346787
18888352890
18888359909
18888364853
18888371567
18888379563
18888386337
18888392258
18888399399
18888405747
18888412216
18888418320
18888424057
18888430588
18888438217
18888444992
18888451462
18888459274
18888466110
18888472763
18888479721
18888484604
18888490707
18888497116
18888500900
18888508774
18888512558
18888521103
18888527084
18888532760
18888540390
18888545517
18888553207
18888559067
18888564438
18888572433
18888577804
18888583786
18888591293
18888595565
18888602340
18888608627
18888615890
18888622726
18888629928
18888635604
18888642440
18888648178
18888655014
18888660568
18888667770
18888674972
18888681259
18888686630
18888692123
18888700118
18888705551
18888714950
18888722274
18888730270
18888734664
18888741866
18888748031
18888754928
18888761825
18888770309
18888776656
18888783858
18888791183
18888797713
18888804183
18888810103
18888817245
18888824447
18888829452
18888836715
18888841781
18888848495
18888855330
18888861800
18888867415
18888874801
18888880660
18888886397
18888892257
18888898726
18888904891
18888911910
18888917891
18888925399
18888931807
18888936568
18888943953
18888948775
18888956649
18888962020
18888970137
18888975386
18888981246
18888988448
18888994307
18889001570
18889007124
18889015608
18889021712
18889029341
18889034834
18889042098
18889047957
18889055220
18889060042
18889068037
18889074690
18889080733
18889088911
18889094343
18889102217
18889108565
18889116377
18889124068
18889132185
18889136946
18889145613
18889152937
18889160689
18889167708
18889176191
18889184736
18889190413
18889199080
18889206831
18889215010
18889222334
18889231489
18889238325
18889245161
18889254072
18889261213
18889269636
18889276411
18889284773
18889293867
18889299909
18889308393
18889316816
18889326826
18889333662
18889341901
18889351118
18889360151
18889366743
18889375837
18889386274
18889392927
18889402021
18889409284
18889418256
18889425886
18889434064
18889439802
18889447553
18889458356
18889465741
18889475141
18889481794
18889489240
18889496442
18889503339
18889509504
18889517072
18889523786
18889531415
18889538739
18889544599
18889550580
18889557233
18889562787
18889569440
18889577863
18889583844
18889588971
18889595380
18889601911
18889609540
18889615704
18889622540
18889626630
18889634747
18889639935
18889646405
18889652264
18889659955
18889666547
18889671307
18889678448
18889684918
18889690045
18889696698
18889702496
18889709820
18889715863
18889721539
18889727704
18889735333
18889740094
18889747845
18889753277
18889761090
18889766217
18889772931
18889778363
18889784405
18889791363
18889796429
18889803814
18889808636
18889817730
18889824200
18889830181
18889836224
18889843182
18889849407
18889855999
18889862652
18889868817
18889875103
18889880779
18889886395
18889893475
18889898968
18889904461
18889909588
18889916058
18889921551
18889928204
18889934918
18889939800
18889946331
18889951519
18889960918
18889971783
18889978008
18889984905
18889991985
18889998028
18890005779
18890012981
18890020794
18890028301
18890034038
18890041607
18890047954
18890056133
18890061382
18890068828
18890074077
18890081524
18890087261
18890093670
18890099651
18890106670
18890114971
18890120220
18890127544
18890133037
18890139446
18890146160
18890152996
18890160015
18890166728
18890172832
18890178203
18890185161
18890192790
18890200298
18890208110
18890212871
18890220561
18890226115
18890234050
18890241985
18890248821
18890254924
18890262370
18890269572
18890277263
18890285686
18890294414
18890301128
18890309367
18890316264
18890322429
18890329570
18890336650
18890341838
18890349956
18890356791
18890364299
18890369914
18890377726
18890384135
18890391276
18890397441
18890403605
18890409892
18890416850
18890423014
18890428752
18890436564
18890441691
18890449382
18890455851
18890460673
18890467570
18890474894
18890482218
18890488322
18890495829
18890502421
18890509379
18890515849
18890520792
18890529032
18890534403
18890540446
18890548380
18890557169
18890563151
18890571574
18890578226
18890586344
18890592448
18890599650
18890609293
18890616739
18890624735
18890631937
18890637613
18890644571
18890654459
18890661112
18890667521
18890675150
18890681864
18890686808
18890694925
18890699869
18890707743
18890714762
18890721476
18890726969
18890733316
18890741068
18890747965
18890755472
18890762125
18890768167
18890775430
18890781412
18890789652
18890795938
18890803446
18890811319
18890818582
18890824808
18890833170
18890839883
18890847086
18890853983
18890860941
18890867044
18890874063
18890880106
18890888834
18890894937
18890901956
18890908914
18890917459
18890924234
18890931802
18890938150
18890947549
18890954141
18890963601
18890969949
18890978250
18890986184
18890994851
18891001992
18891010354
18891018899
18891024087
18891033242
18891040811
18891049844
18891056802
18891065530
18891072854
18891079690
18891086221
18891094338
18891100808
18891107705
18891116494
18891124184
18891130105
18891139138
18891145119
18891153603
18891159585
18891167092
18891175332
18891183144
18891189431
18891196877
18891203774
18891211404
18891219948
18891228493
18891235634
18891243508
18891251259
18891259316
18891266518
18891273659
18891280556
18891287514
18891295205
18891306191
18891312294
18891319558
18891324379
18891332009
18891338784
18891348671
18891363686
18891369972
18891377052
18891383827
18891388161
18891396950
18891401405
18891409340
18891415871
18891422707
18891428749
18891433632
18891441505
18891447487
18891454506
18891459938
18891467201
18891472389
18891479408
18891484657
18891491310
18891496803
18891503639
18891511085
18891515480
18891522255
18891527382
18891532814
18891539711
18891545631
18891551796
18891557899
18891564003
18891569435
18891575660
18891581215
18891587867
18891594215
18891599769
18891606178
18891610511
18891617530
18891621681
18891629188
18891635047
18891641700
18891647987
18891653053
18891659278
18891666297
18891671241
18891676185
18891683509
18891688758
18891694862
18891699928
18891705543
18891712074
18891719520
18891726112
18891731605
18891738929
18891744605
18891750709
18891757423
18891763892
18891770606
18891775672
18891783057
18891788306
18891794471
18891801856
18891807105
18891815162
18891821143
18891828711
18891836585
18891842689
18891849158
18891856238
18891863379
18891872229
18891879187
18891884803
18891893348
18891899390
18891908179
18891913428
18891921485
18891926856
18891935462
18891941016
18891949073
18891956824
18891964209
18891974219
18891981726
18891991004
18891996497
18892004797
18892010413
18892016394
18892021826
18892027625
18892034460
18892038977
18892046179
18892050635
18892057104
18892063757
18892069189
18892075537
18892082556
18892088904
18892093725
18892100073
18892106665
18892111243
18892119116
18892126623
18892132239
18892139685
18892148047
18892153174
18892160009
18892168005
18892174292
18892181250
18892188452
18892195837
18892202185
18892209814
18892216528
18892224523
18892230505
18892238256
18892243872
18892249243
18892255956
18892263769
18892269384
18892277685
18892284399
18892291052
18892296728
18892303014
18892310339
18892316503
18892324011
18892330785
18892337194
18892343725
18892351781
18892356664
18892365148
18892372289
18892377782
18892384313
18892392431
18892399328
18892404211
18892410985
18892418188
18892425573
18892431676
18892439550
18892447362
18892454015
18892459325
18892467504
18892472814
18892480809
18892488683
18892495885
18892501928
18892508947
18892517247
18892525853
18892532262
18892540502
18892547154
18892559850
18892566503
18892571874
18892579930
18892585668
18892595738
18892601903
18892612218
18892618321
18892628148
18892634984
18892642552
18892650182
18892657445
18892665440
18892672459
18892678380
18892686070
18892691868
18892699925
18892707005
18892714635
18892722264
18892729100
18892735508
18892743260
18892752232
18892757847
18892763646
18892771946
18892777806
18892785374
18892791966
18892799778
18892806126
18892813694
18892820164
18892827671
18892835972
18892843235
18892849522
18892857456
18892864659
18892871067
18892876866
18892884556
18892892552
18892898960
18892904698
18892912998
18892919651
18892928501
18892934422
18892942966
18892949619
18892957249
18892963535
18892970676
18892977207
18892984348
18892991917
18892999485
18893005771
18893013828
18893021518
18893028415
18893034214
18893041172
18893047947
18893054111
18893059543
18893066013
18893072727
18893077060
18893083957
18893088413
18893095310
18893101474
18893106967
18893115024
18893120334
18893127841
18893133029
18893141269
18893147067
18893153842
18893160495
18893168857
18893173618
18893180271
18893186679
18893193759
18893199619
18893206943
18893213229
18893224033
18893232028
18893238986
18893246127
18893251865
18893258456
18893266025
18893273837
18893280307
18893288058
18893293796
18893303317
18893309543
18893313693
18893320529
18893325168
18893331271
18893337802
18893342502
18893347262
18893354464
18893359652
18893365695
18893371493
18893377719
18893382663
18893388644
18893394259
18893400607
18893405917
18893411593
18893417941
18893424716
18893430819
18893435885
18893442477
18893447665
18893454684
18893459506
18893466830
18893471774
18893479281
18893484774
18893490572
18893496432
18893503329
18893509188
18893515780
18893522372
18893528353
18893532809
18893540682
18893548128
18893555025
18893561312
18893568148
18893574190
18893579378
18893587069
18893594332
18893601839
18893607699
18893614840
18893621493
18893626436
18893633944
18893640474
18893648836
18893655001
18893660860
18893669832
18893676912
18893685579
18893690645
18893697908
18893703829
18893710604
18893718477
18893725069
18893732454
18893738069
18893745943
18893752046
18893759432
18893765474
18893772920
18893780611
18893786409
18893794832
18893802156
18893808687
18893815584
18893820161
18893828157
18893834322
18893844820
18893851900
18893858736
18893864107
18893870698
18893876985
18893885408
18893891633
18893897005
18893904146
18893909822
18893915559
18893923555
18893932649
18893938936
18893944490
18893951082
18893955232
18893962495
18893969148
18893976045
18893983796
18893989167
18893995332
18894002717
18894009675
18894017427
18894024079
18894029939
18894037324
18894045075
18894051728
18894057893
18894064607
18894071748
18894079499
18894086274
18894092500
18894100373
18894107331
18894115083
18894123261
18894132233
18894139008
18894148957
18894155854
18894164948
18894172272
18894179230
18894187958
18894193574
18894202973
18894209076
18894217804
18894223725
18894232026
18894239045
18894245087
18894255341
18894263276
18894271454
18894277680
18894285981
18894292755
18894299225
18894306183
18894314667
18894321137
18894332184
18894340668
18894347870
18894355499
18894362641
18894370636
18894379547
18894388519
18894398041
18894408417
18894415558
18894424713
18894432281
18894439117
18894446564
18894455109
18894463043
18894470550
18894475799
18894489349
18894497894
18894504669
18894511932
18894519134
18894526153
18894533783
18894539398
18894548309
18894553680
18894561859
18894569549
18894575714
18894583404
18894590606
18894598114
18894607513
18894614776
18894621429
18894628570
18894636566
18894643218
18894650604
18894656829
18894661529
18894668670
18894674835
18894680694
18894684966
18894694610
18894700897
18894706451
18894712798
18894719207
18894724395
18894732574
18894738677
18894745635
18894754363
18894760162
18894765044
18894770782
18894777923
18894784453
18894789397
18894797332
18894801909
18894807952
18894814483
18894823211
18894830108
18894833709
18894841094
18894847747
18894853606
18894860320
18894865447
18894872771
18894877837
18894883513
18894888640
18894893279
18894898589
18894906768
18894912139
18894917144
18894922820
18894928496
18894935149
18894940642
18894945586
18894951750
18894957366
18894962126
18894970854
18894976225
18894985808
18894992400
18894998686
18895005827
18895011687
18895017302
18895025298
18895031523
18895039275
18895044035
18895050749
18895058134
18895062773
18895070097
18895075957
18895082121
18895089201
18895094694
18895100981
18895108366
18895115751
18895121428
18895128203
18895134428
18895141874
18895147734
18895154570
18895161284
18895168730
18895174650
18895180876
18895187101
18895193754
18895201506
18895207487
18895214018
18895219999
18895226896
18895233000
18895241056
18895247099
18895253629
18895260832
18895267729
18895273893
18895280180
18895288236
18895294401
18895301664
18895308866
18895315580
18895323454
18895329374
18895337736
18895344144
18895351957
18895358427
18895364591
18895372098
18895379117
18895385587
18895391996
18895398954
18895404752
18895410856
18895419095
18895426053
18895431485
18895438810
18895445096
18895452726
18895460904
18895467740
18895475614
18895482450
18895488248
18895494535
18895501554
18895507596
18895514615
18895521268
18895527799
18895534268
18895539517
18895547574
18895554532
18895560025
18895565152
18895572904
18895579068
18895585477
18895589688
18895597440
18895604031
18895612393
18895618924
18895624600
18895631253
18895637845
18895644559
18895651211
18895658658
18895664639
18895671109
18895678311
18895683865
18895690884
18895697049
18895704861
18895711392
18895717373
18895724392
18895729336
18895736355
18895742581
18895749600
18895755398
18895763333
18895769497
18895775357
18895781582
18895789517
18895795193
18895803006
18895809658
18895814907
18895822842
18895829617
18895837979
18895844814
18895849941
18895856289
18895863369
18895870388
18895876980
18895885098
18895892910
18895899014
18895904568
18895912258
18895917873
18895925320
18895930752
18895938015
18895945278
18895954189
18895961941
18895970974
18895978420
18895983669
18895990078
18895998989
18896007839
18896014736
18896021389
18896027919
18896036464
18896042995
18896050808
18896058071
18896065029
18896072231
18896078334
18896085475
18896090908
18896099147
18896106533
18896114101
18896120632
18896128261
18896136501
18896143886
18896150173
18896159084
18896167262
18896174709
18896180934
18896186977
18896195888
18896201808
18896210231
18896219142
18896226649
18896235500
18896242824
18896249965
18896256007
18896264125
18896271327
18896277675
18896285182
18896291652
18896298610
18896304225
18896310145
18896316432
18896323451
18896330958
18896338344
18896343226
18896350245
18896356898
18896363185
18896369288
18896375209
18896382350
18896388392
18896394496
18896400172
18896406031
18896414576
18896419581
18896425563
18896431971
18896438319
18896444056
18896450343
18896455958
18896463160
18896469080
18896474757
18896480860
18896486964
18896493678
18896499964
18896505030
18896512293
18896518153
18896524989
18896531519
18896537134
18896543604
18896550135
18896557276
18896561671
18896569117
18896574793
18896579737
18896586085
18896592859
18896598353
18896604029
18896609949
18896615076
18896621363
18896627161
18896631556
18896638880
18896644739
18896652063
18896657740
18896663050
18896668360
18896674280
18896680750
18896686487
18896692774
18896698389
18896704554
18896710535
18896716272
18896723718
18896729090
18896736841
18896743372
18896749964
18896756189
18896761133
18896769312
18896777002
18896782617
18896788049
18896795801
18896802698
18896807764
18896816614
18896823083
18896829065
18896833948
18896841516
18896846521
18896853723
18896861474
18896866785
18896873620
18896880395
18896886072
18896891382
18896898950
18896906579
18896914087
18896919763
18896926965
18896936731
18896944177
18896950647
18896955590
18896964563
18896971399
18896978051
18896985498
18896992883
18896997705
18897006188
18897012963
18897020349
18897026574
18897034143
18897040368
18897045617
18897052453
18897060265
18897067651
18897074487
18897081445
18897087487
18897093530
18897100365
18897107323
18897112817
18897119347
18897125512
18897130700
18897137292
18897142724
18897150780
18897157311
18897163598
18897168114
18897175316
18897180871
18897189232
18897195275
18897203454
18897209374
18897214135
18897220910
18897226525
18897234215
18897240197
18897245812
18897253136
18897259911
18897266381
18897272301
18897278099
18897283593
18897292382
18897298668
18897305626
18897313256
18897323204
18897330834
18897337670
18897344994
18897352379
18897360497
18897366844
18897373070
18897380272
18897385704
18897391502
18897400230
18897406700
18897413658
18897419884
18897426598
18897435020
18897442406
18897449425
18897456322
18897462974
18897471580
18897477928
18897484825
18897490928
18897497642
18897506004
18897513511
18897519554
18897526024
18897532188
18897540428
18897547081
18897553672
18897561058
18897568260
18897575889
18897582603
18897590660
18897597251
18897606101
18897614524
18897620140
18897628684
18897636192
18897642234
18897649986
18897658103
18897664817
18897671287
18897680320
18897688743
18897694724
18897705039
18897712730
18897718833
18897724448
18897732993
18897741172
18897747275
18897754783
18897763145
18897770347
18897777183
18897785727
18897795249
18897800864
18897809043
18897815757
18897821921
18897828574
18897834189
18897842917
18897849814
18897858359
18897865927
18897872763
18897880881
18897887412
18897894126
18897903281
18897909506
18897917929
18897925986
18897933859
18897941794
18897948203
18897955832
18897963950
18897970908
18897977499
18897983725
18897988181
18897995078
18898001242
18898008688
18898013998
18898020956
18898028097
18898035666
18898041708
18898049948
18898055502
18898061301
18898069174
18898075339
18898082724
18898088949
18898093405
18898100546
18898107931
18898113913
18898123678
18898131491
18898136496
18898144735
18898151571
18898158407
18898163595
18898171530
18898176474
18898182882
18898189535
18898195761
18898201193
18898208273
18898214254
18898219625
18898226888
18898231405
18898240072
18898247030
18898252462
18898258016
18898264181
18898268331
18898275594
18898281271
18898289632
18898296041
18898301717
18898306966
18898311727
18898317953
18898324117
18898329488
18898337057
18898343160
18898349691
18898354757
18898359640
18898366720
18898372640
18898378560
18898384847
18898390279
18898396261
18898403402
18898409871
18898415975
18898422872
18898429097
18898435201
18898440877
18898447774
18898454366
18898460775
18898466390
18898472737
18898479695
18898485677
18898490804
18898497518
18898504598
18898512105
18898517110
18898523946
18898528401
18898535176
18898542867
18898548482
18898556844
18898562825
18898569234
18898575581
18898582051
18898589070
18898594868
18898602986
18898609029
18898616231
18898622212
18898630025
18898635701
18898642903
18898651204
18898658040
18898662739
18898671223
18898677388
18898685078
18898690693
18898696797
18898704487
18898711018
18898717671
18898724812
18898729512
18898736531
18898743611
18898749836
18898756550
18898762715
18898769184
18898775227
18898780842
18898788594
18898795674
18898800801
18898807698
18898814167
18898821186
18898827900
18898835774
18898841511
18898847553
18898854084
18898859455
18898867695
18898873249
18898880207
18898885700
18898893024
18898899006
18898905170
18898911701
18898917194
18898924702
18898931049
18898938007
18898944172
18898950764
18898957661
18898965107
18898970173
18898977558
18898984943
18898993610
18899000507
18899006611
18899014423
18899021808
18899029926
18899036457
18899043720
18899049579
18899057636
18899064716
18899072284
18899077472
18899085468
18899090717
18899098041
18899104633
18899110614
18899117023
18899123737
18899129230
18899138996
18899144306
18899152362
18899160297
18899166644
18899171344
18899179950
18899187274
18899195148
18899203021
18899209430
18899215717
18899223163
18899229571
18899237933
18899245502
18899253985
18899260699
18899268329
18899274615
18899281024
18899287005
18899295428
18899303729
18899308734
18899317157
18899325580
18899332354
18899340350
18899348834
18899354266
18899362506
18899367999
18899377642
18899387225
18899397479
18899410540
18899418719
18899428485
18899438189
18899443621
18899452166
18899457598
18899466509
18899472002
18899479571
18899487750
18899495440
18899503619
18899510760
18899519244
18899525835
18899532671
18899539690
18899546465
18899553240
18899560442
18899566729
18899576372
18899582598
18899589190
18899595720
18899602129
18899609942
18899616411
18899624529
18899631975
18899641497
18899647661
18899655107
18899661760
18899668779
18899674028
18899681841
18899687761
18899694780
18899699846
18899706438
18899713701
18899719316
18899724504
18899732744
18899739214
18899743791
18899749346
18899755449
18899761064
18899768022
18899774614
18899779680
18899787675
18899792802
18899799089
18899803850
18899810197
18899815141
18899822343
18899828691
18899834733
18899840105
18899845781
18899851213
18899857133
18899862565
18899868974
18899875200
18899882463
18899886918
18899894609
18899898942
18899906389
18899910600
18899919206
18899926042
18899933000
18899938859
18899945268
18899949845
18899954179
18899961381
18899967851
18899974137
18899979447
18899985673
18899991227
18899996842
18900002275
18900009477
18900015763
18900022172
18900026933
18900031571
18900038163
18900043534
18900049577
18900054765
18900060868
18900066239
18900073197
18900078141
18900083695
18900088639
18900095658
18900101029
18900107682
18900112077
18900118729
18900124711
18900130204
18900136063
18900141556
18900147965
18900154801
18900160782
18900165909
18900171891
18900177811
18900185319
18900191422
18900197098
18900202469
18900209610
18900214920
18900220658
18900228104
18900234574
18900242936
18900250260
18900260147
18900267716
18900275284
18900282425
18900286881
18900295304
18900302262
18900309097
18900315079
18900320145
18900328873
18900334366
18900340653
18900346695
18900351334
18900360062
18900365372
18900372513
18900379288
18900386429
18900390945
18900399429
18900405777
18900410232
18900418411
18900424271
18900431351
18900437637
18900443619
18900450516
18900455704
18900461746
18900470108
18900476517
18900480911
18900489395
18900497268
18900503494
18900509231
18900515884
18900523086
18900529861
18900536331
18900542862
18900548599
18900557022
18900564163
18900570755
18900576980
18900585159
18900589492
18900597671
18900605117
18900611160
18900617935
18900624954
18900629592
18900636855
18900643081
18900650161
18900656265
18900661941
18900670058
18900676162
18900682143
18900688125
18900693618
18900699721
18900707412
18900712600
18900719314
18900725539
18900732192
18900737441
18900744887
18900752090
18900760268
18900767959
18900774123
18900780349
18900786391
18900794265
18900800063
18900807692
18900815078
18900821791
18900828749
18900834731
18900840956
18900848891
18900855422
18900862868
18900869887
18900877700
18900883437
18900891860
18900897719
18900905043
18900910903
18900920668
18900926894
18900933791
18900941603
18900949904
18900957900
18900964125
18900973219
18900982924
18900990858
18900997206
18901003371
18901011854
18901018507
18901024672
18901034560
18901040846
18901046767
18901056227
18901061781
18901069716
18901075514
18901087843
18901093641
18901101271
18901108900
18901116285
18901124037
18901131544
18901138868
18901144789
18901151991
18901160109
18901167677
18901176710
18901183119
18901192152
18901197767
18901204664
18901211805
18901219618
18901228529
18901235182
18901241956
18901249708
18901256300
18901263380
18901269605
18901278455
18901287244
18901293897
18901299818
18901305311
18901313856
18901319288
18901326856
18901335035
18901341871
18901349073
18901355176
18901361829
18901368726
18901373487
18901380750
18901387403
18901393018
18901399061
18901405408
18901411573
18901416333
18901422437
18901429151
18901433850
18901440992
18901447950
18901453504
18901461194
18901466748
18901473706
18901478955
18901487195
18901493421
18901500134
18901507398
18901513684
18901523267
18901529004
18901534131
18901541211
18901547559
18901552686
18901557874
18901565015
18901570813
18901576917
18901582776
18901589978
18901596020
18901603772
18901609326
18901617261
18901621777
18901628308
18901634350
18901641125
18901647412
18901652356
18901658948
18901664258
18901671765
18901677563
18901684155
18901689892
18901695569
18901700818
18901706677
18901710766
18901716809
18901722546
18901728772
18901734387
18901740246
18901745495
18901750561
18901757519
18901764294
18901769970
18901775524
18901780895
18901786022
18901793408
18901800305
18901805004
18901812878
18901819775
18901827160
18901832836
18901838513
18901846142
18901850842
18901857922
18901865673
18901872021
18901878002
18901883800
18901891186
18901897228
18901903454
18901911205
18901919079
18901924694
18901931896
18901937694
18901944530
18901953014
18901958813
18901965038
18901972423
18901978893
18901986034
18901992809
18901997570
18902004894
18902012828
18902019481
18902025402
18902032482
18902038402
18902045726
18902052684
18902059825
18902066600
18902073070
18902078624
18902083873
18902091442
18902097667
18902103771
18902111095
18902117015
18902123180
18902129283
18902135143
18902140636
18902149608
18902156505
18902163402
18902169505
18902175914
18902181407
18902189159
18902195201
18902201671
18902207774
18902214244
18902219554
18902229442
18902238780
18902244700
18902252574
18902260142
18902266185
18902274363
18902280101
18902287791
18902294871
18902301341
18902307567
18902314769
18902320079
18902326731
18902331309
18902338328
18902346141
18902352366
18902360118
18902370433
18902375376
18902382762
18902388438
18902395213
18902403697
18902410044
18902416453
18902423594
18902430308
18902435801
18902442210
18902449778
18902456736
18902462107
18902471507
18902477061
18902483836
18902490183
18902498972
18902506602
18902512522
18902520457
18902526072
18902534373
18902539805
18902547495
18902553660
18902561106
18902568064
18902575937
18902583445
18902590159
18902597361
18902605661
18902610971
18902619150
18902624338
18902634287
18902641611
18902647226
18902655466
18902661814
18902668772
18902674936
18902681894
18902688181
18902694589
18902700327
18902709360
18902718393
18902725046
18902732126
18902740366
18902748178
18902756174
18902762888
18902770578
18902776315
18902787790
18902795785
18902802804
18902808298
18902819406
18902826181
18902833322
18902841745
18902851632
18902858285
18902865060
18902871774
18902878854
18902890207
18902896615
18902905282
18902915353
18902922433
18902932809
18902938058
18902948068
18902954354
18902962411
18902968087
18902975778
18902984323
18902990426
18902998666
18903005197
18903014230
18903020883
18903026315
18903035897
18903043588
18903049264
18903055123
18903061532
18903069527
18903075326
18903081857
18903086800
18903094186
18903102303
18903109383
18903114815
18903122628
18903128487
18903134652
18903141183
18903148202
18903156197
18903163888
18903168953
18903175789
18903181283
18903188241
18903194527
18903201790
18903208809
18903215218
18903220772
18903226204
18903233040
18903239388
18903247933
18903253487
18903259468
18903266121
18903271797
18903277535
18903283455
18903291390
18903297371
18903304329
18903310799
18903316658
18903321175
18903328987
18903333992
18903341683
18903346870
18903352608
18903358162
18903364021
18903368965
18903376228
18903380928
18903387276
18903394417
18903399849
18903405525
18903411323
18903417549
18903424568
18903430427
18903436348
18903442818
18903447090
18903455330
18903461311
18903467293
18903472603
18903477546
18903484932
18903489998
18903494758
18903501411
18903508613
18903513923
18903520759
18903526802
18903531440
18903539070
18903545295
18903552742
18903559394
18903564949
18903571907
18903576911
18903582893
18903589851
18903595161
18903602424
18903610114
18903617378
18903622932
18903629768
18903637214
18903641914
18903650337
18903657478
18903662421
18903669990
18903675300
18903682563
18903687690
18903694831
18903702033
18903707954
18903715766
18903722602
18903728889
18903736945
18903745063
18903755744
18903763007
18903774360
18903782782
18903790107
18903796454
18903802131
18903807868
18903814582
18903822638
18903827582
18903833564
18903840033
18903846320
18903850959
18903858466
18903864752
18903872016
18903877082
18903884284
18903889411
18903895758
18903900763
18903907843
18903915778
18903921393
18903927130
18903932501
18903938483
18903945502
18903951605
18903960333
18903968146
18903973029
18903979559
18903986090
18903991400
18903997870
18904004278
18904012274
18904018622
18904024908
18904031988
18904038092
18904044562
18904050604
18904056769
18904064337
18904071051
18904078192
18904084601
18904091192
18904098089
18904102911
18904110724
18904117743
18904122747
18904129827
18904135015
18904141546
18904148138
18904153387
18904160833
18904167486
18904174261
18904181402
18904187261
18904195501
18904201727
18904209112
18904215093
18904222418
18904227850
18904234380
18904241277
18904246648
18904254400
18904259466
18904267217
18904274236
18904279607
18904286077
18904292425
18904299566
18904307744
18904313360
18904321233
18904329412
18904336919
18904344549
18904350652
18904357610
18904364995
18904370122
18904379644
18904385747
18904392400
18904399541
18904406499
18904413335
18904418889
18904426152
18904434392
18904439885
18904448308
18904454961
18904461858
18904469976
18904477483
18904484929
18904492314
18904498784
18904505376
18904511540
18904519231
18904524907
18904532292
18904539616
18904547673
18904554509
18904561772
18904569096
18904576909
18904584233
18904592351
18904599919
18904606938
18904616582
18904624516
18904631535
18904638737
18904645878
18904653142
18904662236
18904668705
18904678288
18904685002
18904694218
18904699711
18904707829
18904716130
18904720829
18904729740
18904737431
18904744572
18904750248
18904759770
18904767704
18904773991
18904782963
18904789372
18904793522
18904802006
18904808354
18904814579
18904820500
18904825810
18904831364
18904838017
18904843571
18904848637
18904855167
18904861759
18904867496
18904873539
18904879215
18904885075
18904890812
18904897465
18904904423
18904908817
18904914371
18904921940
18904925724
18904933353
18904939396
18904944889
18904950809
18904955204
18904961673
18904968082
18904974186
18904979068
18904985416
18904990970
18904999698
18905006107
18905012333
18905018436
18905024967
18905030460
18905037418
18905042911
18905049320
18905053531
18905060611
18905065128
18905072513
18905079105
18905086185
18905091068
18905096622
18905102725
18905107608
18905113895
18905118289
18905124820
18905130008
18905135989
18905141299
18905147220
18905152713
18905159061
18905162723
18905169620
18905176395
18905182559
18905188296
18905192813
18905198672
18905203189
18905209903
18905215335
18905221133
18905226199
18905231875
18905237491
18905243350
18905249148
18905256289
18905262759
18905268863
18905274417
18905280825
18905287173
18905291812
18905297610
18905304568
18905310366
18905316104
18905321353
18905328555
18905333743
18905339480
18905346255
18905352175
18905358340
18905364443
18905371157
18905375369
18905383242
18905387454
18905395144
18905402224
18905409121
18905415713
18905421267
18905428103
18905435122
18905441592
18905449343
18905456240
18905462405
18905469180
18905475283
18905481875
18905488161
18905494814
18905501345
18905508303
18905512697
18905520449
18905527529
18905532473
18905540102
18905547182
18905553652
18905559023
18905565615
18905571291
18905578005
18905585878
18905592348
18905599489
18905605654
18905611452
18905618349
18905624330
18905631716
18905638369
18905646120
18905652407
18905658083
18905665834
18905671022
18905677675
18905685060
18905689638
18905697939
18905703920
18905709657
18905716005
18905721803
18905729189
18905733522
18905741518
18905748354
18905755678
18905762025
18905768861
18905775148
18905780580
18905787172
18905794923
18905800844
18905806642
18905813478
18905819398
18905826051
18905832216
18905837587
18905845949
18905852357
18905856996
18905865419
18905870240
18905877260
18905881837
18905890443
18905898256
18905903810
18905911622
18905916566
18905922731
18905929200
18905935548
18905943605
18905951478
18905959230
18905966249
18905972291
18905979066
18905986207
18905992677
18905999024
18906007203
18906012818
18906019532
18906025575
18906034425
18906040467
18906047181
18906056092
18906064637
18906071290
18906078553
18906084962
18906092408
18906099244
18906106690
18906115906
18906124634
18906131104
18906138062
18906146790
18906153138
18906159058
18906166687
18906178223
18906183228
18906193238
18906198853
18906206116
18906213501
18906221192
18906228272
18906234131
18906244080
18906250244
18906257630
18906265198
18906271179
18906280396
18906286743
18906296814
18906304932
18906311279
18906319702
18906326538
18906332214
18906343079
18906351318
18906358215
18906366272
18906374878
18906377808
18906388611
18906394531
18906404663
18906411621
18906418457
18906424133
18906435974
18906443664
18906450439
18906456360
18906467102
18906472107
18906481506
18906487060
18906495788
18906504089
18906509887
18906518127
18906523315
18906531738
18906539978
18906548095
18906555725
18906561401
18906567382
18906574706
18906579101
18906585937
18906592346
18906598876
18906605834
18906610900
18906617675
18906624938
18906632507
18906638732
18906645202
18906651061
18906657714
18906662170
18906668883
18906675231
18906682006
18906688781
18906695983
18906701598
18906707336
18906713317
18906720641
18906726928
18906731627
18906739440
18906743651
18906750792
18906756713
18906763793
18906768309
18906775939
18906783751
18906788878
18906794738
18906799620
18906806945
18906811766
18906818236
18906824584
18906831053
18906836119
18906841857
18906846862
18906852843
18906856627
18906862975
18906870116
18906874999
18906880492
18906886534
18906892088
18906896849
18906904234
18906910582
18906916747
18906922057
18906928587
18906935423
18906939635
18906946593
18906952391
18906960265
18906967711
18906973387
18906978880
18906985533
18906992247
18906997069
18907004759
18907009886
18907016295
18907022215
18907028502
18907035093
18907039976
18907047239
18907053038
18907058836
18907064634
18907070372
18907076841
18907082640
18907090208
18907097776
18907104673
18907110533
18907115599
18907121519
18907127989
18907133787
18907139768
18907147886
18907153135
18907159910
18907164610
18907171995
18907177732
18907185179
18907191404
18907198484
18907202879
18907209654
18907215330
18907222044
18907226438
18907235288
18907241392
18907248167
18907253110
18907260068
18907266050
18907270566
18907276914
18907284544
18907291746
18907297300
18907304868
18907310422
18907318235
18907324399
18907330076
18907338682
18907345334
18907351133
18907357114
18907362851
18907368955
18907374692
18907381772
18907388852
18907393735
18907401242
18907405942
18907413388
18907418088
18907424619
18907431516
18907438291
18907444089
18907451230
18907456723
18907465085
18907470639
18907478940
18907484799
18907492673
18907499326
18907505551
18907511777
18907518185
18907523923
18907530881
18907537839
18907543210
18907550900
18907556210
18907564389
18907569394
18907577756
18907584042
18907591366
18907596371
18907603634
18907608700
18907615780
18907620724
18907628720
18907635373
18907642880
18907649777
18907657040
18907663876
18907669674
18907675717
18907685055
18907693478
18907701535
18907708554
18907715756
18907723324
18907730160
18907736996
18907742489
18907753109
18907759152
18907765804
18907774899
18907779171
18907786984
18907793026
18907801266
18907811764
18907818600
18907824703
18907831905
18907839046
18907848141
18907854794
18907860653
18907868709
18907876034
18907882015
18907889828
18907895321
18907902157
18907909359
18907918514
18907925960
18907936092
18907942074
18907951656
18907959835
18907965999
18907971431
18907980159
18907986690
18907994747
18908003475
18908008052
18908017513
18908024776
18908030879
18908038814
18908044673
18908054134
18908060298
18908067806
18908075130
18908080440
18908089473
18908094905
18908102901
18908111751
18908121089
18908126643
18908133723
18908141048
18908148982
18908156001
18908163570
18908171809
18908180476
18908188045
18908195064
18908200679
18908210017
18908217341
18908225642
18908234004
18908239863
18908246638
18908254268
18908260798
18908267024
18908274409
18908282771
18908287654
18908295222
18908301204
18908307307
18908311763
18908319209
18908325373
18908331965
18908339045
18908344111
18908349848
18908355952
18908361689
18908366816
18908373408
18908378718
18908386714
18908392512
18908397639
18908402522
18908409419
18908414301
18908421320
18908427058
18908446650
18908452143
18908458124
18908463679
18908469599
18908478205
18908482905
18908488276
18908494196
18908501459
18908506342
18908514460
18908520197
18908526728
18908533137
18908538447
18908543268
18908549311
18908555597
18908560480
18908567865
18908573298
18908578547
18908585077
18908590631
18908595148
18908602289
18908607416
18908615473
18908620111
18908625971
18908633295
18908639887
18908645075
18908649896
18908657648
18908662042
18908668878
18908674494
18908679804
18908684320
18908690119
18908697626
18908703729
18908709955
18908715997
18908721491
18908727411
18908732660
18908738214
18908743768
18908750787
18908757013
18908763055
18908768121
18908774652
18908780755
18908789117
18908795221
18908803277
18908810052
18908816705
18908822809
18908829461
18908837518
18908844110
18908851556
18908857538
18908864740
18908871148
18908876336
18908884942
18908892144
18908898980
18908904168
18908911676
18908916741
18908923883
18908929315
18908935723
18908944085
18908950433
18908956414
18908961846
18908967645
18908974236
18908980035
18908987420
18908994439
18909001336
18909007623
18909012261
18909018365
18909024895
18909031548
18909038567
18909045953
18909051018
18909057671
18909062737
18909069451
18909074761
18909081841
18909089776
18909094964
18909102715
18909109002
18909115227
18909121392
18909127739
18909135552
18909141839
18909147942
18909154290
18909161980
18909168938
18909173943
18909180230
18909187676
18909195855
18909201409
18909208062
18909213188
18909220452
18909225640
18909232659
18909241692
18909247368
18909253166
18909259880
18909266045
18909271965
18909279595
18909285149
18909293694
18909299065
18909305595
18909312859
18909319939
18909327812
18909333427
18909343010
18909350944
18909356926
18909364311
18909371941
18909378898
18909385246
