18822078890
18822085177
18822096529
18822103670
18822109713
18822118441
18822126803
18822134005
18822141207
18822149813
18822157259
18822163668
18822171602
18822178743
18822187532
18822191744
18822203279
18822210665
18822219515
18822227693
18822232271
18822242403
18822251375
18822260591
18822269319
18822274934
18822285127
18822293672
18822300874
18822308076
18822315157
18822320894
18822328157
18822338167
18822344820
18822353609
18822358491
18822367219
18822373506
18822381929
18822390230
18822398469
18822403108
18822413301
18822420442
18822427583
18822435029
18822442537
18822449861
18822457673
18822464814
18822472322
18822479097
18822486543
18822494233
18822501802
18822508393
18822516999
18822524079
18822530122
18822539643
18822545869
18822554475
18822561921
18822569611
18822577485
18822586030
18822595124
18822603181
18822611726
18822618317
18822627595
18822636262
18822643647
18822651887
18822659760
18822668488
18822674531
18822682770
18822691376
18822698517
18822704377
18822712800
18822718781
18822726288
18822732270
18822741486
18822745819
18822756012
18822762787
18822770111
18822777741
18822785004
18822792939
18822801728
18822807953
18822815277
18822822846
18822828400
18822836273
18822841644
18822848663
18822857758
18822865082
18822872589
18822879425
18822885834
18822892731
18822898895
18822909210
18822917938
18822925018
18822935089
18822940155
18822953094
18822962921
18822970184
18822979339
18822990021
18822997528
18823004303
18823011932
18823020843
18823026886
18823035431
18823044464
18823052948
18823059112
18823068084
18823074371
18823083465
18823090850
18823098175
18823105438
18823113006
18823122833
18823130645
18823138214
18823144683
18823155364
18823162322
18823169708
18823176299
18823183440
18823191009
18823199981
18823209991
18823216155
18823224212
18823229339
18823239959
18823244598
18823255340
18823262237
18823268767
18823276702
18823284270
18823291717
18823299651
18823307097
18823316070
18823323272
18823329375
18823337737
18823343962
18823351348
18823357146
18823364959
18823372161
18823380706
18823387480
18823392852
18823398955
18823407073
18823411833
18823421050
18823427519
18823437041
18823441435
18823452666
18823457366
18823468108
18823472990
18823485625
18823493559
18823501189
18823507658
18823515593
18823522856
18823531218
18823539458
18823546110
18823550749
18823562590
18823571013
18823577727
18823586149
18823594511
18823600920
18823609465
18823614164
18823624235
18823628996
18823641081
18823649076
18823658476
18823668302
18823676054
18823687223
18823696195
18823704679
18823713835
18823721342
18823730558
18823739103
18823746916
18823753385
18823763090
18823769376
18823778288
18823782560
18823791898
18823798612
18823808439
18823815885
18823823270
18823827604
18823838224
18823846525
18823855619
18823863553
18823872587
18823875272
18823886442
18823894559
18823902311
18823909513
18823917142
18823925504
18823933439
18823941983
18823948026
18823956510
18823964933
18823972623
18823981290
18823988126
18823994107
18824002713
18824008756
18824017606
18824023770
18824033048
18824041898
18824049710
18824058865
18824067410
18824076321
18824083157
18824091580
18824098294
18824106717
18824113370
18824123624
18824130887
18824140713
18824148099
18824156766
18824164578
18824174588
18824181424
18824189419
18824196866
18824204556
18824210598
18824221524
18824228116
18824235073
18824242642
18824248989
18824257229
18824263821
18824272793
18824280239
18824287564
18824295254
18824302029
18824310452
18824317715
18824325100
18824333157
18824341702
18824348415
18824356960
18824364163
18824370998
18824379116
18824389919
18824398525
18824407253
18824416286
18824424892
18824434292
18824441433
18824448147
18824459011
18824467495
18824475185
18824483974
18824491420
18824498806
18824505092
18824512539
18824519802
18824525783
18824534511
18824542995
18824551723
18824559536
18824567592
18824576015
18824581325
18824590358
18824596340
18824605922
18824610683
18824619106
18824628017
18824634792
18824644374
18824651088
18824659755
18824668605
18824674892
18824680324
18824687709
18824692714
18824698939
18824703761
18824712062
18824718471
18824724696
18824731288
18824737147
18824742518
18824748622
18824756007
18824763392
18824769435
18824774440
18824780238
18824786525
18824793361
18824799098
18824806239
18824811305
18824819178
18824825404
18824831996
18824838710
18824845790
18824850489
18824858912
18824865443
18824872340
18824878688
18824885829
18824889979
18824898158
18824905177
18824912745
18824920863
18824928614
18824936183
18824941126
18824948329
18824955225
18824959498
18824968470
18824976099
18824983851
18824990565
18824996363
18825003138
18825012965
18825017542
18825026453
18825034083
18825042689
18825049158
18825058192
18825065333
18825076319
18825081812
18825093287
18825102930
18825110437
18825119410
18825125696
18825135889
18825140162
18825150965
18825157923
18825164453
18825171595
18825178430
18825184412
18825191248
18825199854
18825206201
18825213098
18825220178
18825227258
18825234461
18825239404
18825246118
18825254602
18825261621
18825268091
18825277734
18825282251
18825291650
18825295984
18825305322
18825313684
18825320032
18825327722
18825334924
18825341272
18825347253
18825354333
18825362207
18825369714
18825377099
18825383935
18825391015
18825397729
18825403283
18825410363
18825419519
18825429040
18825435754
18825442834
18825448510
18825457360
18825463586
18825470361
18825479028
18825486413
18825493249
18825500146
18825506310
18825514855
18825520898
18825528527
18825534753
18825545617
18825550256
18825558923
18825565209
18825572839
18825579064
18825589684
18825597192
18825605004
18825611779
18825618981
18825625207
18825630822
18825638756
18825646569
18825654442
18825662316
18825669030
18825676415
18825683556
18825688988
18825695946
18825704613
18825710778
18825718712
18825726586
18825732811
18825740197
18825745690
18825752465
18825761864
18825770043
18825777123
18825785668
18825793907
18825803185
18825811302
18825821068
18825829796
18825836754
18825845604
18825852501
18825860924
18825869713
18825880760
18825888206
18825893944
18825902794
18825908653
18825917442
18825922935
18825929527
18825939354
18825946556
18825952904
18825959495
18825964500
18825972435
18825976951
18825984337
18825990135
18825997459
18826002281
18826009605
18826015342
18826020897
18826024376
18826031761
18826038780
18826044639
18826050804
18826054893
18826062339
18826066734
18826073570
18826078514
18826084983
18826089439
18826096214
18826101402
18826108421
18826111900
18826119773
18826125755
18826131736
18826137595
18826143333
18826150047
18826154319
18826162193
18826167503
18826174522
18826179221
18826185630
18826190147
18826196738
18826203147
18826209067
18826214744
18826220359
18826226035
18826231711
18826236655
18826242148
18826247275
18826253745
18826259665
18826265952
18826271262
18826276328
18826281577
18826287009
18826293418
18826299399
18826303794
18826309287
18826315513
18826320700
18826323630
18826332297
18826338828
18826342917
18826349326
18826353537
18826360739
18826367331
18826375266
18826383322
18826389609
18826396018
18826402121
18826408957
18826413657
18826420798
18826428122
18826433859
18826440024
18826445700
18826451926
18826456320
18826463889
18826467307
18826476035
18826483176
18826487631
18826495077
18826501425
18826506735
18826514670
18826520407
18826525839
18826531760
18826538779
18826544516
18826550558
18826557821
18826563864
18826570028
18826577170
18826580771
18826588278
18826591818
18826602499
18826608114
18826613730
18826621054
18826625448
18826632833
18826638021
18826646078
18826652548
18826659933
18826666098
18826671774
18826677633
18826683493
18826690023
18826697470
18826703329
18826710348
18826716207
18826721945
18826728048
18826734335
18826740499
18826747884
18826752706
18826760030
18826766134
18826772482
18826777425
18826783346
18826791647
18826797506
18826803426
18826809347
18826814840
18826820394
18826827230
18826835226
18826841756
18826846883
18826855855
18826862691
18826868490
18826874715
18826881673
18826887410
18826893697
18826900411
18826905660
18826911947
18826917012
18826924337
18826932210
18826938863
18826946981
18826955526
18826961019
18826966695
18826976155
18826983602
18826990315
18826998433
18827005330
18827011922
18827021993
18827028951
18827032918
18827040120
18827043843
18827054524
18827060078
18827066121
18827071736
18827078877
18827088521
18827095357
18827101399
18827108968
18827114949
18827121907
18827128132
18827137227
18827142964
18827150227
18827156758
18827163533
18827170857
18827178975
18827186482
18827193867
18827199055
18827207112
18827212422
18827220784
18827229390
18827234455
18827243061
18827250325
18827256001
18827266133
18827271687
18827279621
18827287495
18827295246
18827301533
18827308796
18827318195
18827324604
18827333393
18827341206
18827348774
18827354511
18827361897
18827370258
18827378010
18827387043
18827393024
18827401508
18827407001
18827416035
18827422138
18827430256
18827438557
18827447529
18827455402
18827462787
18827469684
18827476764
18827485187
18827494648
18827502338
18827510151
18827517841
18827522724
18827531696
18827538349
18827547626
18827556049
18827561786
18827570026
18827575702
18827582294
18827587909
18827594806
18827606708
18827610431
18827619647
18827627704
18827635639
18827641986
18827649371
18827655231
18827660480
18827667865
18827673358
18827679950
18827683734
18827692767
18827698505
18827704791
18827711200
18827715961
18827722430
18827727313
18827735126
18827738482
18827747821
18827752337
18827758258
18827764239
18827769916
18827776690
18827782489
18827790789
18827796771
18827802935
18827809527
18827815265
18827822100
18827827227
18827832904
18827838458
18827844256
18827850116
18827857318
18827863787
18827868182
18827874346
18827879351
18827885272
18827891802
18827897784
18827903216
18827907733
18827914691
18827920062
18827924761
18827931597
18827939837
18827947161
18827953509
18827959612
18827966509
18827973345
18827979693
18827985430
18827990008
18827997271
18828003496
18828008868
18828015459
18828020037
18828027849
18828034380
18828038714
18828046953
18828052324
18828060686
18828067705
18828073687
18828080889
18828085711
18828093279
18828098345
18828105486
18828113237
18828121355
18828130449
18828137590
18828142534
18828150957
18828157854
18828165789
18828173845
18828180498
18828184465
18828192461
18828198564
18828205827
18828213579
18828220049
18828226152
18828231035
18828238542
18828244829
18828251787
18828258318
18828265092
18828271257
18828276201
18828283037
18828287859
18828300066
18828306352
18828312456
18828319902
18828324846
18828331682
18828336381
18828344438
18828350969
18828357194
18828365800
18828372209
18828379167
18828388200
18828396318
18828402482
18828409501
18828416581
18828424821
18828432450
18828438371
18828444902
18828451738
18828457353
18828466386
18828472184
18828479081
18828486772
18828491960
18828499406
18828506364
18828513932
18828519914
18828527604
18828534196
18828542313
18828548783
18828555314
18828561845
18828570817
18828578507
18828585587
18828592423
18828598893
18828607194
18828615372
18828623002
18828630570
18828638260
18828644303
18828651322
18828658585
18828666581
18828679215
18828685013
18828692521
18828699906
18828705887
18828713578
18828720169
18828728836
18828737564
18828744278
18828751786
18828761368
18828770767
18828777298
18828785721
18828792374
18828801468
18828807633
18828816177
18828823929
18828831009
18828836624
18828844132
18828853043
18828860550
18828866348
18828873856
18828880569
18828884964
18828896255
18828901016
18828909561
18828913650
18828922134
18828926712
18828936233
18828941360
18828951431
18828959182
18828968704
18828973709
18828982620
18828989639
18828997024
18829003982
18829013992
18829021133
18829029190
18829035781
18829043960
18829051223
18829058303
18829066543
18829071609
18829081741
18829086746
18829095474
18829102432
18829110061
18829117629
18829125747
18829132095
18829140334
18829147170
18829156265
18829163894
18829171706
18829180373
18829187209
18829192702
18829196975
18829206374
18829214248
18829220229
18829228225
18829233596
18829240432
18829247085
18829254104
18829259353
18829262771
18829271865
18829278151
18829283095
18829289870
18829296645
18829303481
18829308913
18829315993
18829321547
18829329543
18829334975
18829341933
18829347243
18829355300
18829360549
18829368727
18829374282
18829379958
18829384841
18829391188
18829396254
18829403761
18829407851
18829415663
18829421462
18829427504
18829433669
18829440321
18829447279
18829454237
18829459975
18829469191
18829474806
18829481825
18829488295
18829493605
18829499403
18829504408
18829511793
18829517103
18829522597
18829528151
18829534498
18829540114
18829544996
18829552748
18829557264
18829563978
18829567579
18829575758
18829581739
18829587172
18829592787
18829600782
18829608351
18829613905
18829618299
18829622816
18829629103
18829635633
18829641920
18829647352
18829653150
18829661329
18829667860
18829673963
18829682386
18829689466
18829697279
18829703993
18829710096
18829715223
18829721571
18829726087
18829734754
18829740186
18829746229
18829749586
18829758680
18829764295
18829770032
18829776624
18829784620
18829792799
18829799879
18829805860
18829811964
18829817762
18829822828
18829832166
18829838148
18829843946
18829847425
18829857313
18829864759
18829869886
18829877088
18829882581
18829891309
18829896863
18829902478
18829908704
18829914624
18829921765
18829928540
18829935071
18829940930
18829946851
18829953137
18829959180
18829965161
18829971082
18829978894
18829983716
18829990918
18829995862
18830004285
18830011304
18830018262
18830025281
18830035169
18830041638
18830048108
18830054395
18830060925
18830067700
18830075269
18830080334
18830088269
18830094189
18830100171
18830105908
18830112805
18830121289
18830126050
18830133374
18830138501
18830145398
18830150158
18830158398
18830165783
18830171826
18830178662
18830183850
18830189404
18830196545
18830203930
18830211377
18830217663
18830223217
18830229809
18830233898
18830240429
18830247998
18830256359
18830263561
18830268383
18830276196
18830279675
18830289379
18830296948
18830302563
18830310986
18830319286
18830325817
18830331982
18830339245
18830347057
18830354198
18830361095
18830366528
18830374218
18830386608
18830394787
18830402782
18830411999
18830420666
18830428783
18830435863
18830443920
18830451366
18830457592
18830466381
18830473644
18830479503
18830487011
18830494457
18830500255
18830508373
18830514904
18830521862
18830530407
18830537242
18830546642
18830553050
18830561046
18830567882
18830575328
18830583507
18830590526
18830598888
18830605113
18830613048
18830619701
18830627269
18830635692
18830644603
18830652843
18830659496
18830669078
18830675304
18830684154
18830693004
18830700511
18830711070
18830719798
18830731395
18830737254
18830745616
18830752757
18830760020
18830768321
18830775340
18830782908
18830788585
18830796031
18830802745
18830808543
18830815501
18830824717
18830831431
18830837596
18830846690
18830850901
18830859324
18830865122
18830874583
18830878428
18830886912
18830890513
18830898814
18830904673
18830910471
18830917002
18830923411
18830929881
18830936655
18830943125
18830949839
18830956919
18830964182
18830971384
18830975901
18830983225
18830990183
18830995859
18831002817
18831009348
18831015696
18831020701
18831027231
18831032480
18831040171
18831044748
18831052683
18831061045
18831069529
18831076426
18831083933
18831090586
18831099741
18831105783
18831111521
18831116587
18831121958
18831128550
18831136667
18831142527
18831147776
18831152475
18831158396
18831164865
18831170481
18831176035
18831180429
18831187937
18831193125
18831198984
18831204172
18831210520
18831215952
18831222910
18831226816
18831234018
18831240549
18831247873
18831256845
18831264780
18831272043
18831277780
18831284372
18831292673
18831298349
18831304269
18831310312
18831315561
18831320993
18831327157
18831333932
18831340097
18831345529
18831351510
18831357736
18831363107
18831369699
18831375497
18831382211
18831389657
18831396615
18831401315
18831408517
18831415414
18831422555
18831429086
18831435983
18831442758
18831446786
18831455087
18831459664
18831470040
18831476388
18831482919
18831488656
18831496713
18831501840
18831508920
18831515511
18831524728
18831529977
18831536263
18831544137
18831549386
18831556405
18831562691
18831571114
18831579049
18831585274
18831592171
18831598702
18831604989
18831611764
18831618111
18831624764
18831631234
18831636117
18831642464
18831649239
18831655404
18831662362
18831667244
18831674691
18831678170
18831686287
18831691780
18831700081
18831706002
18831712410
18831718758
18831724861
18831731270
18831737252
18831743477
18831751473
18831758553
18831763558
18831771004
18831775826
18831783028
18831789803
18831794685
18831802376
18831810433
18831819344
18831826363
18831836006
18831844490
18831851631
18831860115
18831870735
18831876289
18831886055
18831893013
18831899788
18831903572
18831911568
18831918403
18831923103
18831929329
18831935432
18831941780
18831948005
18831952949
18831958870
18831964668
18831970710
18831975471
18831981697
18831987983
18831995185
18832002693
18832008003
18832016059
18832023262
18832028633
18832035896
18832041938
18832048652
18832056037
18832062263
18832070136
18832076606
18832084663
18832090400
18832098152
18832105171
18832112556
18832118476
18832126594
18832134101
18832141303
18832149177
18832156501
18832165473
18832172248
18832178352
18832186957
18832193976
18832200629
18832208381
18832215888
18832222907
18832233100
18832238959
18832245307
18832254157
18832260993
18832269904
18832276008
18832278754
18832291205
18832295661
18832303962
18832308661
18832319648
18832324225
18832333319
18832337836
18832346015
18832352912
18832361579
18832368231
18832375189
18832381415
18832388251
18832396124
18832402655
18832409796
18832417853
18832423712
18832431952
18832438544
18832446600
18832452338
18832459051
18832466193
18832472723
18832478155
18832482367
18832492804
18832499457
18832507696
18832515326
18832520148
18832528692
18832532477
18832542120
18832548346
18832555182
18832563055
18832569891
18832576971
18832581976
18832588507
18832593573
18832599554
18832604620
18832611212
18832616644
18832623480
18832628729
18832636663
18832640386
18832648077
18832653753
18832660284
18832666998
18832673223
18832678839
18832683782
18832690801
18832696844
18832702581
18832708929
18832715032
18832719976
18832726263
18832732244
18832737371
18832743352
18832749212
18832754278
18832761175
18832765874
18832771551
18832778142
18832783697
18832789007
18832797002
18832800359
18832806402
18832811101
18832817815
18832824834
18832830999
18832836187
18832842412
18832848028
18832853765
18832859014
18832863897
18832870244
18832874822
18832880925
18832886785
18832891912
18832896489
18832902227
18832907415
18832914067
18832919377
18832927983
18832933293
18832938970
18832944097
18832950078
18832955449
18832961064
18832966557
18832971318
18832977117
18832982671
18832989446
18832994817
18833002629
18833007939
18833014348
18833020635
18833027165
18833032842
18833041081
18833045293
18833054326
18833060368
18833067326
18833072819
18833081486
18833089055
18833097233
18833103703
18833112797
18833118474
18833125676
18833129826
18833140385
18833143925
18833153630
18833159611
18833165837
18833173100
18833179203
18833186650
18833192692
18833199650
18833205571
18833213566
18833219303
18833226139
18833232060
18833238957
18833245426
18833253971
18833258183
18833266850
18833270878
18833280583
18833287968
18833293583
18833299564
18833305607
18833311405
18833317753
18833324833
18833331730
18833338017
18833344974
18833351383
18833356571
18833363163
18833369572
18833376224
18833382572
18833390568
18833397526
18833403385
18833410709
18833416141
18833423710
18833429447
18833434086
18833439945
18833446354
18833451175
18833457401
18833463993
18833470829
18833476566
18833481815
18833487369
18833494022
18833499515
18833505069
18833510623
18833517520
18833524173
18833530277
18833536563
18833544071
18833551090
18833557498
18833564517
18833571231
18833579715
18833586246
18833594791
18833599246
18833608707
18833615115
18833622318
18833629337
18833637881
18833644473
18833649783
18833655521
18833663821
18833667972
18833677371
18833684207
18833691653
18833694278
18833704227
18833708499
18833717776
18833728213
18833738223
18833746219
18833752200
18833759524
18833771670
18833778323
18833786441
18833794863
18833803164
18833809878
18833817813
18833824649
18833830630
18833837954
18833843630
18833851016
18833855166
18833863711
18833868044
18833876895
18833881472
18833889895
18833896731
18833904910
18833909182
18833916933
18833923159
18833930300
18833936587
18833944216
18833950930
18833959902
18833967715
18833975222
18833981936
18833988589
18833994875
18834003481
18834011538
18834019289
18834025759
18834033022
18834038698
18834043154
18834053408
18834058046
18834068056
18834072573
18834079592
18834086550
18834096010
18834103212
18834109560
18834116579
18834124880
18834131777
18834140016
18834147402
18834152956
18834159426
18834166567
18834172182
18834179323
18834187257
18834193300
18834197023
18834205141
18834213136
18834217836
18834225038
18834230470
18834238710
18834242250
18834249574
18834255128
18834261537
18834268190
18834275087
18834282228
18834286745
18834293031
18834299501
18834305543
18834311342
18834319215
18834323427
18834331422
18834338258
18834344117
18834349916
18834356141
18834362611
18834369264
18834376649
18834384095
18834390870
18834397889
18834403382
18834412843
18834418641
18834427125
18834432313
18834440309
18834446351
18834453614
18834459352
18834465760
18834472108
18834477723
18834484193
18834489869
18834495606
18834501099
18834506532
18834512147
18834518922
18834525513
18834531251
18834537720
18834542908
18834547730
18834554261
18834561341
18834566956
18834572938
18834578797
18834581971
18834589112
18834595643
18834602295
18834609315
18834613648
18834621033
18834627381
18834632874
18834639649
18834646058
18834651551
18834658387
18834663330
18834670472
18834676148
18834682495
18834689820
18834696534
18834703553
18834710388
18834717530
18834722779
18834729676
18834736389
18834744446
18834749268
18834756470
18834763428
18834769409
18834774964
18834782959
18834788391
18834795227
18834800903
18834808472
18834814636
18834820984
18834827209
18834833984
18834840820
18834847534
18834854004
18834861267
18834866943
18834872558
18834880005
18834883911
18834893127
18834901367
18834906250
18834912781
18834919494
18834926452
18834932434
18834938537
18834946228
18834953308
18834958679
18834965881
18834971252
18834978454
18834985473
18834992309
18834999939
18835008911
18835017578
18835023742
18835031005
18835036865
18835045898
18835056274
18835061645
18835069763
18835075317
18835082092
18835087035
18835095580
18835101623
18835109252
18835115051
18835122680
18835128112
18835135314
18835140624
18835148193
18835151977
18835160400
18835166076
18835174926
18835181762
18835188781
18835195128
18835202086
18835205749
18835214416
18835221373
18835227782
18835234496
18835240783
18835247252
18835252745
18835260863
18835265685
18835272826
18835280272
18835286803
18835294188
18835300780
18835308348
18835316466
18835321105
18835331114
18835337340
18835344237
18835348448
18835357115
18835365782
18835373168
18835378844
18835386839
18835394286
18835402953
18835410033
18835418272
18835422667
18835432921
18835440306
18835447874
18835452635
18835463133
18835467772
18835477110
18835484495
18835492064
18835496702
18835506407
18835513426
18835520445
18835526732
18835535765
18835542845
18835551268
18835557676
18835564878
18835570616
18835578733
18835587461
18835595335
18835601744
18835606687
18835618406
18835623289
18835633238
18835641477
18835648374
18835655332
18835665342
18835672239
18835678526
18835684751
18835696287
18835703672
18835713010
18835719541
18835728635
18835740415
18835747800
18835757261
18835765501
18835771543
18835780698
18835789670
18835794248
18835804136
18835812925
18835821409
18835825925
18835834592
18835842649
18835852048
18835859861
18835867246
18835873899
18835881162
18835889280
18835896665
18835905149
18835914243
18835920163
18835928891
18835934995
18835943112
18835949277
18835955930
18835962888
18835968991
18835973081
18835981686
18835988522
18835994931
18836001828
18836007871
18836013791
18836021176
18836027097
18836033505
18836040890
18836046994
18836052853
18836059140
18836065427
18836071530
18836076657
18836082944
18836090390
18836095578
18836103940
18836109189
18836116025
18836122738
18836130002
18836137143
18836143551
18836148800
18836155636
18836160885
18836167843
18836173153
18836180233
18836186093
18836193539
18836198422
18836205990
18836209408
18836216976
18836223141
18836228939
18836235165
18836241024
18836246578
18836252194
18836258968
18836263363
18836270199
18836275814
18836283932
18836287411
18836294918
18836301144
18836306515
18836313534
18836319210
18836325924
18836330624
18836337276
18836340633
18836348324
18836356624
18836363216
18836371517
18836377682
18836384884
18836390743
18836397152
18836406490
18836415767
18836422603
18836429378
18836434627
18836441463
18836446346
18836452877
18836457882
18836465084
18836471859
18836477901
18836483577
18836490535
18836497737
18836504756
18836511898
18836517147
18836524898
18836531795
18836538021
18836544856
18836552059
18836559627
18836566463
18836571651
18836579097
18836586421
18836592464
18836599727
18836605769
18836614009
18836621211
18836627071
18836633784
18836640681
18836646785
18836652156
18836661983
18836668330
18836675105
18836682551
18836689448
18836695491
18836701594
18836707820
18836714839
18836722407
18836727839
18836734187
18836737910
18836746272
18836753047
18836760432
18836767634
18836774470
18836779963
18836786555
18836792536
18836799494
18836805781
18836811518
18836820063
18836824031
18836832392
18836839228
18836845942
18836851862
18836859065
18836864680
18836871272
18836877009
18836884028
18836890803
18836895930
18836903315
18836910212
18836916499
18836923823
18836928522
18836935847
18836942927
18836948786
18836954767
18836962580
18836970515
18836975580
18836983454
18836990656
18836997370
18837004511
18837013361
18837023310
18837030268
18837037348
18837044184
18837051142
18837058771
18837065302
18837072565
18837077875
18837084711
18837091120
18837096369
18837103022
18837108759
18837117060
18837123163
18837128290
18837133478
18837142023
18837145746
18837154413
18837162470
18837168268
18837174249
18837182062
18837187860
18837195612
18837201898
18837210382
18837217096
18837224847
18837230890
18837238702
18837244684
18837251764
18837257074
18837265008
18837273675
18837280328
18837285760
18837294793
18837300226
18837307611
18837315179
18837321893
18837340326
18837349908
18837360894
18837368768
18837377984
18837386529
18837392877
18837398492
18837404718
18837411492
18837416986
18837423394
18837428765
18837437371
18837443902
18837449700
18837456597
18837462579
18837468377
18837476312
18837482720
18837490044
18837497308
18837504937
18837510918
18837517510
18837523003
18837529473
18837536248
18837543938
18837550286
18837557366
18837564019
18837570367
18837575860
18837582329
18837588494
18837596245
18837604363
18837609734
18837616875
18837622979
18837629693
18837634392
18837642571
18837651360
18837659356
18837666191
18837675591
18837682976
18837689568
18837699761
18837704582
18837710686
18837715691
18837722954
18837726494
18837733818
18837740776
18837745720
18837752678
18837757195
18837760735
18837768181
18837771782
18837780449
18837786858
18837793266
18837798821
18837804375
18837809746
18837815300
18837821342
18837827263
18837832573
18837838310
18837843132
18837848625
18837854362
18837858452
18837866447
18837873955
18837879631
18837884147
18837889274
18837895805
18837901481
18837907280
18837913749
18837920891
18837925712
18837932304
18837937126
18837943657
18837948845
18837955009
18837962699
18837968254
18837974113
18837979545
18837985649
18837991264
18837998649
18838005363
18838014457
18838017753
18838025016
18838030815
18838036674
18838042961
18838049003
18838055045
18838062003
18838067375
18838073661
18838079093
18838085136
18838092094
18838097770
18838103873
18838110954
18838116752
18838122306
18838127799
18838133231
18838138969
18838145866
18838150321
18838157401
18838161918
18838168571
18838175284
18838180411
18838188102
18838194327
18838201041
18838207511
18838214042
18838222281
18838227530
18838235587
18838246634
18838257926
18838264212
18838270865
18838280753
18838286917
18838294913
18838299613
18838306204
18838310965
18838317069
18838323660
18838329642
18838336051
18838343314
18838348624
18838356558
18838363394
18838369437
18838374930
18838381766
18838387259
18838394461
18838398489
18838406424
18838412344
18838418692
18838424368
18838433523
18838437064
18838444205
18838449454
18838455557
18838460806
18838468435
18838472342
18838481009
18838487417
18838494497
18838500113
18838506949
18838514456
18838521292
18838527823
18838533316
18838539297
18838545523
18838552237
18838557241
18838563833
18838570120
18838575552
18838581839
18838587576
18838593801
18838600149
18838604849
18838610830
18838616995
18838623098
18838631643
18838637869
18838643545
18838649221
18838656240
18838662039
18838667226
18838674795
18838680898
18838688528
18838694265
18838700613
18838708852
18838715627
18838722036
18838727651
18838736562
18838743032
18838748159
18838754934
18838760549
18838767995
18838775686
18838782400
18838788686
18838794973
18838802724
18838809438
18838817067
18838824270
18838829519
18838838186
18838845693
18838853017
18838859731
18838868398
18838875295
18838884511
18838892202
18838900807
18838911611
18838919301
18838927968
18838934682
18838939992
18838946156
18838953908
18838960133
18838968251
18838974965
18838983327
18838989796
18838995778
18839001637
18839008107
18839014516
18839021046
18839026845
18839033375
18839040639
18839046315
18839052479
18839060597
18839066945
18839074574
18839081776
18839088978
18839094716
18839100941
18839108693
18839116322
18839124684
18839131031
18839136708
18839144642
18839151173
18839159840
18839166310
18839171803
18839182240
18839190785
18839198902
18839205738
18839213673
18839221485
18839229176
18839235218
18839243458
18839250721
18839259022
18839265064
18839270008
18839279469
18839286793
18839291492
18839297901
18839304981
18839311390
18839319263
18839323292
18839331715
18839335438
18839344105
18839350025
18839355030
18839361133
18839367847
18839374378
18839379078
18839385120
18839390980
18839396717
18839403064
18839408741
18839415088
18839421009
18839427356
18839429615
18839438892
18839442615
18839451953
18839457996
18839464222
18839469348
18839475757
18839481678
18839488330
18839494068
18839501331
18839507739
18839514209
18839521839
18839530017
18839537219
18839546619
18839556445
18839564014
18839571338
18839577136
18839583423
18839589893
18839596118
18839600574
18839606677
18839612353
18839617541
18839622607
18839629993
18839635120
18839643420
18839648669
18839653735
18839660083
18839664783
18839672900
18839676745
18839684436
18839689502
18839694751
18839700183
18839705554
18839711535
18839715991
18839722827
18839727160
18839732898
18839738818
18839744372
18839749194
18839756091
18839760791
18839766955
18839772326
18839778002
18839783435
18839789172
18839794970
18839801501
18839806872
18839813342
18839819262
18839824999
18839830981
18839836047
18839842150
18839850085
18839856616
18839861559
18839868029
18839874377
18839880663
18839885424
18839891772
18839899584
18839904711
18839911425
18839916064
18839922839
18839929552
18839935168
18839942675
18839950182
18839955675
18839961413
18839968859
18839974779
18839981249
18839987230
18839994310
18840000536
18840008959
18840014940
18840021288
18840027086
18840034288
18840040026
18840047594
18840053637
18840060778
18840068651
18840074816
18840080126
18840086290
18840091478
18840099413
18840107530
18840114549
18840122179
18840129015
18840135545
18840139635
18840149889
18840159532
18840165270
18840174364
18840181871
18840188585
18840194566
18840201158
18840206285
18840212205
18840218614
18840223192
18840229845
18840234605
18840241502
18840247362
18840254503
18840259141
18840265184
18840272630
18840279100
18840284715
18840291917
18840297960
18840305833
18840311387
18840319261
18840325364
18840332566
18840338609
18840346238
18840352342
18840359178
18840365098
18840371568
18840377305
18840386033
18840391160
18840397264
18840403428
18840410813
18840417405
18840422959
18840429612
18840437180
18840443223
18840452012
18840458665
18840464463
18840469529
18840476975
18840482774
18840490220
18840497788
18840504563
18840510056
18840516892
18840523911
18840531052
18840537217
18840544846
18840551926
18840560593
18840566514
18840574021
18840582444
18840589768
18840597031
18840604172
18840610154
18840620285
18840625229
18840636216
18840640915
18840649521
18840656479
18840666062
18840673325
18840681076
18840688706
18840696274
18840702988
18840710373
18840716965
18840724838
18840731552
18840741989
18840747482
18840757553
18840764938
18840772812
18840785202
18840792892
18840802597
18840812424
18840819992
18840830002
18840837448
18840846664
18840856674
18840863815
18840872665
18840881088
18840887130
18840894577
18840902084
18840908737
18840914779
18840924118
18840931686
18840936630
18840946212
18840951461
18840960128
18840966842
18840974777
18840979721
18840987350
18840993270
18841000411
18841006698
18841012679
18841018478
18841025009
18841030563
18841039169
18841043075
18841050216
18841056136
18841062423
18841068832
18841074020
18841081161
18841087753
18841091476
18841100753
18841105941
18841112350
18841116012
18841123763
18841129928
18841137069
18841143783
18841148421
18841155684
18841160384
18841166854
18841171493
18841178512
18841183761
18841190780
18841195907
18841202926
18841207686
18841213851
18841218734
18841226363
18841232222
18841237838
18841242476
18841249190
18841253646
18841259932
18841265425
18841272261
18841278548
18841285018
18841290023
18841297225
18841302535
18841308455
18841313094
18841320296
18841323836
18841332137
18841339400
18841345076
18841349959
18841355391
18841361800
18841368025
18841374190
18841378706
18841385420
18841388533
18841396773
18841402876
18841409590
18841417219
18841424361
18841429671
18841435530
18841443465
18841448958
18841457258
18841463789
18841471357
18841474653
18841481978
18841489180
18841495405
18841501509
18841507856
18841514814
18841519453
18841526960
18841531355
18841537825
18841544538
18841552168
18841558271
18841565168
18841570906
18841580000
18841585981
18841592329
18841597822
18841605085
18841610822
18841619245
18841623152
18841630720
18841636518
18841644758
18841651716
18841658247
18841662031
18841670393
18841674116
18841682661
18841689130
18841695600
18841699262
18841707868
18841715009
18841721357
18841727094
18841733625
18841740217
18841746869
18841753705
18841760480
18841766279
18841772748
18841779767
18841786176
18841792096
18841798444
18841804975
18841811750
18841817975
18841824872
18841831647
18841836469
18841842939
18841849774
18841857099
18841862409
18841869672
18841875348
18841882123
18841890119
18841896161
18841902692
18841909833
18841916791
18841923627
18841929791
18841936810
18841943219
18841948407
18841956220
18841960309
18841968976
18841976361
18841982831
18841989606
18841994794
18842001141
18842010358
18842016888
18842022626
18842030377
18842036358
18842044598
18842050152
18842059430
18842069195
18842074627
18842082135
18842089581
18842095623
18842100445
18842109295
18842114727
18842121746
18842127057
18842133709
18842138653
18842147198
18842154217
18842160260
18842168133
18842174603
18842180523
18842188702
18842194622
18842202618
18842208538
18842218853
18842225628
18842232952
18842239605
18842246258
18842253094
18842259869
18842266460
18842273846
18842280437
18842287334
18842293194
18842300335
18842308147
18842314007
18842322185
18842329693
18842336834
18842344402
18842352215
18842358562
18842367229
18842373089
18842380474
18842388347
18842393169
18842403545
18842407879
18842419170
18842424236
18842434551
18842439128
18842449077
18842455974
18842463909
18842471599
18842480144
18842486492
18842494670
18842501506
18842510173
18842518840
18842526836
18842533305
18842542461
18842551616
18842556682
18842565593
18842572795
18842582927
18842590617
18842600017
18842607707
18842616313
18842623698
18842631022
18842638042
18842647502
18842656047
18842662578
18842671245
18842678325
18842687053
18842695536
18842701701
18842709025
18842716288
18842722941
18842732280
18842738932
18842747294
18842753154
18842759867
18842765055
18842772502
18842778422
18842786051
18842792704
18842800089
18842808207
18842813700
18842821940
18842831095
18842841532
18842848429
18842853190
18842860575
18842865214
18842872660
18842879923
18842886698
18842892008
18842899638
18842905497
18842910746
18842916056
18842923746
18842929606
18842937113
18842943461
18842949808
18842953348
18842960978
18842967325
18842973917
18842977640
18842986979
18842992350
18842997965
18843003946
18843010233
18843016581
18843023478
18843030008
18843035990
18843044352
18843048929
18843055216
18843059915
18843066751
18843074137
18843079935
18843084574
18843090128
18843097086
18843101419
18843107523
18843113382
18843120340
18843126322
18843133463
18843138162
18843144510
18843150064
18843158548
18843164652
18843170389
18843176920
18843183084
18843188943
18843194620
18843200967
18843207742
18843213113
18843220010
18843225809
18843232522
18843238870
18843246438
18843253824
18843260599
18843267129
18843274637
18843281534
18843287393
18843293741
18843300149
18843307107
18843313699
18843320657
18843326455
18843333535
18843339212
18843346231
18843354470
18843361001
18843367776
18843374429
18843381448
18843388528
18843395547
18843401711
18843409036
18843416665
18843424661
18843433083
18843441201
18843448159
18843453957
18843462869
18843469888
18843475259
18843482400
18843488381
18843495339
18843501015
18843507973
18843514382
18843519997
18843528054
18843533852
18843541787
18843548623
18843553750
18843559426
18843567788
18843574685
18843581093
18843584939
18843592873
18843599526
18843606057
18843609963
18843621437
18843628273
18843634987
18843641579
18843647988
18843653847
18843660256
18843666542
18843673744
18843680702
18843687660
18843693764
18843698647
18843706886
18843712380
18843720131
18843725807
18843732155
18843739479
18843747047
18843752846
18843760109
18843766029
18843774574
18843786171
18843792885
18843801735
18843808510
18843816139
18843822731
18843830726
18843841163
18843848244
18843857033
18843862648
18843869056
18843876075
18843883644
18843890052
18843896888
18843904884
18843911537
18843915687
18843923561
18843929115
18843937477
18843943641
18843949989
18843953895
18843962745
18843969703
18843976112
18843982398
18843990211
18843996436
18844004371
18844008888
18844017310
18844023719
18844033057
18844037879
18844047828
18844058143
18844066993
18844088538
18844098731
18844103553
18844114539
18844123755
18844130652
18844137366
18844144141
18844150855
18844157569
18844164466
18844172156
18844178687
18844184363
18844190894
18844195960
18844204871
18844210913
18844219641
18844226294
18844233557
18844239478
18844247718
18844253577
18844262305
18844270178
18844277259
18844285864
18844293250
18844301001
18844306738
18844314429
18844322424
18844328711
18844336096
18844344397
18844352698
18844358618
18844365271
18844375342
18844380469
18844390662
18844397742
18844407812
18844415503
18844423987
18844430517
18844439306
18844446142
18844455420
18844461523
18844470007
18844478491
18844485815
18844492224
18844501440
18844506933
18844514746
18844522375
18844524939
18844537695
18844543188
18844549169
18844554968
18844561071
18844568884
18844573583
18844581457
18844586645
18844594763
18844600195
18844607031
18844612341
18844619421
18844624792
18844634374
18844642004
18844646642
18844654577
18844661535
18844667333
18844672826
18844680578
18844686071
18844693273
18844699438
18844705907
18844711950
18844717992
18844724706
18844730932
18844737768
18844744298
18844751806
18844755773
18844765172
18844773046
18844780370
18844788060
18844797338
18844803502
18844813329
18844819310
18844825963
18844832311
18844837804
18844843968
18844849706
18844856359
18844862706
18844868321
18844873204
18844880467
18844885472
18844892369
18844897130
18844903966
18844909459
18844916478
18844921666
18844927403
18844933812
18844939366
18844945470
18844951573
18844957249
18844964146
18844970311
18844975621
18844983250
18844986729
18844994603
18845001195
18845007298
18845013585
18845019261
18845025120
18845029271
18845035740
18845041844
18845047093
18845055089
18845062169
18845067235
18845073948
18845079442
18845086155
18845091343
18845099827
18845106175
18845112889
18845118870
18845124913
18845130894
18845136814
18845142857
18845149082
18845155247
18845161961
18845168492
18845175328
18845181004
18845187412
18845192967
18845200901
18845207432
18845212376
18845220005
18845226048
18845230686
18845235752
18845243137
18845249851
18845256443
18845263401
18845269566
18845274815
18845281040
18845287937
18845294895
18845300999
18845307773
18845314976
18845320896
18845330051
18845335117
18845343723
18845350620
18845356724
18845366672
18845375766
18845384006
18845391758
18845400486
18845407749
18845416111
18845421787
18845429904
18845437351
18845444675
18845451328
18845457859
18845464084
18845470615
18845476962
18845483615
18845490878
18845496066
18845503391
18845510349
18845515964
18845523044
18845529697
18845534824
18845542087
18845550327
18845556735
18845562350
18845570712
18845574680
18845583530
18845587314
18845597079
18845600925
18845609530
18845613437
18845622897
18845626559
18845635531
18845639316
18845649081
18845653354
18845663241
18845667819
18845678744
18845683383
18845692843
18845697482
18845706332
18845713046
18845721164
18845729830
18845736056
18845744357
18845750155
18845758944
18845765902
18845774203
18845781893
18845788485
18845794833
18845802950
18845810702
18845816561
18845824252
18845833041
18845835970
18845848360
18845856966
18845863680
18845868746
18845880099
18845885470
18845894381
18845902743
18845911410
18845918734
18845928499
18845936129
18845946566
18845951510
18845962252
18845970064
18845977205
18845986788
18845992647
18846001253
18846008333
18846016085
18846024080
18846032930
18846040377
18846048006
18846055025
18846061617
18846066683
18846078584
18846084322
18846097200
18846104768
18846115205
18846125032
18846132112
18846137910
18846148714
18846157320
18846167574
18846174959
18846182710
18846190584
18846196626
18846203218
18846211397
18846217927
18846227449
18846232698
18846243074
18846250276
18846258821
18846266084
18846272310
18846280061
18846286531
18846293977
18846301667
18846307283
18846314668
18846321809
18846329011
18846335420
18846341157
18846348115
18846355134
18846361665
18846368623
18846372712
18846380952
18846384736
18846394624
18846401460
18846406281
18846413422
18846418000
18846425202
18846432160
18846438203
18846443757
18846451813
18846457124
18846464387
18846472077
18846478608
18846484589
18846491852
18846499787
18846504975
18846512238
18846518403
18846524994
18846531830
18846536652
18846543305
18846549714
18846556489
18846562775
18846568207
18846574372
18846580841
18846586396
18846593964
18846600739
18846606659
18846612580
18846618134
18846624665
18846631012
18846637177
18846642121
18846649323
18846652741
18846660675
18846666657
18846672333
18846677887
18846685394
18846690399
18846696198
18846702606
18846705902
18846713532
18846719940
18846729218
18846734772
18846740082
18846749054
18846758026
18846764801
18846773285
18846777435
18846787933
18846794403
18846800323
18846806305
18846813629
18846819122
18846825409
18846833282
18846839691
18846845978
18846853180
18846858368
18846865387
18846871673
18846878570
18846886078
18846892181
18846900116
18846905609
18846911407
18846919708
18846923675
18846934844
18846939117
18846948394
18846952178
18846962554
18846969268
18846975677
18846981902
18846988555
18846994109
18847000823
18847008148
18847015167
18847021819
18847028899
18847035430
18847040313
18847047393
18847052581
18847060760
18847067779
18847073394
18847080291
18847086761
18847092132
18847099151
18847104644
18847111297
18847118560
18847123992
18847131011
18847137237
18847142791
18847150237
18847155730
18847163726
18847169219
18847176665
18847182158
18847191069
18847194976
18847203582
18847210234
18847215239
18847220732
18847228362
18847235015
18847241790
18847248198
18847254790
18847258757
18847268157
18847275237
18847281767
18847287627
18847294158
18847301238
18847306120
18847312895
18847319365
18847326750
18847333037
18847339690
18847344572
18847351469
18847358366
18847366179
18847372649
18847381926
18847392729
18847399077
18847406889
18847416960
18847425017
18847431730
18847437163
18847445585
18847452482
18847458952
18847466215
18847472990
18847478727
18847485380
18847491850
18847498747
18847505705
18847513029
18847519804
18847525175
18847533598
18847539213
18847547453
18847557035
18847566313
18847574796
18847587126
18847596769
18847607145
18847612211
18847622465
18847632841
18847644804
18847656156
18847666715
18847675382
18847688016
18847696378
18847705656
18847714017
18847724698
18847733976
18847742704
18847750211
18847763089
18847769193
18847781400
18847788724
18847798124
18847807340
18847814420
18847824613
18847831998
18847840970
18847848538
18847858914
18847863980
18847874295
18847881803
18847892239
18847897489
18847908170
18847916653
18847925198
18847933255
18847941739
18847949124
18847957974
18847966336
18847972867
18847982083
18847992032
18848002102
18848009305
18848019314
18848028958
18848037076
18848046170
18848055386
18848063565
18848072598
18848081143
18848088955
18848098050
18848105862
18848119656
18848128445
18848138577
18848148709
18848159268
18848171475
18848181973
18848191494
18848201687
18848213833
18848223232
18848230862
18848241177
18848250698
18848256069
18848267483
18848277004
18848283840
18848293117
18848302761
18848315151
18848323940
18848338649
18848345241
18848361477
18848372097
18848382839
18848394619
18848414455
18848431911
18848453029
18848470973
18848490810
18848510036
18848526759
18848535182
18848543849
18848551601
18848559718
18848567103
18848581325
18848599452
18848616542
18848636012
18848652247
18848661769
18848670985
18848679103
18848687526
18848696925
18848705775
18848714259
18848722987
18848732020
18848740321
18848749171
18848757166
18848765833
18848773463
18848780726
18848789271
18848797694
18848804896
18848813075
18848821375
18848830103
18848840235
18848852564
18848862757
18848872034
18848880701
18848890040
18848899622
18848908411
18848918543
18848927393
18848938135
18848947229
18848956324
18848966517
18848974878
18848983973
18848992151
18849002466
18849010706
18849021082
18849026209
18849038965
18849044458
18849056238
18849067224
18849076868
18849084680
18849094507
18849104456
18849113794
18849122949
18849132593
18849142297
18849152124
18849162439
18849172632
18849183313
18849189111
18849202051
18849212732
18849222741
18849233117
18849242700
18849252771
18849263818
18849275354
18849284326
18849295129
18849300622
18849315942
18849325585
18849335839
18849344872
18849355187
18849367516
18849373559
18849386559
18849397057
18849406823
18849409936
18849424462
18849435265
18849445946
18849457238
18849467980
18849476830
18849483361
18849490868
18849495385
18849503441
18849507592
18849517296
18849523949
18849529198
18849535729
18849542138
18849556359
18849562828
18849569420
18849575585
18849582543
18849588890
18849594567
18849602867
18849608971
18849616478
18849625878
18849635216
18849641564
18849648094
18849653710
18849663475
18849669945
18849674828
18849683006
18849688561
18849695946
18849701439
18849709801
18849715660
18849722923
18849728355
18849736717
18849740990
18849749596
18849756248
18849765709
18849772423
18849781395
18849787926
18849794334
18849802696
18849809654
18849815819
18849824669
18849833519
18849842735
18849848777
18849857322
18849861961
18849873130
18849880760
18849890709
18849898277
18849904197
18849912010
18849918296
18849924949
18849932090
18849936424
18849944541
18849949790
18849955894
18849961143
18849969322
18849975669
18849981895
18849987937
18849994224
18849998069
18850005332
18850011314
18850017478
18850023826
18850031028
18850037986
18850044150
18850049461
18850055747
18850061729
18850068259
18850075095
18850082114
18850087852
18850094138
18850100303
18850106650
18850112143
18850118491
18850124656
18850131431
18850138266
18850144492
18850149375
18850155539
18850161826
18850166770
18850173789
18850178733
18850184775
18850189658
18850196189
18850201133
18850208274
18850214072
18850220175
18850226401
18850232138
18850238059
18850243796
18850249594
18850255332
18850262351
18850267417
18850274191
18850279013
18850284811
18850291342
18850297812
18850302390
18850310873
18850317648
18850322409
18850329428
18850336569
18850341574
18850349875
18850356589
18850362631
18850368674
18850374411
18850380392
18850387411
18850392416
18850400229
18850407797
18850413778
18850421042
18850427694
18850433188
18850442526
18850446127
18850458639
18850465719
18850474936
18850480978
18850487875
18850495077
18850502951
18850511801
18850520040
18850526571
18850533285
18850540121
18850545187
18850552816
18850559774
18850566183
18850573263
18850579000
18850586080
18850591451
18850598653
18850605123
18850611105
18850617757
18850624960
18850630758
18850638692
18850643880
18850649557
18850657857
18850663534
18850670614
18850676229
18850684591
18850688619
18850697347
18850702901
18850711202
18850715108
18850723592
18850727620
18850735921
18850741475
18850749349
18850753255
18850761922
18850765828
18850774129
18850781453
18850786397
18850790181
18850798970
18850805989
18850814900
18850821492
18850828267
18850835042
18850839986
18850846272
18850852803
18850859700
18850867513
18850874898
18850880757
18850888142
18850893880
18850901082
18850908528
18850914998
18850920918
18850928609
18850934285
18850941731
18850947285
18850954793
18850960469
18850968465
18850975056
18850982197
18850990071
18850998005
18851002888
18851012593
18851017354
18851026875
18851034321
18851040242
18851046956
18851056904
18851064106
18851070332
18851078633
18851086140
18851093525
18851102925
18851110798
18851118916
18851125386
18851134480
18851141255
18851151447
18851158100
18851171467
18851176777
18851186176
18851191242
18851201130
18851207966
18851215473
18851222675
18851231831
18851238789
18851246906
18851253559
18851261860
18851268391
18851275837
18851282001
18851289814
18851297687
18851305805
18851311786
18851318928
18851326862
18851333698
18851342853
18851351459
18851357380
18851365863
18851371723
18851379963
18851385822
18851392475
18851401752
18851408771
18851416706
18851424030
18851433185
18851440448
18851447894
18851456439
18851464130
18851471210
18851480243
18851486591
18851496478
18851503070
18851510150
18851519244
18851527789
18851534686
18851543414
18851552020
18851557574
18851567889
18851573138
18851582721
18851590472
18851598346
18851604938
18851613482
18851619891
18851629901
18851636432
18851645648
18851652362
18851660113
18851668963
18851673907
18851684100
18851688555
18851698260
18851702594
18851712664
18851719561
18851725665
18851732745
18851739703
18851745440
18851751910
18851758074
18851763079
18851769549
18851775347
18851783404
18851789263
18851795367
18851802447
18851808611
18851815142
18851821978
18851827715
18851834246
18851839617
18851846026
18851851824
18851858111
18851866961
18851873736
18851880266
18851891375
18851897967
18851905291
18851914019
18851922442
18851929888
18851937151
18851942644
18851947771
18851953692
18851959490
18851965715
18851972673
18851977861
18851985063
18851990740
18851996355
18852002397
18852008684
18852014665
18852020708
18852027056
18852031877
18852039568
18852045427
18852051409
18852059099
18852063799
18852070207
18852075151
18852082109
18852087969
18852093706
18852099260
18852104936
18852112138
18852117143
18852123735
18852128923
18852136919
18852144243
18852150224
18852156633
18852160905
18852167131
18852173051
18852179460
18852185258
18852192460
18852197465
18852204667
18852208574
18852215776
18852220964
18852228227
18852236345
18852242753
18852248246
18852254350
18852260209
18852266252
18852271440
18852278703
18852286149
18852292924
18852298356
18852305802
18852311601
18852317765
18852324052
18852329789
18852336320
18852342973
18852348832
18852354142
18852359513
18852366105
18852371842
18852377946
18852384721
18852391984
18852398331
18852404008
18852411759
18852416947
18852423478
18852428727
18852436906
18852444230
18852450944
18852457047
18852468522
18852476090
18852484757
18852493241
18852499039
18852505326
18852513505
18852519547
18852525773
18852531876
18852537980
18852543473
18852549576
18852555436
18852561661
18852566361
18852572464
18852578812
18852583573
18852589920
18852596268
18852603226
18852607987
18852615433
18852621964
18852628311
18852635025
18852639664
18852646195
18852651566
18852658157
18852662857
18852668839
18852676285
18852681534
18852688797
18852694840
18852699783
18852705093
18852713333
18852720291
18852727005
18852733902
18852740433
18852745743
18852751968
18852757583
18852764725
18852772049
18852779556
18852786270
18852793045
18852799087
18852805984
18852812515
18852817825
18852825149
18852830764
18852839126
18852844375
18852852310
18852858657
18852866470
18852872268
18852876724
18852886306
18852891067
18852900161
18852904373
18852914688
18852919021
18852928665
18852935195
18852943252
18852947646
18852957717
18852962722
18852971816
18852978957
18852987746
18852996536
18853008559
18853016189
18853026137
18853033218
18853040481
18853047072
18853057571
18853065017
18853074843
18853081435
18853089919
18853096877
18853101699
18853113479
18853119033
18853130568
18853140212
18853146987
18853154982
18853165297
18853173537
18853182570
18853190261
18853198683
18853206740
18853216384
18853224562
18853230239
18853237807
18853244948
18853250441
18853259291
18853266005
18853273940
18853283583
18853290724
18853299269
18853305922
18853314589
18853319899
18853330641
18853336012
18853346083
18853353834
18853361220
18853368422
18853375746
18853384535
18853391676
18853400099
18853406202
18853414808
18853419569
18853428968
18853433241
18853442396
18853448744
18853454847
18853461378
18853467604
18853471388
18853479383
18853483168
18853491468
18853498243
18853504591
18853508497
18853517164
18853523451
18853528272
18853534681
18853540907
18853546827
18853553358
18853560743
18853567518
18853572828
18853579481
18853586195
18853592725
18853599500
18853606763
18853613050
18853619886
18853625501
18853632093
18853639051
18853645460
18853651197
18853658033
18853663770
18853669813
18853676160
18853682325
18853688001
18853694471
18853701612
18853708509
18853714246
18853721021
18853726514
18853730909
18853737989
18853742871
18853750379
18853757276
18853763013
18853770093
18853774549
18853781140
18853787183
18853792981
18853799085
18853805188
18853811902
18853817334
18853824536
18853831861
18853838330
18853844861
18853851331
18853857617
18853864941
18853872449
18853878796
18853885327
18853891370
18853897595
18853904431
18853911267
18853916882
18853923291
18853929089
18853935376
18853942578
18853948559
18853954480
18853960766
18853967297
18853974133
18853979199
18853987011
18853993603
18853999280
18854006115
18854013623
18854020398
18854025830
18854032360
18854039441
18854046948
18854052380
18854058850
18854065380
18854071789
18854078869
18854085827
18854093395
18854098767
18854106945
18854111645
18854118420
18854124890
18854132153
18854136974
18854144726
18854149792
18854157116
18854162060
18854170239
18854175182
18854181835
18854188854
18854196606
18854202465
18854210461
18854216259
18854223705
18854227611
18854236156
18854240063
18854247692
18854253307
18854261669
18854268017
18854274486
18854278637
18854287365
18854291332
18854300060
18854306652
18854313183
18854317150
18854324779
18854331066
18854337474
18854344738
18854351696
18854358959
18854364269
18854371715
18854378490
18854384532
18854391185
18854398204
18854405284
18854411693
18854418102
18854424755
18854431163
18854437877
18854442882
18854451671
18854457347
18854468395
18854477184
18854483104
18854491832
18854497325
18854505687
18854517467
18854524486
18854532298
18854537669
18854545299
18854552196
18854559215
18854566478
18854572581
18854579478
18854585460
18854593516
18854601268
18854607493
18854614268
18854622325
18854629344
18854634654
18854643016
18854647532
18854654551
18854661204
18854668406
18854676341
18854683970
18854691111
18854698558
18854705088
18854713084
18854721629
18854730357
18854736338
18854743784
18854750803
18854757884
18854764292
18854771372
18854778880
18854786814
18854793650
18854800608
18854806956
18854811777
18854819285
18854826182
18854831858
18854839609
18854847727
18854853464
18854861338
18854868967
18854875620
18854883494
18854888376
18854901865
18854909189
18854915049
18854923838
18854930429
18854937021
18854945932
18854952341
18854960092
18854967844
18854977060
18854983591
18854991220
18854998056
18855005991
18855011728
18855019907
18855028879
18855036936
18855045175
18855052377
18855058542
18855066538
18855074228
18855080637
18855089853
18855098398
18855106576
18855113046
18855120615
18855128427
18855134286
18855142892
18855151803
18855157113
18855166757
18855172006
18855184152
18855193368
18855200815
18855209359
18855215890
18855224374
18855228219
18855237252
18855241281
18855250924
18855256234
18855262399
18855268991
18855275094
18855281259
18855286019
18855293832
18855299447
18855305673
18855311288
18855318490
18855323800
18855331002
18855336190
18855342843
18855349496
18855356088
18855362313
18855368478
18855374764
18855381295
18855389535
18855395638
18855401559
18855410287
18855416512
18855422555
18855428963
18855433236
18855440743
18855447518
18855454964
18855459786
18855465096
18855472115
18855476632
18855483162
18855487862
18855495553
18855498971
18855506966
18855513558
18855518990
18855524483
18855530770
18855536324
18855542305
18855549691
18855555855
18855561043
18855566719
18855571846
18855576668
18855585457
18855591133
18855595772
18855603035
18855610115
18855615914
18855622566
18855628853
18855635628
18855641609
18855647469
18855654183
18855660225
18855667061
18855671700
18855679085
18855685738
18855692818
18855699104
18855706428
18855712715
18855719246
18855726448
18855732735
18855738411
18855744392
18855750130
18855756172
18855766792
18855773994
18855783333
18855791145
18855800972
18855809639
18855818916
18855825874
18855832710
18855839912
18855844490
18855851203
18855858345
18855864387
18855870552
18855876167
18855881294
18855888618
18855893928
18855898994
18855905952
18855912544
18855925605
18855931709
18855939948
18855944709
18855953254
18855959296
18855965888
18855972968
18855979255
18855985053
18855991645
18855998115
18856004340
18856010139
18856015876
18856024177
18856031318
18856038459
18856044684
18856052375
18856058295
18856064521
18856068732
18856077399
18856084296
18856090522
18856097602
18856102973
18856109504
18856116340
18856122809
18856127936
18856134467
18856139777
18856146491
18856152106
18856160651
18856164862
18856173163
18856179084
18856185553
18856191901
18856198187
18856204901
18856210333
18856217291
18856223944
18856230414
18856235724
18856243231
18856248602
18856255438
18856262396
18856268927
18856273871
18856280646
18856285651
18856292303
18856298895
18856306158
18856311591
18856318793
18856323859
18856330511
18856338080
18856344488
18856350104
18856357367
18856363897
18856372381
18856379217
18856388189
18856402411
18856412970
18856423773
18856431280
18856440680
18856448553
18856459783
18856463568
18856472052
18856476263
18856484197
18856488043
18856495733
18856499578
18856507147
18856510992
18856519232
18856526617
18856532354
18856536810
18856546941
18856555303
18856561102
18856565618
18856575750
18856580572
18856589849
18856596990
18856604864
18856611150
18856616338
18856622198
18856629949
18856635992
18856641363
18856649053
18856655034
18856660955
18856670171
18856675664
18856684514
18856692022
18856700750
18856707647
18856714055
18856722295
18856730107
18856736394
18856741216
18856752019
18856761174
18856768010
18856774968
18856782476
18856789311
18856797856
18856805669
18856813176
18856820622
18856828252
18856834233
18856843144
18856850346
18856857365
18856863164
18856872685
18856880009
18856886357
18856892949
18856898198
18856903996
18856909550
18856915471
18856920537
18856926457
18856932744
18856937443
