19303830159
19303836995
19303843648
19303849141
19303856099
19303861836
19303866780
19303872579
19303879964
19303886495
19303892903
19303899129
19303905904
19303912984
19303921040
19303926595
19303933003
19303939595
19303947102
19303954732
19303961568
19303967671
19303973469
19303981343
19303988362
19303994649
19304002522
19304009602
19304016682
19304024861
19304030476
19304040852
19304048848
19304055073
19304061848
19304069294
19304076924
19304084126
19304092060
19304101826
19304108418
19304116413
19304123554
19304131306
19304139118
19304145710
19304154438
19304161091
19304169270
19304178242
19304185993
19304192829
19304200153
19304206684
19304214069
19304222431
19304229816
19304238972
19304247517
19304255878
19304262470
19304271625
19304279682
19304288105
19304295429
19304303547
19304309040
19304316547
19304326374
19304333332
19304345539
19304355243
19304369342
19304377521
19304387226
19304395771
19304407794
19304415973
19304424640
19304433063
19304442279
19304451251
19304457050
19304466571
19304472308
19304481525
19304488422
19304496783
19304505573
19304513324
19304520892
19304529925
19304537311
19304545734
19304555011
19304563129
19304571307
19304579608
19304588336
19304597796
19304604266
19304612201
19304620440
19304628253
19304636554
19304645160
19304654315
19304661090
19304668841
19304676593
19304683673
19304692157
19304703326
19304711505
19304720782
19304728350
19304736773
19304745379
19304752093
19304758929
19304770098
19304776324
19304785418
19304793230
19304798968
19304809527
19304817461
19304824358
19304830340
19304837054
19304844500
19304851458
19304857561
19304866472
19304873247
19304881975
19304888384
19304896258
19304902178
19304910051
19304917681
19304924028
19304933062
19304941607
19304947466
19304956743
19304964373
19304971575
19304980547
19304986956
19304993914
19305000688
19305008196
19305017229
19305023943
19305033281
19305047930
19305056535
19305064714
19305071245
19305083025
19305089983
19305097917
19305106828
19305114030
19305121233
19305128496
19305135210
19305143999
19305150957
19305159318
19305165544
19305174577
19305180925
19305189714
19305195756
19305204789
19305211686
19305221513
19305229326
19305236345
19305244279
19305252214
19305260392
19305267778
19305272966
19305281572
19305290300
19305300553
19305307878
19305316911
19305323258
19305329728
19305339494
19305347856
19305355790
19305362077
19305370377
19305379594
19305387467
19305394364
19305402360
19305409562
19305416947
19305425553
19305432633
19305440934
19305448197
19305456803
19305464371
19305471757
19305479691
19305485367
19305493851
19305502579
19305510148
19305519120
19305526749
19305536454
19305543595
19305552140
19305560990
19305568619
19305578202
19305586197
19305594132
19305601395
19305607498
19305618485
19305625015
19305635391
19305644974
19305651016
19305660904
19305666641
19305676773
19305684158
19305692642
19305700027
19305709732
19305717728
19305724686
19305731888
19305740738
19305750870
19305757828
19305774978
19305782974
19305790603
19305800308
19305807144
19305817337
19305824600
19305833572
19305841751
19305849441
19305857437
19305864639
19305872757
19305880569
19305888870
19305895706
19305904495
19305911758
19305919265
19305926772
19305934951
19305943862
19305950027
19305959792
19305967117
19305975662
19305983230
19305991470
19305999953
19306007156
19306014907
19306023391
19306030227
19306038833
19306048171
19306056594
19306063552
19306070937
19306079299
19306087417
19306096328
19306105361
19306112380
19306121474
19306128371
19306136550
19306143630
19306152907
19306161818
19306169753
19306176711
19306182326
19306190993
19306199965
19306207411
19306216139
19306224318
19306232314
19306239394
19306247023
19306255873
19306261672
19306271742
19306279799
19306287856
19306296828
19306300368
19306309889
19306316603
19306322584
19306328627
19306336867
19306342726
19306350111
19306355726
19306363051
19306369887
19306374769
19306382582
19306390272
19306397291
19306403334
19306410780
19306417006
19306422621
19306428358
19306436964
19306443129
19306448622
19306454725
19306460829
19306467054
19306474379
19306481642
19306487257
19306494398
19306501295
19306506056
19306513563
19306517164
19306528150
19306534010
19306541212
19306547376
19306554395
19306560804
19306567884
19306574720
19306581556
19306589063
19306595228
19306602186
19306606336
19306613355
19306618726
19306626173
19306633436
19306640638
19306646741
19306652906
19306660657
19306667188
19306675916
19306681409
19306689771
19306697522
19306703870
19306712476
19306719068
19306725232
19306732984
19306742200
19306748365
19306757703
19306763745
19306771497
19306777539
19306785718
19306791761
19306798902
19306806592
19306814160
19306820325
19306828076
19306835950
19306843335
19306847669
19306856458
19306863110
19306870129
19306876233
19306883313
19306890210
19306897961
19306905774
19306912549
19306919690
19306926709
19306932629
19306941601
19306948254
19306956067
19306964062
19306970471
19306977124
19306985302
19306991833
19306998791
19307006238
19307014233
19307022900
19307030102
19307037487
19307044323
19307052380
19307060986
19307073132
19307083630
19307091564
19307100720
19307109814
19307118054
19307125927
19307132763
19307141857
19307149120
19307156017
19307165478
19307171764
19307181164
19307188854
19307197033
19307205578
19307213818
19307218212
19307230602
19307236584
19307246044
19307254040
19307261242
19307268200
19307275585
19307284252
19307291027
19307297985
19307304577
19307311840
19307320934
19307327648
19307335827
19307342235
19307349498
19307358898
19307367015
19307375926
19307385753
19307392284
19307400768
19307405895
19307414867
19307423107
19307429210
19307437572
19307444469
19307453136
19307459056
19307467906
19307475841
19307481456
19307489635
19307498668
19307506236
19307515391
19307521617
19307531077
19307537425
19307546214
19307554515
19307561168
19307570506
19307578624
19307584910
19307592784
19307598704
19307608226
19307616526
19307624888
19307631236
19307638682
19307645030
19307651927
19307656871
19307663096
19307670298
19307676829
19307682688
19307689036
19307694773
19307701426
19307707102
19307713267
19307720896
19307725840
19307732676
19307738658
19307744273
19307751475
19307756297
19307767039
19307773997
19307780650
19307787486
19307792857
19307798472
19307805552
19307811350
19307816904
19307823374
19307829539
19307835459
19307841440
19307847910
19307855967
19307862314
19307869578
19307877451
19307882029
19307889048
19307895151
19307901499
19307907175
19307913523
19307918650
19307924631
19307930185
19307936655
19307942698
19307949717
19307955698
19307961679
19307967295
19307972483
19307978098
19307984995
19307990610
19307997141
19308003122
19308009714
19308016123
19308022653
19308028269
19308034433
19308040537
19308045847
19308052561
19308058786
19308065073
19308071970
19308077585
19308084238
19308090402
19308096139
19308101450
19308107004
19308113596
19308119150
19308126474
19308132211
19308137521
19308144601
19308151498
19308156991
19308164255
19308169504
19308177255
19308182077
19308189889
19308198312
19308203683
19308209543
19308216867
19308221872
19308228463
19308235055
19308240182
19308247628
19308254769
19308260751
19308267160
19308273934
19308281442
19308287301
19308292977
19308299874
19308305123
19308312387
19308317513
19308323007
19308329843
19308338082
19308344552
19308350533
19308358712
19308365792
19308371651
19308377084
19308383736
19308391427
19308394784
19308408272
19308413888
19308421456
19308427621
19308434701
19308442513
19308451241
19308459054
19308465279
19308473153
19308479561
19308487069
19308491585
19308499459
19308506356
19308514046
19308520516
19308526253
19308533028
19308540779
19308546517
19308553109
19308560433
19308566658
19308571480
19308577156
19308585640
19308594795
19308600044
19308608162
19308614083
19308621956
19308627937
19308634590
19308638863
19308648018
19308654610
19308659554
19308666573
19308673775
19308679939
19308685249
19308694160
19308700691
19308706367
19308713936
19308721077
19308727730
19308734138
19308740364
19308746467
19308753486
19308760689
19308766731
19308771919
19308778694
19308784614
19308791633
19308798896
19308804756
19308812812
19308818428
19308824653
19308831611
19308841194
19308846748
19308856636
19308863533
19308871467
19308877937
19308886970
19308894294
19308903022
19308911506
19308919258
19308927131
19308934882
19308942512
19308950019
19308955695
19308966621
19308974189
19308980415
19308990302
19308999885
19309006171
19309014289
19309021674
19309030036
19309036140
19309044440
19309051520
19309058906
19309066047
19309074775
19309079719
19309090827
19309095343
19309105903
19309114814
19309121283
19309130683
19309138800
19309146186
19309154181
19309161444
19309169623
19309177375
19309185736
19309193061
19309201483
19309209113
19309216437
19309222296
19309229682
19309237128
19309244391
19309251532
19309258551
19309264533
19309273322
19309279730
19309286261
19309293219
19309302008
19309309759
19309315558
19309323614
19309330694
19309337164
19309343451
19309348944
19309355047
19309361334
19309366461
19309373541
19309380316
19309387335
19309391424
19309399786
19309405706
19309413397
19309419134
19309424078
19309430609
19309436651
19309442694
19309449408
19309454840
19309462408
19309468389
19309474554
19309481634
19309488104
19309492742
19309500372
19309505438
19309513128
19309519537
19309525091
19309530523
19309536993
19309543585
19309550543
19309555914
19309563299
19309569219
19309574773
19309580938
19309587408
19309593267
19309599187
19309604925
19309611700
19309616155
19309622320
19309633062
19309639287
19309645696
19309650762
19309657903
19309663396
19309669072
19309675237
19309680730
19309687200
19309692571
19309698858
19309706121
19309712041
19309718206
19309723272
19309731084
19309736150
19309743779
19309748845
19309756719
19309763249
19309767766
19309776067
19309781743
19309787908
19309793401
19309799565
19309806584
19309812810
19309818608
19309824590
19309831242
19309838017
19309844426
19309850957
19309856938
19309864507
19309871709
19309878361
19309884465
19309890446
19309896367
19309902592
19309909672
19309915227
19309920720
19309927617
19309933720
19309941472
19309946538
19309955388
19309961369
19309968083
19309974614
19309980351
19309987370
19309993535
19310000004
19310007145
19310013371
19310019047
19310026249
19310032963
19310039433
19310047062
19310052128
19310059819
19310066105
19310072575
19310078495
19310086308
19310093022
19310100346
19310107243
19310113346
19310119938
19310126835
19310132633
19310137821
19310146610
19310152714
19310160404
19310165348
19310172428
19310179264
19310185123
19310192875
19310199589
19310206058
19310211613
19310217472
19310223453
19310232059
19310238773
19310245121
19310250553
19310257145
19310263431
19310268558
19310274662
19310281986
19310289493
19310297184
19310303775
19310310184
19310316776
19310322940
19310332279
19310339786
19310345890
19310353641
19310360843
19310367191
19310372867
19310379032
19310386356
19310394657
19310400699
19310407962
19310412357
19310419071
19310425357
19310431522
19310440067
19310447208
19310453128
19310458560
19310464725
19310473331
19310479434
19310486880
19310494144
19310500003
19310504886
19310511233
19310518497
19310524600
19310530154
19310538577
19310546145
19310553287
19310559756
19310566775
19310570804
19310579165
19310588076
19310596133
19310604068
19310611514
19310618106
19310625308
19310633548
19310641543
19310646914
19310656069
19310662173
19310670962
19310677981
19310685000
19310693850
19310702639
19310710024
19310716128
19310723330
19310729861
19310737246
19310744936
19310752444
19310759341
19310767825
19310774172
19310781496
19310786013
19310797121
19310804873
19310812929
19310820071
19310828737
19310835390
19310843325
19310849550
19310857424
19310864809
19310873964
19310882631
19310889834
19310898989
19310908510
19310915041
19310923403
19310929995
19310936342
19310946047
19310954409
19310961428
19310969789
19310976015
19310983644
19310988954
19310995790
19311003969
19311010866
19311017702
19311024111
19311030824
19311037416
19311042055
19311050600
19311056459
19311062257
19311070009
19311075807
19311081789
19311088625
19311093690
19311101076
19311106630
19311113405
19311119813
19311125368
19311130495
19311137941
19311144960
19311150636
19311157655
19311164125
19311171266
19311177003
19311183351
19311189332
19311196473
19311203065
19311208924
19311214906
19311222291
19311227479
19311234437
19311240785
19311247193
19311253419
19311258790
19311264344
19311271730
19311277223
19311282960
19311288026
19311295960
19311301881
19311307801
19311312257
19311320252
19311325807
19311332765
19311339845
19311344666
19311350404
19311356385
19311363587
19311367921
19311374940
19311380128
19311386536
19311391846
19311397401
19311402405
19311408265
19311415101
19311421204
19311426697
19311433289
19311438721
19311445557
19311451478
19311459778
19311466797
19311472962
19311479004
19311484009
19311491700
19311497376
19311504090
19311510743
19311515198
19311521302
19311526184
19311534363
19311539612
19311549317
19311554749
19311563111
19311570069
19311576477
19311582398
19311589844
19311595276
19311604004
19311611084
19311618225
19311624024
19311630982
19311636536
19311642212
19311650269
19311656555
19311662598
19311668030
19311675720
19311683350
19311688965
19311697327
19311704101
19311710083
19311716431
19311722534
19311730163
19311736389
19311742798
19311748352
19311754455
19311762268
19311768432
19311776062
19311782287
19311789795
19311794189
19311803161
19311809204
19311816711
19311823852
19311829406
19311835510
19311843627
19311850708
19311856323
19311864074
19311869140
19311876403
19311881286
19311888427
19311895080
19311898925
19311907409
19311913452
19311918334
19311925536
19311930419
19311937255
19311943847
19311950195
19311955749
19311961852
19311968627
19311974792
19311980590
19311986632
19311992309
19312000487
19312004821
19312012084
19312016906
19312022765
19312029845
19312035216
19312041320
19312046874
19312052916
19312058471
19312065490
19312070861
19312076171
19312083129
19312088988
19312095580
19312101317
19312108702
19312114501
19312121886
19312128905
19312134398
19312140868
19312149596
19312156432
19312162230
19312169249
19312178588
19312185240
19312192687
19312201048
19312209044
19312216002
19312224669
19312231383
19312238707
19312246397
19312254393
19312261046
19312267943
19312276610
19312283385
19312290831
19312299437
19312304320
19312312742
19312320006
19312327147
19312334715
19312341429
19312348326
19312355101
19312362730
19312371031
19312378233
19312384214
19312394651
19312402098
19312408751
19312419676
19312426817
19312434385
19312440794
19312448362
19312454527
19312462339
19312469602
19312477903
19312484068
19312491941
19312497617
19312505552
19312512937
19312521970
19312528623
19312535703
19312544614
19312550840
19312558408
19312565061
19312575681
19312584043
19312590208
19312597593
19312604307
19312611204
19312618284
19312625059
19312635312
19312643186
19312650693
19312656064
19312664914
19312673276
19312681516
19312688718
19312695188
19312701902
19312710935
19312719236
19312724790
19312733762
19312739316
19312747068
19312754270
19312760800
19312766782
19312772519
19312778440
19312784116
19312789914
19312796262
19312803159
19312808652
19312814572
19312819333
19312825192
19312835996
19312841245
19312847226
19312854123
19312860165
19312867612
19312874326
19312879575
19312885495
19312892636
19312899777
19312908688
19312915463
19312921383
19312928158
19312935727
19312942380
19312948117
19312955685
19312962643
19312968197
19312973813
19312980954
19312985714
19312992306
19312996762
19313003415
19313009396
19313018978
19313025814
19313030758
19313038204
19313043759
19313050595
19313056637
19313061276
19313068539
19313075253
19313081967
19313085079
19313093868
19313100948
19313106625
19313112484
19313119381
19313123898
19313130123
19313136471
19313141476
19313149166
19313155636
19313161678
19313166683
19313171993
19313176876
19313184322
19313189937
19313196041
19313202755
19313207760
19313213802
19313219051
19313226681
19313234920
19313241329
19313248165
19313254329
19313259212
19313265987
19313270504
19313278194
19313284542
19313291317
19313297115
19313304866
19313312191
19313318050
19313324398
19313333004
19313339412
19313344600
19313351985
19313358089
19313364559
19313370357
19313378475
19313384273
19313390682
19313394161
19313403377
19313408016
19313416255
19313420955
19313428462
19313434077
19313439510
19313445796
19313454524
19313459773
19313467647
19313475703
19313482967
19313489619
19313493342
19313503352
19313509761
19313517451
19313523738
19313530025
19313535457
19313542964
19313549373
19313557429
19313563411
19313571772
19313577205
19313585200
19313591609
19313598994
19313605647
19313612056
19313618464
19313624568
19313631221
19313637446
19313644465
19313647822
19313656550
19313663569
19313669917
19313675837
19313682795
19313688227
19313694148
19313700923
19313706477
19313711726
19313719355
19313723566
19313730952
19313736811
19313742365
19313748164
19313755061
19313760432
19313765864
19313772028
19313778681
19313784846
19313792780
19313798212
19313806086
19313811457
19313819147
19313826960
19313833002
19313838495
19313846125
19313851740
19313859552
19313867182
19313872553
19313880060
19313887018
19313893671
19313899164
19313906610
19313911982
19313918329
19313923273
19313931635
19313937433
19313946466
19313952753
19313959894
19313967340
19313974848
19313981439
19313989008
19313996454
19314003717
19314010004
19314018243
19314024286
19314037897
19314045465
19314053888
19314060846
19314068170
19314074396
19314081598
19314089532
19314095819
19314102106
19314111078
19314117120
19314123590
19314132013
19314137994
19314147394
19314153985
19314160516
19314167779
19314176019
19314182367
19314191095
19314198114
19314205865
19314213250
19314221124
19314228326
19314236932
19314244012
19314251763
19314260125
19314265740
19314274346
19314280816
19314286981
19314295648
19314301690
19314310052
19314315728
19314322381
19314329583
19314337823
19314346734
19314351739
19314360955
19314366570
19314373223
19314380669
19314388604
19314398186
19314403618
19314411004
19314420037
19314428521
19314436516
19314440911
19314450921
19314457695
19314466607
19314473137
19314479119
19314490532
19314496880
19314503167
19314509209
19314517693
19314523430
19314529290
19314534172
19314541680
19314547783
19314554802
19314560051
19314567070
19314571404
19314578423
19314584343
19314591057
19314596916
19314603813
19314608696
19314616264
19314621269
19314628593
19314632866
19314640862
19314647942
19314653007
19314659477
19314664726
19314672600
19314678032
19314686088
19314690849
19314697319
19314702019
19314709282
19314715141
19314720939
19314726127
19314733940
19314738579
19314747123
19314751945
19314757744
19314763176
19314768974
19314774284
19314780021
19314785698
19314792472
19314797660
19314802665
19314808464
19314813957
19314819145
19314827446
19314834220
19314838920
19314844474
19314851127
19314857658
19314862968
19314870048
19314876762
19314882621
19314888175
19314893730
19314898917
19314904655
19314909721
19314917533
19314923026
19314929313
19314935844
19314940788
19314947562
19314954032
19314960441
19314965018
19314971549
19314978751
19314985160
19314990653
19314997184
19315003837
19315009696
19315016532
19315022025
19315028373
19315033988
19315041190
19315047049
19315053519
19315059989
19315065726
19315073600
19315080008
19315087638
19315092215
19315099234
19315106681
19315112235
19315118949
19315125724
19315132193
19315138114
19315144217
19315149832
19315158927
19315164786
19315171073
19315177054
19315183524
19315189810
19315196463
19315202445
19315208487
19315214468
19315222708
19315229605
19315236014
19315241934
19315249075
19315255972
19315263235
19315268973
19315277640
19315284415
19315291189
19315298514
19315305044
19315311941
19315319754
19315326407
19315332876
19315339895
19315346365
19315352408
19315357840
19315363882
19315372183
19315379568
19315385489
19315396231
19315401602
19315409475
19315413259
19315422415
19315427725
19315434805
19315439993
19315447805
19315454397
19315461172
19315467275
19315476064
19315482778
19315490225
19315496572
19315504141
19315511709
19315518789
19315524892
19315533926
19315540517
19315546316
19315552480
19315560110
19315565053
19315572927
19315577688
19315585805
19315591665
19315599172
19315605825
19315611074
19315616933
19315624441
19315629629
19315636342
19315644277
19315649160
19315656484
19315661733
19315668020
19315674611
19315681325
19315686513
19315694143
19315700429
19315706594
19315712331
19315718495
19315724477
19315731679
19315739003
19315745839
19315752675
19315759694
19315765920
19315773183
19315780751
19315788686
19315796742
19315804738
19315810780
19315818044
19315822316
19315832753
19315839040
19315847707
19315853749
19315862843
19315870717
19315878041
19315884083
19315892934
19315898915
19315905324
19315915028
19315923634
19315930287
19315936879
19315945607
19315952565
19315961232
19315967091
19315976551
19315982167
19315990284
19315996876
19316005787
19316012440
19316021595
19316027272
19316036732
19316043263
19316051319
19316056568
19316064869
19316072682
19316080067
19316088917
19316096851
19316104054
19316110951
19316117664
19316127857
19316134754
19316142323
19316146351
19316156788
19316163502
19316173878
19316182178
19316188953
19316198597
19316207081
19316213123
19316219776
19316229908
19316238147
19316246387
19316252613
19316261158
19316269458
19316276966
19316283924
19316293628
19316300891
19316305591
19316313343
19316318042
19316324817
19316329273
19316336658
19316343921
19316350025
19316355579
19316362537
19316367847
19316373340
19316380115
19316387378
19316393359
19316400195
19316405933
19316412830
19316417468
19316424182
19316429248
19316436206
19316444080
19316448779
19316455310
19316461780
19316467212
19316473254
19316479053
19316485400
19316491382
19316497546
19316503284
19316508960
19316516345
19316522510
19316528552
19316535022
19316541980
19316547778
19316552905
19316559131
19316565661
19316570361
19316578357
19316583972
19316589221
19316596057
19316601794
19316606860
19316611560
19316618884
19316625781
19316632067
19316637499
19316642871
19316648669
19316654772
19316660815
19316666674
19316673510
19316677538
19316684496
19316690905
19316697497
19316703967
19316710314
19316715685
19316721911
19316727404
19316733019
19316738390
19316744494
19316750597
19316757616
19316764208
19316769457
19316775866
19316780993
19316787279
19316793871
19316800951
19316807116
19316813341
19316819384
19316824999
19316832445
19316837450
19316845873
19316853502
19316859179
19316864855
19316871630
19316877245
19316884325
19316890978
19316897631
19316904161
19316911241
19316917589
19316922716
19316931505
19316937120
19316944139
19316951525
19316959337
19316964403
19316970201
19316976427
19316983629
19316989610
19316997118
19317002184
19317009691
19317015306
19317022203
19317027147
19317034044
19317039293
19317046983
19317054185
19317060777
19317067552
19317074205
19317080369
19317087205
19317093431
19317099901
19317107957
19317114915
19317120653
19317126451
19317134080
19317139695
19317147630
19317153611
19317160325
19317166551
19317172593
19317179002
19317185289
19317191514
19317198350
19317204942
19317211656
19317218064
19317225450
19317231797
19317237779
19317244737
19317252976
19317258836
19317266282
19317273789
19317282151
19317289048
19317296250
19317303574
19317311021
19317316026
19317323289
19317328904
19317335557
19317342942
19317350083
19317356492
19317363450
19317369370
19317375352
19317380295
19317386155
19317393967
19317401352
19317408188
19317415146
19317420823
19317428818
19317435715
19317442673
19317450425
19317456284
19317463547
19317471726
19317478745
19317485886
19317492417
19317500534
19317506150
19317513657
19317520737
19317525559
19317531418
19317538681
19317548081
19317555161
19317562668
19317569504
19317577438
19317585190
19317595505
19317601975
19317609055
19317616013
19317625412
19317631332
19317640671
19317649155
19317656113
19317664352
19317670273
19317678879
19317685104
19317692734
19317700302
19317708542
19317716537
19317722702
19317730209
19317735458
19317743026
19317747604
19317757553
19317762924
19317770553
19317778427
19317787399
19317795455
19317801071
19317809249
19317817855
19317824386
19317833175
19317839034
19317846542
19317853561
19317861678
19317869186
19317876510
19317883285
19317889877
19317897689
19317903732
19317912215
19317918807
19317928573
19317937423
19317945174
19317951644
19317958907
19317966109
19317973128
19317980514
19317987899
19317994613
19318001571
19318008529
19318014998
19318019942
19318027877
19318034469
19318039473
19318043868
19318049727
19318054366
19318060469
19318065047
19318072371
19318080428
19318088179
19318094771
19318100325
19318108016
19318115218
19318122664
19318129012
19318135543
19318140669
19318147688
19318153792
19318160262
19318165633
19318172896
19318179549
19318185164
19318190108
19318197615
19318203108
19318209822
19318215681
19318222151
19318227522
19318232954
19318238692
19318245894
19318252241
19318258223
19318263533
19318268538
19318275435
19318281294
19318287764
19318292525
19318300947
19318306563
19318312178
19318318464
19318323652
19318330183
19318335249
19318341963
19318347517
19318353498
19318358686
19318365156
19318371199
19318375593
19318382429
19318386946
19318393476
19318399946
19318405378
19318410810
19318418562
19318424116
19318431745
19318437788
19318443830
19318450239
19318456281
19318462629
19318469587
19318476057
19318482893
19318489851
19318495283
19318500532
19318509565
19318515730
19318521589
19318528974
19318535993
19318541120
19318548017
19318553510
19318560285
19318567060
19318573896
19318580549
19318586591
19318593122
19318599836
19318607099
19318614911
19318621930
19318628034
19318634565
19318639997
19318648298
19318655866
19318662641
19318669721
19318674543
19318681440
19318686750
19318695050
19318700849
19318707563
19318713849
19318721173
19318728070
19318734967
19318741681
19318748212
19318754193
19318761579
19318768720
19318774274
19318783734
19318789838
19318795758
19318801312
19318809796
19318815533
19318822797
19318828046
19318835187
19318843060
19318850140
19318857098
19318862897
19318871014
19318876813
19318884076
19318889264
19318895672
19318904034
19318909100
19318916913
19318922772
19318931744
19318936749
19318944195
19318950726
19318959332
19318965191
19318970745
19318976727
19318985272
19318992169
19318997967
19319004925
19319011334
19319017803
19319023724
19319030865
19319035870
19319043682
19319049114
19319058453
19319065106
19319071270
19319077190
19319083538
19319089703
19319096661
19319104778
19319109722
19319116680
19319121441
19319128765
19319136639
19319143047
19319149761
19319156597
19319164348
19319172039
19319177898
19319186809
19319192974
19319200542
19319208172
19319214214
19319221843
19319230938
19319240398
19319244732
19319252056
19319260173
19319266643
19319276897
19319283672
19319292705
19319300762
19319310771
19319317485
19319326824
19319334636
19319342815
19319350444
19319358867
19319365703
19319372844
19319380229
19319388347
19319397319
19319404033
19319411540
19319419231
19319426982
19319433940
19319440959
19319450114
19319456523
19319465983
19319473796
19319480083
19319486064
19319499614
19319507731
19319518474
19319524394
19319534343
19319541240
19319550090
19319559123
19319567057
19319574626
19319581462
19319589274
19319595805
19319602641
19319611064
19319618266
19319623820
19319633158
19319639018
19319646647
19319656168
19319664958
19319674601
19319683573
19319692423
19319697489
19319704630
19319710490
19319715433
19319720927
19319727946
19319734598
19319740641
19319746256
19319751810
19319756266
19319761515
19319767679
19319774271
19319779032
19319784891
19319790690
19319797465
19319802958
19319810343
19319816568
19319820719
19319826700
19319832621
19319838541
19319843058
19319852945
19319858927
19319866800
19319873453
19319879373
19319884317
19319891458
19319898355
19319905130
19319911295
19319916666
19319923807
19319929788
19319937723
19319944376
19319949625
19319955972
19319963358
19319968790
19319975626
19319981729
19319988504
19319995401
19320000589
19320005716
19320013406
19320018594
19320023599
19320031229
19320035867
19320041666
19320048440
19320054117
19320060037
19320067239
19320072305
19320081705
19320090310
19320100503
19320107705
19320116556
19320125345
19320136331
19320143289
19320153665
19320164956
19320175210
19320184732
19320193887
19320202615
19320212319
19320220803
19320230935
19320241006
19320247842
19320258401
19320267922
19320277139
19320285745
19320295266
19320304848
19320314370
19320324380
19320331460
19320344216
19320353188
19320361855
19320373635
19320382912
19320393776
19320405983
19320414467
19320426308
19320436562
19320447182
19320457131
19320467873
19320477272
19320488076
19320497048
19320508034
19320518349
19320528603
19320536110
19320548744
19320560036
19320568276
19320578407
19320589333
19320600380
19320607887
19320621559
19320632606
19320641090
19320650246
19320660805
19320673378
19320685158
19320696083
19320706642
19320714332
19320728676
19320738929
19320750465
19320758277
19320769325
19320781410
19320790016
19320801185
19320810646
19320821388
19320830726
19320837928
19320852393
19320862891
19320873573
19320883704
19320890784
19320903297
19320914283
19320924476
19320932349
19320944800
19320953651
19320963477
19320974952
19320986243
19320995215
19321004065
19321013343
19321022925
19321030372
19321041419
19321050635
19321059424
19321068640
19321078406
19321087378
19321097144
19321106177
19321115454
19321126074
19321136145
19321145056
19321154395
19321165930
19321176184
19321186621
19321195532
19321205969
19321215674
19321222754
19321235876
19321245825
19321254675
19321262915
19321274206
19321282324
19321293432
19321302282
19321312780
19321324377
19321331213
19321342016
19321351965
19321362951
19321371923
19321383032
19321390600
19321403478
19321411047
19321421240
19321432897
19321441503
19321452490
19321461767
19321474401
19321483923
19321495092
19321504308
19321514257
19321524084
19321532506
19321543127
19321552648
19321559240
19321566198
19321573278
19321579320
19321588109
19321596288
19321602819
19321608861
19321615209
19321621312
19321626928
19321635534
19321642553
19321648961
19321654882
19321661718
19321668431
19321674962
19321683019
19321690648
19321695714
19321702550
19321707738
19321714574
19321721898
19321726659
19321733678
19321741246
19321747838
19321752782
19321761205
19321766637
19321773595
19321778783
19321788487
19321795872
19321802892
19321808934
19321813939
19321821934
19321827855
19321834080
19321840977
19321846837
19321851781
19321858739
19321863743
19321870762
19321877293
19321884312
19321888951
19321895299
19321901402
19321907139
19321912938
19321918797
19321922764
19321931370
19321938023
19321944493
19321950047
19321954563
19321962559
19321967686
19321973728
19321980320
19321986729
19321992283
19321999729
19322005467
19322012730
19322018711
19322025791
19322031651
19322037693
19322042881
19322048679
19322055149
19322059727
19322067967
19322074375
19322079380
19322085300
19322091770
19322096836
19322103123
19322110142
19322117039
19322122471
19322127232
19322133640
19322138828
19322144810
19322149814
19322156650
19322162876
19322169346
19322176426
19322179722
19322188022
19322194431
19322202244
19322206638
19322214145
19322222873
19322229343
19322236423
19322241489
19322248752
19322255161
19322260593
19322266391
19322272617
19322277500
19322284030
19322290988
19322295932
19322304538
19322309482
19322316318
19322322666
19322328037
19322334323
19322341037
19322346103
19322353061
19322360263
19322365146
19322371982
19322378085
19322385226
19322392734
19322399265
19322405795
19322410434
19322416843
19322422641
19322429660
19322436557
19322443332
19322450900
19322456088
19322463046
19322468722
19322475436
19322482394
19322487521
19322495089
19322501620
19322508517
19322513217
19322521273
19322526645
19322533664
19322540744
19322548495
19322554782
19322560092
19322565585
19322572848
19322577548
19322585299
19322590792
19322597628
19322603182
19322610079
19322615389
19322622714
19322628329
19322635775
19322642367
19322647128
19322654879
19322661593
19322667941
19322674715
19322681429
19322688876
19322695040
19322701571
19322709261
19322714205
19322722201
19322728731
19322737582
19322742769
19322750277
19322756075
19322763888
19322771578
19322776705
19322783907
19322792269
19322799227
19322806734
19322813387
19322820162
19322826693
19322833773
19322842379
19322849459
19322857210
19322862459
19322869417
19322876253
19322883028
19322890047
19322895906
19322903536
19322909822
19322916170
19322923189
19322929048
19322934969
19322942049
19322949922
19322957185
19322962923
19322968233
19322974580
19322981844
19322987337
19322994844
19323002473
19323007661
19323015962
19323022859
19323029329
19323035615
19323042390
19323049165
19323057954
19323064790
19323070161
19323076021
19323085908
19323093782
19323101472
19323110749
19323117585
19323122773
19323131501
19323135408
19323144441
19323151216
19323159272
19323167512
19323175080
19323181611
19323189363
19323195039
19323205842
19323209931
19323220124
19323228181
19323237641
19323244050
19323251679
19323257844
19323266938
19323271027
19323282014
19323289948
19323297761
19323305024
19323312714
19323321381
19323328644
19323335480
19323343293
19323350861
19323358491
19323364716
19323374116
19323380646
19323390168
19323396515
19323406586
19323416901
19323424653
19323428803
19323438568
19323445221
19323454987
19323461029
19323470368
19323476959
19323486603
19323493012
19323501129
19323510590
19323519623
19323525726
19323533051
19323543060
19323550324
19323556000
19323563263
19323569855
19323575775
19323582428
19323592316
19323601288
19323610443
19323622711
19323629669
19323639252
19323644195
19323652679
19323658600
19323664947
19323671173
19323678436
19323684173
19323691192
19323697052
19323704376
19323710479
19323717010
19323723846
19323729095
19323736419
19323744842
19323751861
19323757476
19323763885
19323770050
19323776092
19323781890
19323788482
19323795318
19323802703
19323807830
19323813751
19323820464
19323825897
19323833892
19323839629
19323844940
19323851226
19323859527
19323864776
19323870879
19323876800
19323884185
19323889556
19323896209
19323902129
19323907867
19323914214
19323920013
19323925872
19323931853
19323938567
19323943816
19323950530
19323955596
19323962066
19323967315
19323974456
19323979705
19323986541
19323992156
19323998565
19324004668
19324011687
19324017974
19324023833
19324030974
19324035674
19324043608
19324049407
19324054656
19324061919
19324067412
19324072539
19324079375
19324087493
19324092620
19324098784
19324106536
19324114043
19324121123
19324128691
19324134917
19324140471
19324148528
19324154814
19324162505
19324168791
19324173613
19324180571
19324189421
19324196135
19324202971
19324209563
19324216154
19324222868
19324227080
19324236235
19324243559
19324249724
19324256071
19324264311
19324271208
19324276030
19324285185
19324293364
19324299284
19324306303
19324314238
19324320646
19324326811
19324332365
19324339079
19324346830
19324351225
19324358183
19324365263
19324370634
19324377165
19324383695
19324390531
19324397245
19324403959
19324410368
19324421781
19324429228
19324436125
19324443327
19324450041
19324457365
19324463224
19324470731
19324477811
19324481290
19324489652
19324496854
19324503263
19324509000
19324515836
19324522123
19324529813
19324536405
19324544645
19324550260
19324558072
19324563382
19324571256
19324577237
19324585050
19324591703
19324599027
19324604886
19324610990
19324617643
19324623075
19324628995
19324636258
19324642728
19324649747
19324656217
19324662198
19324667996
19324674710
19324681790
19324688443
19324694119
19324700894
19324708219
19324716336
19324721524
19324729459
19324738065
19324744168
19324750516
19324757657
19324762723
19324771817
19324778592
19324785550
19324792691
19324798001
19324806302
19324813626
19324818631
19324824368
19324835721
19324843472
19324852200
19324860196
19324868557
19324876065
19324883694
19324891812
19324897549
19324905056
19324912930
19324919217
19324925625
19324935879
19324939968
19324948574
19324954434
19324963467
19324970608
19324979824
19324985928
19324991909
19325000393
19325007778
19325014492
19325021084
19325028042
19325035122
19325042568
19325051724
19325059109
19325064297
19325071499
19325079433
19325087612
19325094692
19325102566
19325110317
19325115749
19325122402
19325130459
19325136867
19325145717
19325153713
19325163540
19325170376
19325180080
19325188747
19325196682
19325203640
19325212062
19325219875
19325228420
19325236110
19325243984
19325251674
19325259304
19325266201
19325273097
19325280666
19325288845
19325295619
19325301479
19325307948
19325313259
19325324306
19325330104
19325338832
19325344630
19325351222
19325356715
19325363002
19325368556
19325374232
19325380580
19325386562
19325393764
19325399623
19325405971
19325412318
19325420985
19325428554
19325436244
19325440761
19325448329
19325453151
19325460841
19325467860
19325474147
19325479335
19325486781
19325492335
19325498683
19325503260
19325509669
19325515895
19325523280
19325528712
19325534144
19325540614
19325546290
19325551844
19325558375
19325564418
19325569728
19325576686
19325582118
19325588038
19325592616
19325598597
19325604212
19325612147
19325617640
19325623133
19325628748
19325634974
19325640467
19325646998
19325654139
19325659022
19325664942
19325669642
19325679896
19325686976
19325691431
19325697840
19325703272
19325709742
19325714808
19325720850
19325726832
19325733301
19325740381
19325747523
19325751795
19325757227
19325763819
19325769983
19325775660
19325782496
19325788416
19325794886
19325801661
19325807764
19325812708
19325819666
19325826807
19325833643
19325839624
19325846033
19325852014
19325858606
19325865015
19325872278
19325879724
19325885523
19325892969
19325898767
19325906214
19325912744
19325919763
19325925562
19325931177
19325938196
19325945886
19325950708
19325956751
19325964136
19325971643
19325978967
19325984705
19325992151
19325999841
19326006433
19326013086
19326021570
19326027978
19326033716
19326041284
19326046106
19326054162
19326061303
19326067773
19326073327
19326080835
19326087121
19326093957
19326100000
19326105676
19326113916
19326120385
19326126367
19326131677
19326139245
19326145166
19326153649
19326160668
19326166772
19326173547
19326178491
19326184777
19326192224
19326198205
19326204614
19326212243
19326217736
19326225243
19326230126
19326237573
19326244897
19326252770
19326258996
19326265282
19326271020
19326276635
19326284631
19326291100
19326300011
19326308556
19326313317
19326323510
19326329735
19326339257
19326346032
19326353783
19326360070
19326367760
19326375939
19326381493
19326389672
19326397362
19326406029
19326413109
19326419518
19326426293
19326434777
19326439904
19326448143
19326453759
19326463341
19326470909
19326477074
19326485131
19326492638
19326500084
19326505882
19326513634
19326519615
19326532127
19326540978
19326551659
19326557152
19326567772
19326575706
19326582298
19326592857
19326598473
19326607323
19326614097
19326623314
19326630882
19326638572
19326647362
19326654808
19326663719
19326671226
19326679405
19326686851
19326694664
19326704063
19326711143
19326717369
19326724144
19326732261
19326737266
19326746116
19326752708
19326762046
19326769859
19326776328
19326783103
19326789451
19326795921
19326804710
19326812217
19326819846
19326826377
19326835044
19326842307
19326849265
19326856223
19326863181
19326869895
19326877647
19326887839
19326894797
19326901939
19326909385
19326915366
19326924155
19326930625
19326938560
19326944724
19326954551
19326960959
19326967673
19326974204
19326981467
19326987937
19326994773
19327002646
19327009238
19327015342
19327021323
19327027060
19327032675
19327039572
19327045981
19327052756
19327059592
19327064170
19327071189
19327077353
19327083090
19327087241
19327094260
19327101767
19327106345
19327113547
19327120444
19327126425
19327132651
19327138327
19327145102
19327151266
19327158224
19327163901
19327170676
19327176169
19327182761
19327189658
19327195151
19327201681
19327207297
19327212485
19327218893
19327225302
19327229391
19327237204
19327244162
19327249899
19327256003
19327262411
19327267965
19327274374
19327280844
19327287436
19327293112
19327300070
19327306723
19327312582
19327319113
19327326620
19327333639
19327339010
19327344259
19327351217
19327356710
19327362936
19327367147
19327374594
19327381368
19327385336
19327392660
19327398275
19327403402
19327408285
19327415365
19327421652
19327428121
19327432455
19327438985
19327444784
19327451376
19327456197
19327463461
19327470968
19327476583
19327482015
19327487752
19327494710
19327500082
19327507040
19327512472
19327519247
19327524618
19327531209
19327537313
19327543416
19327551168
19327557882
19327564351
19327571676
19327577962
19327583883
19327591268
19327594503
19327604329
19327610616
19327617879
19327622945
19327629598
19327635152
19327641866
19327647603
19327655110
19327661946
19327666829
19327675618
19327680562
19327687703
19327695271
19327701863
19327707784
19327715718
19327721333
19327727437
19327733540
19327740681
19327745564
19327753255
19327758748
19327765645
19327771626
19327778584
19327784260
19327791402
19327798054
19327805745
19327811909
19327816487
19327823079
19327829609
19327835530
19327842427
19327850422
19327853779
19327863423
19327870442
19327876118
19327883137
19327889180
19327896809
19327905171
19327910054
19327917317
19327925190
19327929951
19327935871
19327943196
19327950703
19327958088
19327964375
19327971272
19327977558
19327984211
19327990559
19327997761
19328004536
19328010761
19328018391
19328024006
19328029316
19328036457
19328042133
19328050251
19328057087
19328063679
19328071064
19328077595
19328082722
19328091022
19328095844
19328104755
19328112202
19328121479
19328130329
19328141315
19328149006
19328158771
19328169025
19328174640
19328181965
19328186969
19328194660
19328199726
19328208026
19328214130
19328220783
19328224567
19328232746
19328238483
19328244709
19328251056
19328258930
19328263446
19328271991
19328279010
19328285785
19328293964
19328300678
19328308795
19328315021
19328321491
19328327838
19328334613
19328340839
19328347308
19328355121
19328360370
19328367999
19328373248
19328381366
19328387286
19328394366
19328398822
19328406817
19328412189
19328420489
19328426410
19328433490
19328443988
19328449908
19328458026
19328463885
19328470660
19328477557
19328484881
19328492144
19328499591
19328507281
19328514972
19328522235
19328530047
19328536639
19328542803
19328551776
19328558978
19328567156
19328575884
19328584368
19328590655
19328598345
19328605914
19328612322
19328620196
19328628008
19328634844
19328640765
19328649798
19328658160
19328662432
19328672320
19328678484
19328686480
19328692766
19328701739
19328708269
19328714129
19328722429
19328728106
19328736284
19328743181
19328747942
19328754656
19328759783
19328767534
19328772478
19328779314
19328783892
19328790545
19328795122
19328801409
19328806047
19328813066
19328819536
19328825518
19328831743
19328838396
19328843889
19328852373
19328859392
19328865679
19328872392
19328879778
19328885820
19328893083
19328897600
19328904314
19328910539
19328915239
19328922075
19328927263
19328933488
19328940019
19328943803
19328950456
19328956499
19328961137
19328967912
19328972856
19328978960
19328985002
19328991533
19328997697
19329003068
19329008378
19329014421
19329019670
19329026628
19329032670
19329038469
19329045366
19329050737
19329058488
19329064409
19329069597
19329075273
19329080705
19329086076
19329091935
19329097123
19329102678
19329108049
19329115312
19329121781
19329127580
19329133073
19329139237
19329145097
19329149613
19329154679
19329162614
19329168839
19329175492
19329181657
19329187333
19329195939
19329201310
19329208329
19329213639
19329220597
19329226579
19329234391
19329240434
19329247514
19329253861
19329260209
19329265763
19329270646
19329277787
19329282365
19329290970
19329295609
19329303300
19329307572
19329315751
19329321488
19329329117
19329334549
19329340714
19329346573
19329353837
19329360428
19329367020
19329371232
19329378983
19329384659
19329393082
19329399979
19329405655
19329412613
19329420121
19329426956
19329432389
19329440201
19329445511
19329452774
19329459061
19329465042
19329470352
19329476517
19329483048
19329490982
19329496964
19329503739
19329510941
19329517044
19329523880
19329530045
19329537064
19329544876
19329550613
19329556534
19329563065
19329570267
19329575088
19329582657
19329589126
19329596451
19329602676
19329610428
19329617630
19329623184
19329631180
19329636612
19329643448
19329651687
19329657913
19329662979
19329669693
19329674514
19329681533
19329687942
19329694229
19329700821
19329707534
19329713943
19329720718
19329728164
19329735061
19329741104
19329748916
19329753921
19329761489
19329766738
19329773940
19329780288
19329787063
19329794204
19329801589
19329808547
19329814834
19329821853
19329829299
19329835403
19329844192
19329851333
19329857742
19329864516
19329871169
19329878738
19329885390
19329892348
19329898330
19329904555
19329912734
19329917006
19329925002
19329931899
19329938552
19329945571
19329954238
19329960280
19329966933
19329973281
19329979567
19329985488
19329995314
19330002455
19330010146
19330016677
19330024184
19330029982
19330038771
19330045546
19330053603
19330060683
19330068617
19330075453
19330083205
19330090529
19330096266
19330102553
19330112135
19330118239
19330125563
19330131850
19330141493
19330148573
19330157301
19330163954
19330171645
19330177443
19330185683
19330192335
19330199904
19330208937
19330214369
19330224074
19330229567
19330239576
19330246229
19330254042
19330261793
19330268568
19330274977
19330282362
19330290113
19330297255
19330304518
19330313063
19330321302
19330330274
19330338026
19330344007
19330353346
19330362074
19330368604
19330376356
19330383619
19330388685
19330400160
19330406385
19330416395
19330422987
19330430494
19330437940
19330446546
19330453077
19330461011
19330468580
19330477247
19330484266
19330491834
19330497938
19330504957
19330511670
19330518995
19330526624
19330533155
19330537549
19330545179
19330551526
19330558667
19330564832
19330572217
19330577832
19330584912
19330592969
19330599927
19330606458
19330611402
19330619153
19330624768
19330632093
19330636975
19330645093
19330652295
19330658460
19330663526
19330669873
19330676404
19330682874
19330689160
19330696973
19330702466
19330710339
19330715588
19330723767
19330729382
19330736218
19330741528
19330748791
19330756238
19330761243
19330771435
19330780102
19330787060
19330792126
19330797986
19330804150
19330809155
19330814221
19330821179
19330828259
19330833386
19330840893
19330845532
19330851086
19330856884
19330862500
19330867810
19330875195
19330880322
19330887524
19330892346
19330898815
19330904431
19330909680
19330915844
19330920483
19330927868
19330932873
19330940624
19330946240
19330951977
19330958874
19330964550
19330969921
19330976757
19330981091
19330988293
19330993786
19331001537
19331007458
19331014233
19331021008
19331025280
19331031506
19331038769
19331045971
19331052685
19331057812
19331064403
19331070141
19331075451
19331083752
19331089550
19331098156
19331104198
19331111034
19331119579
19331126354
19331133983
19331141857
19331148632
19331156017
19331161693
19331168407
19331175914
19331182079
19331187389
19331193859
19331202098
19331209606
19331217296
19331224254
19331229564
19331238170
19331243785
19331250499
19331258678
19331265270
19331271983
19331278392
19331285167
19331291454
19331297435
19331305919
19331313304
19331318919
19331324229
19331331187
19331336864
19331344127
19331351024
19331356700
19331364268
19331371043
19331376903
19331381480
19331389537
19331392650
19331401317
19331409068
19331415355
19331421214
19331428477
19331431651
19331440257
19331446910
19331452647
19331459483
19331465281
19331472544
19331478343
19331484263
19331491771
19331498240
19331505564
19331513194
19331518382
19331526377
19331531504
19331539378
19331544505
19331551585
19331559092
19331565318
19331571177
19331578501
19331581675
19331591013
19331596323
19331603465
19331612009
19331618174
19331623667
19331632273
19331639231
19331645457
19331651377
19331658091
19331665354
19331672678
19331680430
19331688547
19331693674
19331702158
19331709116
19331718882
19331724741
19331730967
19331737925
19331745615
19331752146
19331758677
19331766672
19331776499
19331784128
19331791880
19331797556
19331805735
19331811960
19331818796
19331826303
19331836130
19331844187
19331851267
19331859140
19331866037
19331872507
19331879770
19331883981
19331896677
19331905222
19331912180
19331919260
19331926035
19331932504
19331941293
19331948251
19331954965
19331961862
19331971200
19331978036
19331985300
19331991586
19331998666
19332005502
19332015573
19332022958
19332030099
19332038461
19332047250
19332054818
19332061227
19332067880
19332074838
19332084359
19332091134
19332098519
19332105538
19332113839
19332120919
19332126779
19332137338
19332144601
19332153024
19332160409
19332167184
19332174996
19332181466
19332187142
19332196420
19332204476
19332212045
19332218575
19332226266
19332234566
19332242745
19332251229
19332259408
19332267708
19332275277
19332282479
19332289193
19332294503
19332300545
19332307564
19332313912
19332320504
19332326424
19332333443
19332338997
19332345589
19332350777
19332357491
19332365181
19332371224
19332377022
19332381234
19332387642
19332393563
19332399300
19332405648
19332412483
19332418892
19332425911
19332431954
19332438668
19332444710
19332450569
19332457039
19332464424
19332470162
19332476143
19332482613
19332488045
19332493172
19332499825
19332507698
19332513557
19332518135
19332524361
19332531258
19332537971
19332542549
19332550484
19332556770
19332564094
19332568550
19332576485
19332582588
19332588692
19332594734
19332600776
19332606575
19332612983
19332618171
19332622261
19332629402
19332633796
19332641121
19332646858
19332653145
19332659004
19332663948
19332669380
19332675239
19332681282
19332687263
19332693061
19332699348
19332705879
19332711250
19332716316
19332720954
19332728462
19332735237
19332741767
19332747688
19332753364
19332757270
19332764106
19332769416
19332777168
19332784187
19332790595
19332796699
19332803413
19332808723
19332816047
19332823493
19332829597
19332834785
19332842719
19332847846
19332853644
19332861152
19332868842
19332876166
19332882392
19332888556
19332894355
19332900947
19332907233
19332912848
19332920905
19332928168
19332935431
19332940558
19332947577
19332954535
19332960761
19332965033
19332972174
19332979193
19332986274
19332992499
19332997321
19333004645
19333011359
19333017829
19333025397
19333031928
19333037543
19333046454
19333052558
19333058417
19333065680
19333073432
19333079108
19333086005
19333092719
19333097479
19333103766
19333110663
19333115790
19333124091
19333131659
19333136481
19333144293
19333151129
19333157294
19333164068
19333170904
19333179022
19333185736
19333191778
19333199713
19333202948
19333213080
19333218390
19333225103
19333232000
19333238287
19333245794
19333251532
19333257330
19333265020
19333270880
19333277166
19333284613
19333292059
19333297674
19333304754
19333309454
19333316534
19333324713
19333329656
19333337835
19333340948
19333349432
19333357122
19333363287
19333368536
19333375189
19333384893
19333391790
19333398565
19333405035
19333410589
19333416875
19333424017
19333431280
19333437078
19333445440
19333450140
19333458135
19333463262
19333471197
19333477117
19333484624
19333493108
19333499273
19333504827
19333512456
19333518071
19333526006
19333530889
19333541265
19333548894
19333555242
19333563054
19333570134
19333578374
19333587285
19333594182
19333602117
19333609197
19333618047
19333624333
19333632512
19333638982
19333645452
19333653325
19333660832
19333666509
19333675359
19333681523
19333688969
19333695744
19333702641
19333710149
19333717534
19333724004
19333731755
19333737859
19333746159
19333752385
19333761479
19333769108
19333776799
19333784428
19333791569
19333797246
19333809025
19333816533
19333824528
19333831364
19333839665
19333846501
19333856144
19333862370
19333871098
19333876957
19333886723
19333894596
19333901982
19333910404
19333917851
19333924015
19333931095
19333939152
19333945378
19333954655
19333963078
19333969853
19333976933
19333982548
19333991459
19333998051
19334006168
19334012211
19334019352
19334027653
19334035648
19334041569
19334047733
19334052677
19334058903
19334065616
19334071903
19334078617
19334083561
19334089725
19334096439
19334103214
19334109256
19334115909
19334122196
19334127018
19334132755
19334138675
19334144169
19334150516
19334156376
19334162845
19334169803
19334175296
19334180973
19334186283
19334191898
19334197818
19334204898
19334211124
19334218814
19334224552
19334229740
19334235416
19334241947
19334247012
19334253848
19334260867
19334265811
19334272891
19334277408
19334282779
19334289432
19334295840
19334300174
19334308475
19334315005
19334320621
19334326541
19334332156
19334338077
19334345401
19334349918
19334356631
19334362613
19334369144
19334374820
19334380191
19334385623
19334389834
19334395755
19334402652
19334408267
19334413760
19334418948
19334425174
19334430850
19334437503
19334444095
19334449466
19334456546
19334462161
19334469119
19334475283
19334481509
19334488162
19334494387
19334501284
19334508242
19334514468
19334519778
19334526797
19334531558
19334537234
19334543948
19334549319
19334555544
19334560854
19334566042
19334572878
19334578372
19334586916
19334593935
19334600344
19334606509
19334613100
19334619448
19334625735
19334632632
19334639040
19334643801
19334650332
19334657168
19334663576
19334670351
19334677798
19334684694
19334691347
19334697756
19334703432
19334711123
19334717226
19334723024
19334729311
19334736635
19334742739
19334748659
19334754580
19334761721
19334767153
19334772768
19334778933
19334786867
19334792177
19334799806
19334807314
19334812868
19334818849
19334826418
19334831545
19334840273
19334846071
19334853761
19334860231
19334865541
19334872560
19334879335
19334886049
19334891237
19334897890
19334905214
19334911501
19334917604
19334924257
19334931398
19334938356
19334944887
19334951356
19334956605
19334964418
19334969728
19334977601
19334983705
19334989625
19334996034
19335001649
19335006715
19335014222
19335019655
19335027345
19335034364
19335040834
19335047181
19335054567
19335059510
19335067262
19335074525
19335079652
19335087831
19335094117
19335101991
19335107606
19335115174
19335120851
19335127931
19335133729
19335143067
19335151002
19335158448
19335164491
19335172303
19335177857
19335185548
19335190919
19335198731
19335204530
19335211243
19335218812
19335223634
19335231934
19335237427
19335246216
19335253846
19335276124
19335284058
19335290528
19335297425
19335302430
19335309937
19335315735
19335323426
19335329163
19335336548
19335342713
19335352051
19335358460
19335367859
19335374390
19335381714
19335389832
19335397705
19335405030
19335411255
19335420044
19335427796
19335437561
19335445313
19335453369
19335460266
19335466675
19335476196
19335481567
19335490967
19335496887
19335506409
19335513123
19335521118
19335528870
19335536133
19335544128
19335552246
19335557739
19335565857
19335573730
19335582458
19335590149
19335596802
19335603576
19335613769
19335620239
19335625610
19335635681
19335643188
19335650024
19335656189
19335665710
19335673156
19335680419
19335688842
19335697082
19335704406
19335711791
19335718872
19335727233
19335734924
19335740966
19335747680
19335759216
19335763610
19335773498
19335782104
19335789855
19335794250
19335806884
19335813293
19335823424
19335830627
19335838500
19335841857
19335852538
19335858398
19335866942
19335872069
19335880858
19335888183
19335893859
19335900145
19335907042
19335912230
19335919249
19335924254
19335931945
19335940001
19335945189
19335953307
19335960021
19335965941
19335972594
19335978392
19335986144
19335992125
19335997740
19336005004
19336011840
19336016844
19336022704
19336031371
19336038268
19336045043
19336052184
19336057005
19336063963
19336068663
19336077513
19336080931
19336089903
19336095030
19336100890
19336107481
19336113402
19336119933
19336126341
19336133482
19336138548
19336144835
19336150938
19336156370
19336161680
19336165587
19336172178
19336179808
19336184813
19336189879
19336195555
19336201903
19336207518
19336213194
19336220396
19336225401
19336230650
19336236815
19336241636
19336247618
19336253233
19336260557
19336265989
19336271116
19336276426
19336281431
19336289366
19336294737
19336302488
19336309080
19336314695
19336320005
19336326292
19336331602
19336337644
19336343748
19336349851
19336355711
19336362791
19336368101
19336374204
19336380796
19336386594
19336394895
19336401060
19336407285
19336414304
19336419858
19336427244
19336434995
19336442136
19336447813
19336455259
19336462949
19336470151
19336476926
19336484250
19336490354
19336498472
19336504026
19336510251
19336516965
19336522519
19336529538
19336535032
19336540769
19336548215
19336552976
19336559995
19336564817
19336571958
19336577085
19336584653
19336590879
19336598264
19336604489
19336609555
19336615293
19336622251
19336627316
19336634763
19336646054
19336651791
19336658505
19336666135
19336672788
19336679074
19336685727
19336692319
19336699094
19336704160
19336711850
19336717221
19336723263
19336728207
19336735837
19336741147
19336747311
19336753293
19336761471
19336767514
19336773556
19336781247
19336787655
19336793393
19336801571
19336808102
19336814572
19336820370
19336827389
19336833249
19336839047
19336846554
19336851681
19336856808
19336864010
19336870053
19336877438
19336882138
19336889645
19336895016
19336904049
19336910397
19336918698
19336924435
19336933041
19336937863
19336947201
19336954647
19336960262
19336967892
19336973629
19336981442
19336988827
19336993954
19337002438
19337008236
19337018185
19337023983
19337031979
19337036739
19337044430
19337050716
19337057064
19337063778
19337072994
19337080562
19337086727
19337094784
19337102108
19337109066
19337118099
19337125606
19337135067
19337141842
19337151302
19337158687
19337165645
19337173152
19337179927
19337187129
19337195308
19337202510
19337210079
19337219112
19337224666
19337233699
19337241084
19337248775
19337256465
19337263057
19337270686
19337277034
19337286494
19337296443
19337303950
19337309932
19337318965
19337327998
19337333125
19337341853
19337347957
19337357234
19337364070
19337372737
19337381038
19337391475
19337399959
19337408076
19337415278
19337422908
19337430049
19337435725
19337444026
19337452754
19337460139
19337465693
19337473078
19337480891
19337486445
19337494624
19337500849
19337510310
19337516413
19337524531
19337530757
19337538508
19337545527
19337553706
19337560786
19337569331
19337576289
19337584406
19337591120
19337598994
19337604792
19337611262
19337617304
19337625178
19337630427
19337637812
19337645502
19337650446
19337659479
19337665339
19337673639
19337679804
19337685419
19337692011
19337698969
19337703974
19337711054
19337716059
19337723566
19337729303
19337736322
19337742487
19337749323
19337755793
19337760736
19337766718
19337774225
19337779352
19337786798
19337794306
19337799311
19337807245
19337812433
19337820429
19337826471
19337925165
19337930536
19337936883
19337940668
19337946832
19337951776
19337957452
19337963556
19337968194
19337974542
19337981134
19337986261
19337991449
19337996637
19338002984
19338009454
19338017389
19338022882
19338028619
19338034356
19338040582
19338046868
19338053949
19338059564
19338065301
19338070855
19338077874
19338083367
19338091424
19338096429
19338103265
19338109185
19338114861
19338120477
19338127068
19338133355
19338139520
19338146111
19338150506
19338158074
19338163873
19338170647
19338177117
19338182488
19338190911
19338198357
19338205376
19338211663
19338217400
19338224297
19338229302
19338236748
19338243584
19338250908
19338258355
19338265130
19338274956
19338283928
19338290520
19338295891
19338303826
19338311089
19338317742
19338325615
19338331597
19338339287
19338344353
19338351982
19338359246
19338364128
19338370720
19338378533
19338386162
19338392327
19338399773
19338406548
19338411980
19338419060
19338426506
19338433464
19338439873
19338445854
19338451408
19338458611
19338464287
19338470329
19338476677
19338484245
19338489128
19338495842
19338501335
19338509026
19338515617
19338522758
19338531547
19338537468
19338544548
19338550346
19338557976
