18928589726
18928595951
18928600651
18928606999
18928613468
18928618839
18928625004
18928631046
18928635807
18928642826
18928648441
18928654362
18928660221
18928665226
18928671330
18928679264
18928690311
18928701786
18928709293
18928716923
18928722660
18928729191
18928734257
18928740055
18928746220
18928752628
18928759159
18928765446
18928772159
18928778995
18928783939
18928792545
18928799015
18928805179
18928812565
18928819462
18928827762
18928833927
18928839542
18928848636
18928855899
18928862979
18928870060
18928878604
18928886722
18928894596
18928902286
18928908878
18928914920
18928923160
18928930423
18928936954
18928945133
18928950443
18928958560
18928965518
18928972659
18928981021
18928990298
18928995609
18929005313
18929017825
18929024295
18929032474
18929039737
18929050540
18929057071
18929065921
18929073123
18929082278
18929089053
18929096682
18929103946
18929111514
18929119693
18929127139
18929135562
18929143435
18929148440
18929156558
18929164614
18929172854
18929179812
18929187381
18929194766
18929201724
18929209719
18929216067
18929224917
18929229678
18929239321
18929246340
18929252810
18929260195
18929266848
18929275820
18929288454
18929298037
18929305178
18929314150
18929323794
18929336733
18929347109
18929355715
18929363344
18929370669
18929379091
18929385622
18929391970
18929399050
18929407045
18929413454
18929422304
18929428591
18929437075
18929443422
18929450930
18929461061
18929470766
18929479616
18929489809
18929495729
18929501772
18929509950
18929517275
18929526430
18929534364
18929540529
18929548097
18929556398
18929564882
18929571657
18929581667
18929587648
18929596498
18929603822
18929611940
18929617433
18929625734
18929632265
18929642702
18929650026
18929656801
18929664125
18929669862
18929680238
18929685670
18929695558
18929701783
18929709718
18929718385
18929726808
18929733705
18929741456
18929748964
18929756288
18929764772
18929771241
18929779298
18929787171
18929792726
18929802491
18929810609
18929817750
18929825562
18929832398
18929840516
18929847230
18929854066
18929862611
18929872437
18929878907
18929886292
18929894227
18929901063
18929907960
18929917603
18929925660
18929933411
18929940430
18929946351
18929955384
18929962281
18929970093
18929979859
18929988892
18929996338
18930004090
18930011414
18930020752
18930028626
18930037354
18930050721
18930058838
18930066956
18930074036
18930081970
18930089417
18930096253
18930104492
18930112915
18930120484
18930129090
18930136536
18930144714
18930154236
18930160584
18930168335
18930177002
18930183228
18930191406
18930197632
18930206055
18930214783
18930220520
18930228882
18930237121
18930244568
18930252380
18930258056
18930267639
18930276123
18930283935
18930291992
18930298767
18930304748
18930313171
18930319214
18930328674
18930336242
18930344299
18930350708
18930358581
18930364990
18930372985
18930379028
18930386840
18930392822
18930400634
18930408691
18930413818
18930421874
18930430663
18930437927
18930443969
18930453430
18930459289
18930467895
18930476745
18930484496
18930491149
18930502013
18930511840
18930519714
18930527038
18930536437
18930543273
18930551696
18930559814
18930566466
18930576720
18930585936
18930597045
18930604674
18930613585
18930622069
18930631530
18930639525
18930646117
18930655333
18930661986
18930670470
18930677794
18930685179
18930692687
18930700987
18930708006
18930716185
18930723815
18930732115
18930740355
18930749205
18930756896
18930764830
18930772398
18930780394
18930788695
18930796202
18930805357
18930815367
18930823424
18930831419
18930838377
18930845030
18930852598
18930860411
18930868773
18930877073
18930884703
18930892576
18930901610
18930908934
18930917601
18930926207
18930933775
18930941526
18930948301
18930956968
18930964292
18930971250
18930980650
18930988096
18930994261
18931000974
18931009702
18931016783
18931024900
18931031553
18931041319
18931050169
18931058408
18931065916
18931072630
18931080259
18931085996
18931092222
18931098814
18931107175
18931112974
18931121091
18931127927
18931133787
18931139768
18931147397
18931154172
18931161680
18931168760
18931173948
18931181272
18931187864
18931194516
18931201474
18931208310
18931215085
18931221189
18931227720
18931233884
18931239072
18931247129
18931254697
18931260678
18931267026
18931274594
18931281369
18931287900
18931295285
18931303769
18931310483
18931318845
18931325559
18931331967
18931338254
18931346494
18931353818
18931360532
18931368588
18931374875
18931382016
18931388119
18931395566
18931401730
18931407590
18931417233
18931424008
18931431882
18931438412
18931444821
18931453000
18931459775
18931467892
18931474667
18931482297
18931488949
18931494992
18931502194
18931510983
18931517697
18931524594
18931532345
18931539364
18931547421
18931554379
18931561764
18931569393
18931576718
18931583004
18931591549
18931597714
18931605099
18931611874
18931621273
18931625240
18931634335
18931642941
18931650082
18931656185
18931664608
18931670589
18931679745
18931685116
18931691769
18931700436
18931706234
18931715084
18931723446
18931731380
18931738705
18931744747
18931751522
18931760006
18931767818
18931773922
18931780330
18931788265
18931794796
18931802608
18931809444
18931816158
18931824581
18931831600
18931838497
18931845394
18931852901
18931860836
18931866390
18931874324
18931880550
18931887081
18931895809
18931902278
18931908748
18931915401
18931922176
18931930049
18931938899
18931947200
18931954646
18931962459
18931970332
18931976070
18931985286
18931990718
18931999507
18932006892
18932015803
18932021968
18932029780
18932037776
18932043696
18932051143
18932060481
18932067317
18932075068
18932083308
18932090510
18932098567
18932105647
18932111934
18932119319
18932126399
18932136348
18932142634
18932150752
18932158625
18932166072
18932172541
18932180537
18932188716
18932194514
18932204646
18932212824
18932217524
18932227595
18932234675
18932244196
18932250727
18932258662
18932267023
18932274836
18932282404
18932291071
18932298090
18932303217
18932312983
18932320185
18932326899
18932334284
18932343439
18932350397
18932358637
18932365778
18932374201
18932380488
18932386286
18932396967
18932404169
18932413569
18932419794
18932427301
18932434198
18932442255
18932449457
18932457880
18932465876
18932474604
18932481928
18932489801
18932496027
18932504389
18932511774
18932519830
18932530084
18932538080
18932544244
18932551386
18932559015
18932566217
18932573541
18932581354
18932589227
18932598383
18932605402
18932613153
18932621332
18932627679
18932635614
18932643121
18932652154
18932660272
18932668939
18932673211
18932682977
18932691461
18932696771
18932706781
18932712457
18932722039
18932729547
18932736566
18932745172
18932753595
18932761224
18932769219
18932774896
18932782952
18932791619
18932798089
18932806085
18932814202
18932820611
18932830193
18932837274
18932847283
18932854424
18932864312
18932870721
18932880181
18932887200
18932895684
18932903130
18932911614
18932919060
18932927300
18932935357
18932939812
18932950615
18932958184
18932966179
18932973076
18932981255
18932990166
18932998589
18933005242
18933012139
18933022210
18933030144
18933038079
18933046807
18933054924
18933062371
18933071526
18933078972
18933087517
18933094353
18933103203
18933109490
18933117180
18933127190
18933133232
18933142754
18933150993
18933158318
18933165337
18933173454
18933181450
18933189568
18933196587
18933205315
18933214409
18933223076
18933230339
18933238334
18933244865
18933252678
18933262687
18933268791
18933278312
18933286125
18933293876
18933300224
18933308342
18933315910
18933324577
18933332450
18933340568
18933348136
18933356864
18933363456
18933370109
18933379692
18933385551
18933394889
18933401664
18933411308
18933419608
18933426811
18933432670
18933442558
18933448844
18933459708
18933466300
18933474357
18933481498
18933490531
18933497184
18933507011
18933513541
18933522636
18933529349
18933537528
18933547294
18933553458
18933562736
18933570487
18933578177
18933583854
18933594291
18933601188
18933609488
18933616446
18933624503
18933631034
18933640616
18933647513
18933656485
18933663993
18933672110
18933679984
18933688651
18933696280
18933704154
18933712149
18933720328
18933728690
18933737479
18933744254
18933750784
18933759512
18933768057
18933776907
18933783560
18933791373
18933798880
18933806204
18933814505
18933820730
18933829214
18933836905
18933844717
18933851248
18933860953
18933865347
18933876089
18933880789
18933891653
18933899099
18933907400
18933915152
18933924612
18933933340
18933942984
18933950491
18933956716
18933965078
18933971914
18933981191
18933985403
18933993582
18933998586
18934004568
18934011282
18934016409
18934022390
18934027639
18934033682
18934041372
18934046621
18934052114
18934058584
18934063833
18934069143
18934075796
18934081045
18934086355
18934092763
18934100149
18934105825
18934113210
18934118276
18934125783
18934131460
18934138601
18934144155
18934150014
18934156118
18934162649
18934168569
18934174917
18934181142
18934185964
18934192128
18934198598
18934204702
18934211110
18934217824
18934223989
18934230886
18934237111
18934243703
18934250539
18934257009
18934262380
18934269216
18934273427
18934280324
18934286672
18934293508
18934297719
18934303822
18934309926
18934316152
18934321950
18934328481
18934333547
18934338429
18934343739
18934350331
18934356007
18934361073
18934368275
18934372548
18934379201
18934385304
18934390553
18934396413
18934403371
18934409840
18934415150
18934422230
18934428029
18934433339
18934439137
18934444630
18934450795
18934457387
18934463185
18934469471
18934476979
18934482838
18934490529
18934496510
18934502491
18934510670
18934516835
18934524464
18934529652
18934537587
18934545399
18934552235
18934558827
18934565113
18934572254
18934577137
18934584889
18934591908
18934598072
18934603077
18934611012
18934617848
18934624134
18934629994
18934636463
18934643421
18934649830
18934656849
18934663380
18934668934
18934674732
18934680164
18934687916
18934693104
18934699085
18934705250
18934711414
18934717823
18934723743
18934729420
18934736805
18934741627
18934748951
18934754688
18934760853
18934767627
18934773853
18934779895
18934788135
18934795154
18934801441
18934808338
18934816333
18934822986
18934827930
18934834888
18934839954
18934847461
18934852527
18934860034
18934865528
18934872730
18934877857
18934885364
18934890369
18934896961
18934902027
18934909900
18934916004
18934923511
18934930896
18934937732
18934944873
18934951648
18934958057
18934965137
18934971179
18934978137
18934984912
18934991748
18934997546
18935003284
18935009265
18935017932
18935023608
18935030261
18935037768
18935043689
18935049121
18935055469
18935061816
18935069384
18935076098
18935083606
18935091479
18935098193
18935103625
18935110583
18935119128
18935126330
18935133105
18935140124
18935146228
18935153491
18935159289
18935167529
18935176501
18935183947
18935192187
18935199572
18935205554
18935214160
18935220568
18935227343
18935233263
18935240282
18935249499
18935254992
18935263537
18935270861
18935277636
18935285448
18935291308
18935300463
18935305956
18935314440
18935320177
18935327746
18935336474
18935343126
18935349962
18935357470
18935366381
18935372484
18935379381
18935387377
18935394152
18935399889
18935408068
18935414843
18935423021
18935427416
18935436998
18935444139
18935451891
18935457750
18935465868
18935471849
18935480943
18935489549
18935497423
18935503282
18935510240
18935518907
18935524400
18935534532
18935541734
18935549059
18935557359
18935565172
18935571519
18935579210
18935587083
18935593919
18935600511
18935609361
18935618394
18935624620
18935631700
18935642320
18935648790
18935655931
18935664110
18935672044
18935680772
18935689317
18935696641
18935704332
18935712815
18935718980
18935725755
18935732591
18935739976
18935745835
18935752122
18935757493
18935765611
18935770677
18935778550
18935784776
18935790696
18935796189
18935803575
18935809373
18935817124
18935823228
18935828965
18935835496
18935841966
18935848801
18935854417
18935860459
18935866257
18935873948
18935879929
18935885545
18935893357
18935899033
18935904465
18935910874
18935916306
18935923386
18935930832
18935935166
18935942612
18935949814
18935955369
18935963059
18935968613
18935974106
18935982041
18935989426
18935995224
18936002488
18936008042
18936015671
18936021103
18936028427
18936033310
18936042465
18936047837
18936054489
18936061386
18936067734
18936073166
18936078659
18936083908
18936091293
18936096420
18936101425
18936107163
18936113876
18936119370
18936126267
18936132309
18936138596
18936144760
18936150314
18936155502
18936160202
18936165512
18936171555
18936177170
18936183212
18936189255
18936196274
18936202133
18936208786
18936214035
18936220688
18936227279
18936232651
18936240158
18936246567
18936251327
18936258896
18936263962
18936272628
18936278854
18936285629
18936291366
18936298080
18936305099
18936311752
18936317916
18936326278
18936332199
18936337570
18936342758
18936348678
18936354232
18936361679
18936368087
18936374801
18936382369
18936388473
18936395187
18936401351
18936407150
18936414840
18936421188
18936429305
18936435653
18936440353
18936446761
18936451522
18936457137
18936463912
18936468551
18936476730
18936483016
18936491866
18936498824
18936505050
18936513839
18936521407
18936529403
18936536117
18936543258
18936549239
18936556868
18936563033
18936571334
18936577559
18936583663
18936589888
18936597152
18936603499
18936608260
18936615218
18936619918
18936626998
18936632308
18936638472
18936645064
18936651107
18936656050
18936662764
18936669966
18936676680
18936682112
18936689436
18936695662
18936701033
18936707198
18936713545
18936720625
18936727156
18936734358
18936740828
18936748152
18936754622
18936761641
18936768721
18936775618
18936782698
18936789473
18936795637
18936801985
18936809675
18936815779
18936823347
18936829268
18936836958
18936841780
18936849409
18936854902
18936862349
18936867048
18936874983
18936881392
18936890181
18936894941
18936903975
18936909162
18936918196
18936923811
18936932112
18936938581
18936944929
18936951338
18936959822
18936966413
18936973371
18936980268
18936986860
18936992597
18937000166
18937008466
18937016035
18937023115
18937030439
18937036604
18937043989
18937050642
18937059187
18937066267
18937074140
18937082380
18937089765
18937094465
18937105207
18937111616
18937121137
18937127607
18937137861
18937143964
18937151105
18937160322
18937166242
18937175092
18937182660
18937190107
18937199140
18937207196
18937214215
18937220014
18937226911
18937234967
18937240705
18937249433
18937255780
18937263776
18937269818
18937277692
18937282819
18937290875
18937298200
18937307538
18937314191
18937322430
18937327802
18937337201
18937344708
18937350934
18937358563
18937365399
18937374493
18937380292
18937387616
18937396161
18937402936
18937409894
18937416791
18937427044
18937434186
18937443341
18937453900
18937460125
18937466839
18937476422
18937485394
18937491986
18937498700
18937507611
18937512371
18937520123
18937527142
18937532574
18937539166
18937545758
18937552654
18937559002
18937564861
18937569317
18937576153
18937582928
18937588848
18937595013
18937600933
18937607525
18937612652
18937618877
18937625286
18937630596
18937637737
18937642803
18937649395
18937654339
18937661297
18937669048
18937673992
18937680645
18937687603
18937694866
18937699688
18937706585
18937711101
18937717815
18937722698
18937729900
18937736553
18937742046
18937748211
18937755108
18937760540
18937767681
18937774517
18937781719
18937787639
18937792339
18937799541
18937804119
18937812969
18937819133
18937824260
18937831218
18937837932
18937843303
18937849468
18937855022
18937861125
18937868083
18937874370
18937881572
18937886272
18937892131
18937897197
18937903362
18937909465
18937915569
18937922160
18937927470
18937933025
18937939189
18937943828
18937949687
18937955547
18937961833
18937968364
18937974712
18937980571
18937986247
18937991984
18937999675
18938006450
18938011577
18938016520
18938023478
18938030620
18938034831
18938040996
18938048564
18938056620
18938061503
18938067119
18938073222
18938080607
18938085551
18938091594
18938100566
18938106425
18938111979
18938119731
18938126261
18938133708
18938139811
18938147074
18938153910
18938159953
18938166483
18938171000
18938178874
18938183573
18938191813
18938199564
18938205607
18938211466
18938217326
18938224039
18938229350
18938236063
18938241740
18938248637
18938255778
18938260722
18938267741
18938274515
18938281046
18938287577
18938294840
18938301005
18938305948
18938314982
18938320841
18938327067
18938333170
18938341410
18938346842
18938354410
18938359903
18938366617
18938372782
18938377848
18938384378
18938391275
18938397745
18938404154
18938410868
18938417765
18938424295
18938429605
18938437723
18938443521
18938452738
18938459207
18938465433
18938470865
18938476908
18938483988
18938490213
18938498575
18938505716
18938510294
18938517191
18938522867
18938529459
18938534647
18938542520
18938549600
18938554056
18938561685
18938568460
18938574625
18938579629
18938587442
18938594705
18938601602
18938608438
18938614663
18938622049
18938628213
18938634683
18938641336
18938649637
18938655923
18938663247
18938669107
18938676187
18938684365
18938690347
18938696206
18938704324
18938709695
18938715493
18938722818
18938728372
18938735879
18938742898
18938749246
18938757241
18938765725
18938770852
18938778848
18938785500
18938791665
18938798867
18938807839
18938815041
18938823830
18938830178
18938836770
18938844216
18938850503
18938856972
18938866189
18938873513
18938882241
18938889260
18938896035
18938902993
18938909279
18938915261
18938923012
18938933205
18938939858
18938947182
18938954079
18938961403
18938968239
18938975136
18938982338
18938991555
18938998391
18939007851
18939014138
18939020790
18939028237
18939035622
18939045632
18939056984
18939065468
18939074318
18939080849
18939087624
18939095009
18939101906
18939110085
18939116676
18939124794
18939133583
18939139259
18939148109
18939152992
18939162453
18939171608
18939178444
18939185646
18939194191
18939199867
18939207863
18939214271
18939220863
18939226967
18939235878
18939242714
18939248512
18939254188
18939260292
18939265907
18939272499
18939277626
18939284217
18939289955
18939294349
18939300270
18939306861
18939313026
18939318885
18939324317
18939329383
18939334571
18939341041
18939346717
18939352394
18939358192
18939364356
18939370094
18939377723
18939383216
18939387611
18939394325
18939400855
18939406410
18939411659
18939420936
18939426429
18939431495
18939437720
18939444007
18939448890
18939455238
18939461219
18939466224
18939473609
18939479957
18939484046
18939490394
18939496985
18939501319
18939507850
18939514930
18939520484
18939524817
18939532386
18939538306
18939543677
18939548987
18939554786
18939560096
18939566382
18939572120
18939578040
18939582373
18939588416
18939593177
18939599952
18939606482
18939612281
18939617285
18939623511
18939628577
18939633948
18939639624
18939645301
18939651587
18939656226
18939662329
18939667273
18939673560
18939678504
18939685278
18939691870
18939696509
18939704627
18939709082
18939715674
18939722388
18939730566
18939735937
18939744299
18939751013
18939757971
18939764197
18939771033
18939775854
18939783240
18939790442
18939796179
18939801855
18939807959
18939813757
18939819861
18939826086
18939833471
18939839209
18939845312
18939851111
18939857580
18939863745
18939870581
18939878393
18939883276
18939890539
18939896643
18939901892
18939908605
18939913855
18939919897
18939927038
18939931433
18939938085
18939943518
18939950476
18939955663
18939962438
18939969702
18939976721
18939982946
18939989721
18939995947
18940002599
18940008886
18940015539
18940021520
18940026281
18940034521
18940039709
18940045385
18940051000
18940058080
18940064062
18940070592
18940076879
18940083166
18940090307
18940095800
18940103063
18940108495
18940114965
18940122472
18940127294
18940134801
18940141149
18940147374
18940154271
18940160314
18940166539
18940174840
18940182103
18940186681
18940193883
18940200841
18940206639
18940211278
18940218053
18940225133
18940231237
18940238256
18940243138
18940250646
18940257359
18940263707
18940272557
18940279393
18940285619
18940291539
18940298375
18940304601
18940311742
18940318761
18940326024
18940331700
18940340184
18940346104
18940353184
18940359715
18940368687
18940374486
18940383031
18940390294
18940397130
18940404881
18940410924
18940416234
18940424046
18940428990
18940437352
18940444554
18940450901
18940457798
18940464146
18940470677
18940478794
18940485020
18940494053
18940501561
18940508274
18940515660
18940524266
18940529942
18940537876
18940542515
18940554112
18940570835
18940585850
18940595921
18940605930
18940615574
18940626194
18940634251
18940645054
18940654209
18940661167
18940667515
18940674473
18940679600
18940687290
18940694248
18940700962
18940708103
18940715000
18940721653
18940726108
18940733677
18940739902
18940745578
18940753452
18940761325
18940769199
18940775730
18940783603
18940790500
18940797214
18940803501
18940810337
18940816318
18940824008
18940833042
18940839694
18940847568
18940853549
18940862216
18940867954
18940877353
18940881870
18940893405
18940899448
18940908908
18940916171
18940923495
18940929660
18940939181
18940945529
18940954257
18940959628
18940967258
18940973178
18940980014
18940986972
18940992770
18940999362
18941005099
18941010348
18941018710
18941024386
18941030002
18941038363
18941045199
18941053195
18941057834
18941064853
18941071811
18941078280
18941084079
18941091525
18941097872
18941103549
18941109835
18941115451
18941122775
18941129061
18941134555
18941140109
18941146823
18941152987
18941158663
18941164706
18941171298
18941177462
18941185214
18941191622
18941197176
18941202059
18941208529
18941213900
18941219637
18941226961
18941233187
18941238741
18941244173
18941250460
18941255892
18941261019
18941268954
18941274447
18941279818
18941286104
18941291353
18941298006
18941303316
18941310885
18941317782
18941322481
18941327730
18941334749
18941340914
18941344759
18941352938
18941358004
18941363741
18941371187
18941377352
18941381990
18941387789
18941395906
18941401827
18941408296
18941414400
18941419039
18941427156
18941433992
18941442293
18941448091
18941455477
18941461946
18941468172
18941475496
18941480379
18941487825
18941494051
18941500948
18941507478
18941513948
18941519563
18941524812
18941532198
18941539094
18941543977
18941551485
18941556428
18941565523
18941570772
18941578828
18941584199
18941591890
18941598726
18941603670
18941611116
18941618379
18941624910
18941632356
18941640657
18941646272
18941652803
18941658479
18941664827
18941672517
18941680207
18941686128
18941691682
18941699556
18941705659
18941712251
18941717683
18941725068
18941730195
18941738252
18941745149
18941750459
18941757966
18941764741
18941771577
18941777863
18941785127
18941790254
18941796662
18941804169
18941810517
18941817536
18941823151
18941831513
18941839082
18941845673
18941851227
18941859406
18941865693
18941871857
18941878022
18941885102
18941891572
18941897187
18941903473
18941910309
18941917267
18941925629
18941931611
18941938813
18941944977
18941951264
18941956269
18941962738
18941971039
18941978546
18941984528
18941990876
18941996064
18942005951
18942012909
18942020905
18942028473
18942034271
18942044159
18942051239
18942056976
18942065521
18942073029
18942080170
18942086823
18942093597
18942101227
18942108673
18942116180
18942124054
18942132904
18942140411
18942146088
18942153534
18942160431
18942167084
18942175018
18942182892
18942190643
18942198028
18942204254
18942211639
18942218048
18942225677
18942233062
18942241485
18942248321
18942256012
18942262603
18942270416
18942278106
18942285797
18942292816
18942301544
18942308685
18942315887
18942322113
18942329437
18942336151
18942343353
18942351592
18942358184
18942365264
18942374297
18942380401
18942389251
18942397002
18942403228
18942411712
18942419524
18942427276
18942433379
18942441192
18942447417
18942455535
18942463592
18942469878
18942479766
18942485747
18942494170
18942502105
18942509917
18942518096
18942524810
18942532805
18942540068
18942546416
18942552092
18942560393
18942565276
18942572295
18942579802
18942589385
18942597075
18942604521
18942613127
18942622222
18942631011
18942638396
18942647307
18942656401
18942665068
18942673491
18942680693
18942688506
18942699065
18942705595
18942715544
18942723662
18942728422
18942737822
18942743864
18942751616
18942759123
18942768767
18942777861
18942787138
18942794401
18942803129
18942812163
18942818144
18942824614
18942832426
18942839079
18942847258
18942853605
18942861845
18942868620
18942878385
18942884428
18942893278
18942900907
18942909880
18942917265
18942924467
18942933866
18942939726
18942946928
18942954496
18942962675
18942969755
18942979337
18942985136
18942992582
18943002958
18943010282
18943018339
18943028165
18943037321
18943043729
18943055143
18943062101
18943069913
18943077726
18943086149
18943094632
18943101957
18943108304
18943115140
18943122831
18943130277
18943136503
18943144315
18943152311
18943159513
18943167997
18943175992
18943181790
18943189847
18943197415
18943204862
18943210721
18943218473
18943227933
18943235929
18943244657
18943252530
18943259122
18943268155
18943277676
18943284024
18943292630
18943300259
18943307523
18943314908
18943321378
18943329739
18943336514
18943344022
18943351102
18943357632
18943366055
18943374966
18943382046
18943388638
18943397549
18943403592
18943409634
18943418423
18943425320
18943433560
18943441128
18943449795
18943458523
18943464688
18943471279
18943480130
18943486660
18943494107
18943500088
18943510342
18943517910
18943526455
18943533169
18943540981
18943548367
18943556240
18943562405
18943570644
18943576016
18943585964
18943590115
18943600735
18943609158
18943615322
18943625393
18943634609
18943641994
18943649929
18943657680
18943663601
18943671902
18943677517
18943684109
18943694607
18943700344
18943708523
18943716335
18943724331
18943731594
18943737880
18943744594
18943753200
18943760341
18943768459
18943775844
18943785244
18943793849
18943800563
18943812709
18943820339
18943829128
18943838344
18943842494
18943853481
18943861781
18943868007
18943878810
18943887782
18943894923
18943902431
18943909877
18943916347
18943924892
18943933192
18943941432
18943947841
18943956996
18943965114
18943973353
18943978969
18943986598
18943993617
18943997462
18944007838
18944013942
18944021266
18944027675
18944034022
18944040309
18944045680
18944052699
18944059962
18944065943
18944072718
18944078334
18944084254
18944090052
18944096217
18944103663
18944109522
18944117518
18944125819
18944130702
18944138697
18944146632
18944153468
18944159144
18944165370
18944170557
18944179957
18944186182
18944191370
18944198817
18944205836
18944212794
18944218409
18944224696
18944231348
18944240137
18944246973
18944253748
18944260706
18944266932
18944272791
18944280482
18944285120
18944292505
18944299036
18944304407
18944311182
18944316858
18944323816
18944328394
18944335108
18944340296
18944346949
18944351160
18944356958
18944363062
18944368311
18944373560
18944379846
18944385279
18944392176
18944398035
18944404566
18944409326
18944416040
18944423425
18944428064
18944435510
18944440332
18944447473
18944454248
18944459924
18944466333
18944472437
18944477625
18944485132
18944491846
18944498865
18944503748
18944510217
18944516382
18944523462
18944528284
18944535547
18944540979
18944548120
18944555261
18944562158
18944568323
18944574914
18944580896
18944585718
18944591882
18944596765
18944604089
18944611291
18944617944
18944624597
18944631067
18944637841
18944644616
18944650232
18944657067
18944664514
18944671655
18944677819
18944683801
18944690698
18944696313
18944704064
18944710717
18944716760
18944724755
18944730676
18944738244
18944744653
18944749841
18944757043
18944762353
18944770287
18944778100
18944784753
18944790551
18944796349
18944803124
18944809289
18944815636
18944820580
18944827660
18944835412
18944840600
18944848962
18944855675
18944861962
18944867577
18944875939
18944881310
18944888146
18944892663
18944899376
18944904320
18944912133
18944919152
18944927025
18944933983
18944940148
18944947106
18944954125
18944962914
18944970604
18944976708
18944982872
18944990624
18944996605
18945003929
18945009178
18945016564
18945021813
18945030235
18945037438
18945042198
18945051109
18945057396
18945064537
18945070580
18945077599
18945083702
18945091026
18945095116
18945102745
18945107628
18945115501
18945121666
18945128197
18945135033
18945141624
18945148826
18945154808
18945161278
18945167137
18945174156
18945181053
18945186302
18945194298
18945200035
18945206138
18945211815
18945220298
18945227134
18945235191
18945240745
18945249900
18945255943
18945265770
18945272666
18945279502
18945286216
18945295310
18945301597
18945310935
18945318077
18945325035
18945332725
18945339378
18945345664
18945352622
18945361045
18945368736
18945375388
18945383079
18945389487
18945396506
18945400169
18945412131
18945420432
18945427940
18945433127
18945442039
18945447288
18945454612
18945461997
18945470786
18945478660
18945486533
18945490622
18945499961
18945505942
18945513572
18945519797
18945529319
18945537009
18945545432
18945552207
18945559043
18945568198
18945572959
18945581137
18945588523
18945596762
18945605796
18945613852
18945619406
18945627341
18945635275
18945643515
18945650412
18945659567
18945669150
18945675192
18945682089
18945689658
18945695883
18945705099
18945712180
18945718649
18945729147
18945735007
18945742148
18945750448
18945758261
18945764487
18945772665
18945779318
18945786581
18945793356
18945800741
18945805258
18945812155
18945817831
18945823690
18945830099
18945836447
18945842245
18945847921
18945853781
18945859457
18945865316
18945870748
18945876791
18945881979
18945889608
18945895651
18945901754
18945908468
18945915975
18945920980
18945927633
18945934286
18945939352
18945944906
18945951986
18945957967
18945965597
18945972128
18945977071
18945983663
18945990072
18945995870
18946001669
18946007467
18946012899
18946018392
18946023763
18946031026
18946036642
18946041952
18946048543
18946053853
18946058675
18946066610
18946072286
18946079183
18946083883
18946090413
18946096944
18946101095
18946106710
18946113607
18946119466
18946125936
18946131978
18946136495
18946143453
18946149251
18946154744
18946160115
18946167684
18946173299
18946180196
18946186605
18946191243
18946197835
18946205770
18946212056
18946216756
18946223653
18946229268
18946234334
18946240621
18946245809
18946251912
18946256978
18946262532
18946269734
18946275227
18946282491
18946287801
18946294820
18946300008
18946307210
18946312581
18946320393
18946327534
18946333089
18946340962
18946347432
18946354573
18946359456
18946366231
18946373494
18946379780
18946385151
18946393574
18946400166
18946407124
18946412800
18946421345
18946427632
18946434529
18946440998
18946447834
18946454487
18946461384
18946468464
18946473774
18946479084
18946486592
18946492329
18946498249
18946503926
18946510822
18946516926
18946522480
18946528828
18946534443
18946540241
18946547749
18946555012
18946560444
18946566853
18946575275
18946582905
18946589008
18946594990
18946600727
18946607563
18946614704
18946621479
18946626606
18946634662
18946641926
18946649006
18946656330
18946662067
18946667438
18946674030
18946681232
18946686969
18946693134
18946701435
18946706440
18946713886
18946718525
18946725666
18946731464
18946738483
18946743000
18946751117
18946757953
18946765033
18946771503
18946776874
18946783710
18946791339
18946796527
18946805194
18946811786
18946818561
18946825397
18946830768
18946837360
18946844440
18946851459
18946855731
18946863361
18946870441
18946875812
18946883319
18946890826
18946897601
18946904987
18946911029
18946918597
18946925433
18946932086
18946937274
18946944537
18946951617
18946958514
18946966754
18946974872
18946980914
18946989398
18946995501
18947002032
18947011676
18947017962
18947027972
18947034320
18947044268
18947053241
18947059893
18947066546
18947074969
18947079974
18947089129
18947095172
18947104571
18947110186
18947119708
18947126483
18947133013
18947140276
18947149004
18947154192
18947162737
18947168169
18947177447
18947182574
18947192339
18947196978
18947206194
18947212908
18947220415
18947226824
18947234148
18947240435
18947248614
18947257219
18947265825
18947273089
18947280962
18947287432
18947294756
18947300982
18947308245
18947314592
18947323870
18947332781
18947339006
18947347124
18947355791
18947364092
18947371782
18947378069
18947386431
18947393694
18947401995
18947407732
18947416277
18947421953
18947427812
18947436723
18947443376
18947453264
18947459612
18947466936
18947474626
18947482317
18947490678
18947497514
18947504106
18947512285
18947520586
18947527177
18947533281
18947539567
18947544816
18947552324
18947558793
18947564531
18947570878
18947576677
18947582353
18947590410
18947596818
18947602800
18947609208
18947616716
18947621171
18947628190
18947633683
18947640336
18947644426
18947651139
18947656755
18947663774
18947670060
18947676530
18947682694
18947687821
18947695146
18947700456
18947707536
18947715836
18947722489
18947728410
18947734757
18947741471
18947748124
18947754655
18947761308
18947768021
18947775956
18947782487
18947788651
18947795670
18947801102
18947806840
18947813065
18947817094
18947823502
18947828629
18947835038
18947839860
18947845902
18947851578
18947859025
18947864579
18947870438
18947877030
18947882889
18947889420
18947895524
18947901932
18947908280
18947914139
18947920731
18947927140
18947934891
18947940689
18947945938
18947954178
18947960343
18947967362
18947973404
18947981644
18947988724
18947995682
18948001358
18948007706
18948014237
18948020462
18948028702
18948035843
18948042313
18948048294
18948055191
18948062943
18948069107
18948076797
18948085159
18948090713
18948097855
18948104324
18948108902
18948116836
18948124893
18948130874
18948138260
18948145096
18948150955
18948155594
18948162552
18948171219
18948178543
18948184402
18948191177
18948198013
18948205337
18948212356
18948219925
18948227798
18948232498
18948239334
18948245742
18948254104
18948260574
18948265701
18948274246
18948280166
18948287246
18948295791
18948302200
18948310073
18948316055
18948324416
18948330886
18948337844
18948344070
18948350417
18948356887
18948363723
18948370376
18948377334
18948382156
18948389480
18948397292
18948403457
18948411513
18948417251
18948423720
18948429519
18948438003
18948441421
18948450637
18948455825
18948463576
18948470229
18948475356
18948482558
18948489821
18948497939
18948505263
18948510024
18948516677
18948524611
18948530715
18948537307
18948544326
18948551161
18948557204
18948564284
18948570449
18948576857
18948585951
18948595229
18948603224
18948610732
18948617201
18948625685
18948631972
18948639784
18948645216
18948654494
18948661330
18948668105
18948674391
18948680556
18948689894
18948695143
18948705458
18948713698
18948720473
18948728407
18948736403
18948744520
18948750868
18948759718
18948763868
18948776442
18948784315
18948792006
18948800856
18948809767
18948816298
18948826490
18948835279
18948842054
18948852125
18948860182
18948868299
18948876234
18948885877
18948893507
18948901197
18948908766
18948916273
18948923963
18948930067
18948937269
18948946729
18948955579
18948962904
18948970289
18948978223
18948986036
18948994215
18949001478
18949009717
18949018079
18949023450
18949032484
18949040784
18949048597
18949056226
18949065748
18949073316
18949080884
18949087415
18949094190
18949102308
18949108960
18949115186
18949124829
18949132520
18949140638
18949148206
18949156079
18949162732
18949171216
18949179334
18949187329
18949192517
18949199658
18949207288
18949214368
18949221753
18949229199
18949235791
18949240674
18949247205
18949253125
18949259839
18949266858
18949273511
18949280286
18949285901
18949292676
18949297559
18949306531
18949313611
18949318982
18949325757
18949331860
18949338513
18949345532
18949352368
18949360058
18949366772
18949372876
18949378430
18949384778
18949392102
18949397717
18949403698
18949409680
18949417065
18949422192
18949428540
18949435864
18949442395
18949448742
18949456799
18949463208
18949469860
18949475109
18949480358
18949486035
18949493481
18949498486
18949504894
18949511059
18949516491
18949522106
18949527477
18949533947
18949539379
18949545544
18949552380
18949557934
18949567089
18949572948
18949578014
18949586681
18949592113
18949599377
18949606213
18949612560
18949618236
18949625194
18949632519
18949638439
18949643444
18949648693
18949654918
18949661327
18949668041
18949673595
18949679149
18949686412
18949691600
18949698314
18949703319
18949711010
18949718029
18949725292
18949731151
18949738231
18949744640
18949751964
18949760387
18949767284
18949773570
18949779613
18949785594
18949791637
18949799388
18949807567
18949814708
18949821971
18949827953
18949834483
18949841197
18949848094
18949855113
18949861278
18949866039
18949873180
18949879649
18949886241
18949891795
18949898814
18949906077
18949912242
18949919932
18949926097
18949933543
18949938975
18949946544
18949953563
18949961009
18949968272
18949975169
18949980479
18949988475
18949996287
18950003489
18950010081
18950015940
18950022288
18950029063
18950035960
18950041453
18950048533
18950055552
18950062876
18950068980
18950074595
18950082530
18950089121
18950095896
18950100901
18950109507
18950115550
18950121592
18950129282
18950134226
18950141550
18950149424
18950156138
18950162730
18950168955
18950177134
18950182078
18950189158
18950196726
18950204111
18950210276
18950217051
18950222666
18950229624
18950237436
18950244272
18950251597
18950258310
18950265818
18950273020
18950281015
18950288462
18950294443
18950301767
18950309214
18950315622
18950322885
18950329172
18950335642
18950343393
18950349131
18950355600
18950364389
18950369760
18950379221
18950387522
18950395029
18950403085
18950409006
18950416452
18950423044
18950433054
18950440012
18950448068
18950455087
18950460703
18950468332
18950477365
18950485117
18950491647
18950498666
18950506174
18950514902
18950520822
18950529001
18950536447
18950543161
18950550485
18950556161
18950562448
18950569284
18950578195
18950587960
18950593637
18950600900
18950607736
18950617196
18950623971
18950631478
18950638131
18950644357
18950652291
18950667611
18950677316
18950686715
18950695748
18950705697
18950717599
18950729134
18950738839
18950748910
18950760262
18950771371
18950782906
18950792611
18950803414
18950812142
18950821602
18950833870
18950845284
18950855233
18950867989
18950877327
18950887459
18950896920
18950906990
18950916451
18950926705
18950936776
18950946297
18950956185
18950965706
18950975472
18950985420
18950994087
18951004707
18951015083
18951024849
18951035164
18951044746
18951051521
18951063545
18951073250
18951080391
18951092476
18951097175
18951110420
18951119942
18951130134
18951139961
18951150032
18951161262
18951170662
18951180671
18951190925
18951199958
18951208503
18951218818
18951229621
18951237617
18951247993
18951255989
18951266365
18951277290
18951288398
18951298286
18951306770
18951317207
18951329231
18951337165
18951348518
18951358955
18951369331
18951378730
18951388435
18951396979
18951405952
18951416999
18951428290
18951438300
18951448981
18951456916
18951465583
18951476386
18951490668
18951506476
18951521430
18951535712
18951551947
18951571845
18951590949
18951613410
18951632452
18951653143
18951666266
18951675787
18951685736
18951697699
18951711737
18951727423
18951743353
18951758001
18951773809
18951784185
18951794683
18951804876
18951812750
18951823004
18951833197
18951843573
18951852850
18951865118
18951877264
18951885626
18951894903
18951903753
18951914190
18951923834
18951934637
18951943365
18951953985
18951963872
18951973272
18951983404
18951993474
18952002752
18952013738
18952023931
18952032720
18952041326
18952049627
18952061162
18952070379
18952080877
18952089727
18952097661
18952107427
18952118413
18952125127
18952138799
18952147527
18952156987
18952165959
18952176030
18952185124
18952194585
18952203923
18952213933
18952225285
18952232549
18952243779
18952251653
18952260869
18952271672
18952279912
18952289860
18952300603
18952308537
18952319523
18952329045
18952337529
18952348088
18952358952
18952368412
18952377812
18952386723
18952396794
18952405766
18952415165
18952426701
18952434025
18952445194
18952452641
18952462895
18952470219
18952475956
18952482670
18952488590
18952495976
18952503544
18952508366
18952515385
18952522404
18952528507
18952534794
18952540165
18952547550
18952554874
18952561283
18952566105
18952574894
18952580997
18952587162
18952593693
18952601261
18952605961
18952613346
18952618778
18952624943
18952630985
18952639530
18952646427
18952652164
18952658634
18952665836
18952670719
18952677799
18952684024
18952692386
18952698917
18952705326
18952711063
18952717411
18952723026
18952729373
18952735416
18952742130
18952748172
18952755374
18952760684
18952765689
18952772952
18952779483
18952785159
18952791141
18952798465
18952803958
18952810672
18952817142
18952823123
18952827457
18952835574
18952843021
18952848148
18952857913
18952863895
18952873477
18952879764
18952887454
18952897342
18952902896
18952908267
18952917727
18952923648
18952932559
18952937991
18952945926
18952955752
18952963443
18952969058
18952977481
18952983035
18952989810
18952997744
18953005496
18953013919
18953020999
18953026553
18953033999
18953041140
18953049014
18953054873
18953063906
18953070376
18953076846
18953085635
18953091677
18953099856
18953106875
18953114748
18953120242
18953129763
18953136111
18953143740
18953148623
18953155398
18953161562
18953168703
18953175722
18953182253
18953189577
18953193972
18953200808
18953205446
18953212221
18953216982
18953222780
18953229250
18953236208
18953241091
18953251040
18953257998
18953263002
18953271181
18953276491
18953283999
18953290163
18953295900
18953302980
18953310732
18953316225
18953324404
18953330080
18953337221
18953343263
18953349428
18953354189
18953361025
18953367800
18953375124
18953380983
18953387819
18953393190
18953398683
18953403810
18953408937
18953416628
18953422670
18953428896
18953433473
18953440004
18953447023
18953450990
18953457460
18953465456
18953471132
18953476198
18953482789
18953487367
18953494325
18953500612
18953506837
18953512575
18953518434
18953524660
18953530214
18953535341
18953541017
18953547120
18953552919
18953559694
18953565187
18953571290
18953576967
18953582460
18953588319
18953594911
18953600465
18953606691
18953611879
18953617799
18953623353
18953629701
18953636293
18953643617
18953651002
18953656129
18953662843
18953667909
18953674561
18953680726
18953687928
18953694337
18953701295
18953707520
18953712403
18953719788
18953724610
18953731934
18953739808
18953745850
18953751221
18953758546
18953764100
18953771363
18953777222
18953783326
18953790772
18953796265
18953802186
18953808900
18953813355
18953820130
18953826294
18953834656
18953841675
18953846131
18953853516
18953858277
18953866089
18953873230
18953879578
18953886963
18953893494
18953899109
18953906800
18953911866
18953919678
18953926697
18953932862
18953940308
18953947205
18953953064
18953959046
18953964844
18953970886
18953976685
18953985047
18953991211
18953996216
18954005249
18954011414
18954017700
18954024170
18954030579
18954037720
18954043213
18954049866
18954055237
18954061768
18954068481
18954074158
18954080566
18954086670
18954093994
18954101074
18954106079
18954114075
18954119140
18954126587
18954134338
18954140320
18954146423
18954152282
18954158996
18954164917
18954170532
18954178711
18954184265
18954193054
18954200012
18954206298
18954214355
18954220581
18954227294
18954236328
18954241882
18954249999
18954255676
18954263671
18954269836
18954277404
18954283447
18954291808
18954301635
18954307739
18954314025
18954319091
18954326537
18954331359
18954340636
18954348205
18954354919
18954360717
18954367187
18954373900
18954380920
18954388122
18954395812
18954404784
18954412414
18954416137
18954425536
18954431029
18954439269
18954444762
18954454100
18954461669
18954470763
18954479857
18954485350
18954493773
18954502074
18954507994
18954514708
18954524596
18954531005
18954540770
18954548400
18954555358
18954561217
18954571288
18954578673
18954587279
18954595213
18954603392
18954610228
18954617125
18954623534
18954632811
18954639647
18954647337
18954654051
18954663695
18954669127
18954677855
18954683409
18954690306
18954697508
18954705198
18954714537
18954721922
18954728880
18954736448
18954742552
18954753599
18954760679
18954768065
18954775206
18954782591
18954789183
18954797728
18954804014
18954811216
18954818540
18954826353
18954834959
18954842588
18954846495
18954854978
18954863096
18954868528
18954876219
18954883299
18954892454
18954898740
18954904844
18954910947
18954917661
18954923704
18954929929
18954935972
18954941404
18954948667
18954954465
18954960874
18954965696
18954971982
18954976926
18954984495
18954989866
18954996763
18955003110
18955007993
18955015134
18955019834
18955027158
18955032651
18955041745
18955047178
18955052976
18955058591
18955065915
18955070676
18955078916
18955085996
18955091428
18955097165
18955103574
18955108579
18955114865
18955120359
18955128598
18955135190
18955141904
18955147458
18955151914
18955158261
18955164975
18955171689
18955177609
18955183835
18955188229
18955195065
18955201413
18955207517
18955213071
18955218869
18955226437
18955230710
18955237607
18955244504
18955249448
18955254636
18955260678
18955267636
18955272275
18955279355
18955284665
18955289792
18955295407
18955300778
18955307736
18955312985
18955319882
18955325253
18955331112
18955337338
18955342587
18955348996
18955355343
18955360409
18955367855
18955375180
18955381100
18955387204
18955391781
18955399350
18955405453
18955410824
18955416867
18955423519
18955430233
18955435665
18955444515
18955450924
18955456783
18955462216
18955468197
18955473690
18955481075
18955485592
18955493954
18955499874
18955505489
18955510738
18955517880
18955525143
18955530209
18955536373
18955544064
18955550228
18955554989
18955561336
18955567989
18955574093
18955578976
18955586178
18955591976
18955598018
18955603145
18955610103
18955617672
18955624019
18955630794
18955639705
18955644344
18955652218
18955658687
18955664730
18955670894
18955677852
18955682491
18955689632
18955697322
18955703121
18955711605
18955714962
18955722652
18955728267
18955734615
18955742183
18955748470
18955755062
18955761287
18955766475
18955772456
18955778011
18955787715
18955794124
18955800472
18955807491
18955815303
18955820613
18955828365
18955835384
18955841670
18955848811
18955853999
18955862849
18955870479
18955877498
18955883906
18955890620
18955896968
18955903377
18955909602
18955915950
18955923335
18955930171
18955936580
18955945308
18955951655
18955957759
18955963801
18955969722
18955977229
18955983454
18955989253
18955997493
18956003352
18956011164
18956016413
18956023860
18956029109
18956036738
18956042597
18956051142
18956056941
18956063899
18956070185
18956079340
18956084773
18956091853
18956099055
18956105708
18956111811
18956120234
18956125239
18956134455
18956141474
18956149653
18956157282
18956166804
18956175043
18956183771
18956188227
18956198542
18956205500
18956215082
18956221857
18956229303
18956239557
18956247858
18956253840
18956262629
18956270990
18956276239
18956284906
18956293085
18956299738
18956307978
18956315058
18956320856
18956328852
18956335016
18956343744
18956350580
18956359857
18956366083
18956374628
18956381220
18956389215
18956395013
18956401239
18956409174
18956416254
18956423151
18956431512
18956438470
18956444757
18956451654
18956458185
18956466913
18956474054
18956481622
18956489252
18956495904
18956505304
18956510553
18956520501
18956529352
18956538202
18956547723
18956555841
18956563226
18956569818
18956578118
18956584832
18956590692
18956597772
18956606439
18956612420
18956619256
18956624566
18956631036
18956637994
18956642388
18956651910
18956657586
18956661859
18956668328
18956675347
18956680779
18956688409
18956696587
18956702447
18956709832
18956716180
18956721917
18956727837
18956732354
18956739251
18956747796
18956753777
18956760247
18956766472
18956773003
18956778741
18956784661
18956790948
18956797051
18956804314
18956809563
18956815911
18956820855
18956827324
18956832573
18956839714
18956846245
18956852471
18956859002
18956864128
18956870415
18956875298
18956880730
18956888481
18956893975
18956898735
18956905449
18956911675
18956917473
18956922051
18956928581
18956934929
18956939446
18956946648
18956951775
18956957024
18956963066
18956969048
18956976067
18956982231
18956986626
18956992973
18956997795
18957003716
18957009514
18957016594
18957021904
18957027580
18957032707
18957038628
18957045647
18957051262
18957058586
18957064262
18957070854
18957077385
18957083244
18957088737
18957095695
18957101860
18957109184
18957115410
18957121513
18957128532
18957134636
18957140129
18957148185
18957155388
18957163017
18957169670
18957175468
18957182182
18957187980
18957194267
18957200370
18957208427
18957214225
18957221916
18957227104
18957233695
18957238944
18957244743
18957251701
18957257377
18957264762
18957271476
18957276359
18957284416
18957291129
18957297172
18957304984
18957311088
18957317252
18957322807
18957328422
18957335502
18957340324
18957347953
18957354240
18957361564
18957367240
18957374442
18957379935
18957386893
18957393424
18957400687
18957406791
18957413688
18957419547
18957424125
18957432975
18957438346
18957444510
18957452628
18957458365
18957463858
18957471061
18957477652
18957483023
18957489676
18957495902
18957503714
18957510367
18957516715
18957521659
18957528250
18957534293
18957540030
18957549063
18957556571
18957562613
18957570426
18957577506
18957583609
18957590262
18957598563
18957605887
18957612662
18957619925
18957624869
18957631277
18957637320
18957643484
18957652029
18957658072
18957663931
18957669546
18957675589
18957681387
18957686331
18957693838
18957700613
18957706411
18957713064
18957720755
18957727041
18957734976
18957740286
18957749258
18957756765
18957765005
18957771902
18957777395
18957785635
18957792654
18957797903
18957805838
18957812857
18957820974
18957827688
18957833059
18957840261
18957847952
18957854421
18957863455
18957870046
18957876333
18957882620
18957890005
18957896230
18957901907
18957908987
18957917409
18957924551
18957930471
18957938711
18957945119
18957954153
18957960073
18957967458
18957975942
18957982534
18957989065
18957996267
18958002248
18958010976
18958016530
18958026052
18958033620
18958040761
18958049001
18958055715
18958060781
18958069509
18958075124
18958082204
18958089894
18958097341
18958104909
18958112233
18958119069
18958126332
18958132863
18958140126
18958148427
18958156423
18958164540
18958171376
18958177419
18958184621
18958190053
18958199025
18958207387
18958214528
18958222340
18958229909
18958236317
18958244191
18958250600
18958259267
18958270375
18958276784
18958282643
18958291859
18958299367
18958306935
18958312367
18958320668
18958326466
18958333424
18958339650
18958345936
18958352467
18958358021
18958362660
18958369191
18958377308
18958383290
18958388661
18958395497
18958400746
18958407582
18958413014
18958418324
18958424854
18958432240
18958438587
18958445728
18958452442
18958458973
18958465870
18958471241
18958478565
18958485584
18958491688
18958497913
18958503956
18958510303
18958517506
18958523670
18958530628
18958535511
18958542042
18958547962
18958554066
18958560901
18958567615
18958573475
18958580066
18958585560
18958591053
18958596607
18958602955
18958610950
18958616932
18958623401
18958628223
18958634937
18958640857
18958645069
18958652088
18958658557
18958665271
18958670459
18958675952
18958681446
18958687732
18958692798
18958700061
18958706470
18958710987
18958718189
18958723865
18958728992
18958734973
18958741138
18958748218
18958753162
18958758533
18958764697
18958770313
18958776660
18958782947
18958789356
18958796436
18958802722
18958808032
18958812976
18958819751
18958825793
18958831409
18958837573
18958845080
18958850207
18958856860
18958864062
18958870166
18958876330
18958883471
18958889636
18958896045
18958901904
18958908313
18958914111
18958920642
18958927295
18958933581
18958941394
18958946887
18958953540
18958959521
18958966662
18958972705
18958979968
18958986438
18958991259
18958998522
18959003161
18959011035
18959019457
18959026538
18959034899
18959042956
18959049670
18959056750
18959062304
18959069262
18959076098
18959081469
18959089648
18959094286
18959102038
18959106982
18959114977
18959120348
18959126513
18959134447
18959142077
18959147570
18959153429
18959160082
18959166979
18959172533
18959179918
18959185961
18959193041
18959198656
18959205370
18959212145
18959216784
18959223925
18959229174
18959237291
18959242052
18959250536
18959256884
18959264208
18959268358
18959275743
18959281786
18959289293
18959294847
18959301683
18959307726
18959314806
18959321398
18959326891
18959334032
18959341600
18959347887
18959351244
18959360643
18959366258
18959373277
18959380602
18959387193
18959392870
18959399278
18959406969
18959412096
18959419542
18959426683
18959432603
18959439378
18959445238
18959452012
18959457933
18959464586
18959472215
18959479722
18959486558
18959493455
18959499254
18959506273
18959514024
18959521653
18959528367
18959536119
18959543931
18959551866
18959558030
18959565599
18959571397
18959579759
18959586045
18959593309
18959601243
18959610093
18959616441
18959622361
18959630906
18959637986
18959645127
18959652207
18959659531
18959666184
18959674424
18959683274
18959690720
18959697678
18959705186
18959711411
18959721177
18959728013
18959737412
18959745103
18959752854
18959759812
18959767136
18959773850
18959781846
18959789780
18959797776
18959805466
18959811081
18959818772
18959826706
18959830857
18959839951
18959846115
18959854355
18959860703
18959869370
18959875901
18959884384
18959890305
18959896408
18959906601
18959915451
18959921372
18959927475
18959935715
18959941696
18959951462
18959959030
18959966599
18959974228
18959983017
18959989731
18959997421
18960005722
18960012924
18960020004
18960028549
18960036056
18960043503
18960050033
18960057358
18960063156
18960069320
18960075363
18960081405
18960086349
18960093063
18960099777
18960106125
18960111984
18960119491
18960124435
18960132309
18960137191
18960144943
18960149582
18960157394
18960163314
18960169113
18960175094
18960182418
18960189865
18960194564
18960203048
18960207687
18960214401
18960220443
18960226547
18960231735
18960237594
18960243514
18960249496
18960256027
18960262130
18960267684
18960274276
18960280685
18960286971
18960292525
18960300643
18960305892
18960312118
18960318771
18960324386
18960330489
18960335799
18960341720
18960348495
18960354659
18960360457
18960367415
18960375167
18960381515
18960386519
18960393233
18960397384
18960403792
18960408187
18960415511
18960421981
18960427230
18960432723
18960439803
18960445662
18960451094
18960456160
18960462935
18960467696
18960473860
18960478560
18960485274
18960490340
18960497420
18960503523
18960508284
18960514937
18960519576
18960527876
18960531050
18960538924
18960543379
18960551619
18960558821
18960564253
18960570540
18960576765
18960583907
18960591658
18960598067
18960604170
18960614119
18960620650
18960626753
18960633467
18960639632
18960645369
18960651961
18960658308
18960664290
18960671004
18960676436
18960682478
18960687971
18960694868
18960702131
18960707380
18960715132
18960721235
18960728865
18960734602
18960742109
18960748518
18960754927
18960760969
18960765913
18960772993
18960779890
18960786238
18960791487
18960799177
18960805708
18960812116
18960818830
18960825300
18960832319
18960838850
18960844282
18960851179
18960859113
18960865766
18960870649
18960876569
18960883344
18960889326
18960894819
18960902753
18960908979
18960914960
18960922712
18960928693
18960934980
18960942365
18960946882
18960953901
18960962140
18960966962
18960973676
18960981183
18960988508
18960994306
18961000593
18961009259
18961015241
18961022504
18961027753
18961033124
18961040387
18961045758
18961053632
18961060956
18961066022
18961073346
18961079572
18961085370
18961089948
18961098432
18961105634
18961112103
18961115216
18961124799
18961132306
18961138532
18961144757
18961152020
18961160870
18961166974
18961175031
18961181195
18961188275
18961194562
18961202008
18961208661
18961216046
18961223981
18961230206
18961237775
18961244671
18961249615
18961256146
18961264325
18961272320
18961277813
18961283856
18961290631
18961300091
18961308331
18961313153
18961322247
18961328106
18961336285
18961341717
18961350567
18961356366
18961363324
18961371502
18961380474
18961386700
18961394085
18961402203
18961409283
18961416607
18961423260
18961429424
18961437664
18961446087
18961454144
18961461224
18961468609
18961475079
18961482159
18961489056
18961496868
18961500835
18961509563
18961515789
18961522625
18961529705
18961539165
18961544964
18961552227
18961560345
18961567547
18961576519
18961582988
18961590557
18961596416
18961606243
18961611492
18961622722
18961630046
18961637493
18961644878
18961653423
18961659526
18961667705
18961675457
18961684856
18961689800
18961699626
18961706218
18961714885
18961725200
18961733562
18961739604
18961746135
18961754741
18961763164
18961768596
18961776103
18961784343
18961789287
18961796916
18961802287
18961809856
18961816142
18961823588
18961828776
18961834819
18961840983
18961847331
18961852885
18961860332
18961866496
18961873637
18961879191
18961886271
18961891276
18961897197
18961904216
18961910746
18961918437
18961924784
18961931315
18961938334
18961946330
18961951701
18961960185
18961965983
18961972087
18961977824
18961985270
18961991618
18961999430
18962006266
18962012370
18962019389
18962024333
18962031352
18962037821
18962045573
18962050639
18962058329
18962065104
18962072184
18962079264
18962084696
18962090189
18962096232
18962102518
18962107401
18962114725
18962120096
18962127177
18962132242
18962137797
18962144083
18962151041
18962156290
18962161783
18962167338
18962174051
18962180277
18962186503
18962190653
18962196879
18962202555
18962209452
18962215799
18962221720
18962228617
18962234720
18962239786
18962247599
18962253946
18962260050
18962267191
18962274149
18962278787
18962286600
18962292520
18962299173
18962305155
18962311685
18962318826
18962323831
18962331094
18962339151
18962345865
18962352274
18962356180
18962363870
18962370889
18962377542
18962384012
18962391946
18962398172
18962405069
18962411233
18962416177
18962424600
18962431680
18962438028
18962443582
18962449869
18962456094
18962464273
18962469949
18962477334
18962484475
18962492166
18962499429
18962505410
18962511819
18962517556
18962523721
18962530130
18962536172
18962542764
18962549050
18962553872
18962559793
18962566445
18962572488
18962577493
18962583413
18962591409
18962598245
18962605752
18962612283
18962618936
18962626809
18962631692
18962639077
18962644265
18962651345
18962657937
18962662942
18962668740
18962675820
18962681069
18962688149
18962694314
18962700173
18962705849
18962713113
18962718239
18962726357
18962732705
18962739358
18962744179
18962751259
18962757241
18962762856
18962768715
18962774209
18962780251
18962785012
18962793007
18962800271
18962807167
18962814125
18962821022
18962828286
18962834694
18962841896
18962848732
18962856423
18962863442
18962870461
18962876381
18962882790
18962889199
18962896218
18962905617
18962914162
18962920693
18962930031
18962935829
18962943337
18962950600
18962959267
18962965920
18962972878
18962979225
18962987892
18962995705
18963001198
18963010902
18963017921
18963024391
18963031288
18963037453
18963044838
18963051430
18963058571
18963067726
18963073707
18963081398
18963086097
18963093910
18963101234
18963106544
18963116371
18963123024
18963132179
18963139259
18963146339
18963153907
18963162696
18963169227
18963179298
18963186195
18963193946
18963202064
18963211402
18963217567
18963226600
18963233680
18963241004
18963249000
18963256995
18963265418
18963272742
18963281348
18963287269
18963295020
18963302344
18963309363
18963316627
18963324683
18963331580
18963340308
18963347144
18963352637
18963362281
18963369239
18963376380
18963383338
18963394141
18963399085
18963408179
18963414344
18963423438
18963431250
18963438514
18963446387
18963453833
18963462012
18963470252
18963478614
18963487097
18963492652
18963501502
18963508154
18963514563
18963520484
18963528662
18963534766
18963540686
18963548865
18963555701
18963561682
18963568640
18963573889
18963579626
18963589270
18963595801
18963603247
18963609778
18963616308
18963622351
18963628027
18963636145
18963642492
18963648779
18963656653
18963661780
18963667639
