19142741338
19142747747
19142755498
19142761785
19142770818
19142775457
19142783269
19142789495
19142796270
19142803289
19142841985
19142851873
19142860295
19142866643
19142874089
19142881658
19142888310
19142894292
19142903203
19142911870
19142919377
19142926518
19142934148
19142941411
19142947636
19142954900
19142963200
19142969609
19142976384
19142984196
19142990666
19142998906
19143006901
19143013249
19143019047
19143028386
19143035466
19143043339
19143051152
19143057255
19143063908
19143074040
19143082158
19143090031
19143101017
19143110783
19143120610
19143128605
19143136357
19143146611
19143153569
19143160649
19143169377
19143177922
19143184819
19143192570
19143199528
19143207401
19143214665
19143222660
19143227970
19143236454
19143243595
19143250248
19143257389
19143265934
19143275150
19143280643
19143289616
19143295170
19143303898
19143309574
19143318546
19143324955
19143333195
19143339359
19143343937
19143354557
19143361454
19143367679
19143375004
19143383426
19143390690
19143396915
19143406192
19143412967
19143420475
19143426761
19143434940
19143441410
19143450748
19143457096
19143465396
19143472904
19143480899
19143488101
19143495181
19143503055
19143509769
19143516239
19143523868
19143530216
19143537845
19143544559
19143550845
19143558597
19143566837
19143573428
19143579532
19143586063
19143593448
19143600040
19143612552
19143620547
19143630923
19143636478
19143647403
19143655887
19143665286
19143672671
19143681582
19143688418
19143697513
19143704593
19143713626
19143722476
19143729129
19143738345
19143744693
19143751834
19143760684
19143768313
19143777346
19143785342
19143794985
19143803774
19143817935
19143826846
19143834597
19143846987
19143854495
19143864382
19143871890
19143882388
19143892947
19143902834
19143915346
19143926272
19143936831
19143943911
19143950869
19143957888
19143965761
19143973574
19143981691
19143987551
19143997072
19144004152
19144013979
19144022402
19144030031
19144037538
19144045473
19144053530
19144062014
19144070192
19144078615
19144086550
19144095827
19144102724
19144109133
19144117983
19144124941
19144132753
19144140505
19144149599
19144156984
19144164186
19144171754
19144179811
19144187440
19144195985
19144203615
19144211305
19144218935
19144227357
19144235475
19144243959
19144251527
19144260316
19144265382
19144275209
19144282838
19144289064
19144297853
19144304139
19144311830
19144321412
19144329103
19144335817
19144343568
19144349122
19144359742
19144368226
19144375428
19144384095
19144392457
19144398744
19144404847
19144413697
19144420716
19144428407
19144439820
19144449342
19144454896
19144463868
19144472474
19144478944
19144487672
19144496339
19144505555
19144512818
19144520264
19144527772
19144536194
19144544922
19144554078
19144568970
19144579346
19144585633
19144595215
19144601990
19144610169
19144619080
19144627259
19144634705
19144642212
19144649048
19144656433
19144663330
19144672608
19144679322
19144686707
19144693726
19144701050
19144707825
19144715088
19144721680
19144731629
19144736450
19144746704
19144755371
19144761902
19144770569
19144777832
19144785217
19144794189
19144800232
19144809021
19144814941
19144823913
19144830627
19144837768
19144846618
19144852478
19144860412
19144867798
19144877807
19144885498
19144893188
19144900085
19144905639
19144913940
19144921020
19144928405
19144936889
19144943847
19144951660
19144958801
19144967895
19144976257
19144984008
19144991455
19144998962
19145006225
19145013976
19145022094
19145030029
19145036437
19145044555
19145050536
19145059142
19145067138
19145075072
19145085326
19145091918
19145101501
19145108703
19145118468
19145127929
19145135985
19145145629
19145153319
19145158446
19145167296
19145175170
19145182860
19145192504
19145198424
19145207335
19145214171
19145222838
19145229186
19145237792
19145245787
19145260497
19145269957
19145279418
19145286559
19145297118
19145307372
19145316710
19145327391
19145335509
19145343321
19145350584
19145357970
19145364928
19145372435
19145379271
19145384764
19145390440
19145398070
19145406370
19145412596
19145418822
19145425230
19145431456
19145437742
19145444395
19145450987
19145455992
19145465574
19145471373
19145478026
19145483702
19145490416
19145499144
19145505003
19145513243
19145519957
19145526426
19145533140
19145538023
19145545957
19145554441
19145560789
19145569334
19145577085
19145584654
19145590879
19145599485
19145606199
19145613584
19145621031
19145627622
19145634763
19145642820
19145649900
19145654966
19145661863
19145668516
19145675474
19145682615
19145690733
19145695737
19145701902
19145708066
19145714475
19145723752
19145731443
19145737180
19145742734
19145750242
19145758176
19145763852
19145772580
19145778745
19145787290
19145794736
19145801755
19145807615
19145815610
19145821592
19145828427
19145834714
19145842832
19145850095
19145856137
19145863950
19145870542
19145876706
19145884519
19145893002
19145898190
19145906003
19145913693
19145919736
19145927548
19145940976
19145947873
19145961057
19145973874
19145984067
19145993649
19146000485
19146008725
19146015683
19146022397
19146028622
19146035092
19146040097
19146045712
19146052914
19146059384
19146066891
19146075375
19146081662
19146088803
19146097470
19146102475
19146111081
19146116207
19146124874
19146131161
19146139889
19146147213
19146154537
19146160824
19146168026
19146175045
19146183224
19146189327
19146195004
19146203976
19146211605
19146217465
19146222958
19146232174
19146237728
19146245235
19146250973
19146258541
19146266232
19146272701
19146279842
19146286800
19146294369
19146301754
19146310543
19146317013
19146323971
19146330807
19146338314
19146344356
19146355037
19146360897
19146371395
19146377498
19146384761
19146392147
19146397091
19146405819
19146413997
19146420894
19146427242
19146434993
19146441524
19146449398
19146456478
19146464412
19146471614
19146479854
19146486995
19146496333
19146503169
19146510616
19146517513
19146522640
19146532039
19146538203
19146546504
19146554683
19146561458
19146569698
19146576778
19146584712
19146591182
19146598750
19146607844
19146615047
19146623225
19146630427
19146637141
19146643001
19146650752
19146657344
19146665400
19146677119
19146685603
19146697139
19146704768
19146712214
19146721736
19146730769
19146736872
19146743525
19146750422
19146755427
19146762873
19146770747
19146776118
19146783137
19146787776
19146793330
19146798457
19146804133
19146811274
19146819026
19146824458
19146830500
19146835993
19146843684
19146849177
19146855952
19146862299
19146867548
19146872736
19146879755
19146886042
19146891779
19146896540
19146902766
19146907770
19146914606
19146920283
19146925287
19146930353
19146936701
19146942316
19146947809
19146953852
19146959833
19146964838
19146970392
19146975458
19146981134
19146986567
19146992670
19146999628
19147006220
19147011469
19147016352
19147021173
19147027338
19147032587
19147040155
19147045221
19147052484
19147057794
19147064020
19147069147
19147074945
19147079645
19147086054
19147090692
19147096918
19147102594
19147109735
19147115656
19147122553
19147129205
19147134454
19147141229
19147146295
19147152460
19147157281
19147163019
19147169977
19147175836
19147182062
19147188470
19147194452
19147200738
19147207208
19147213434
19147220697
19147226068
19147231988
19147238214
19147244195
19147252923
19147265130
19147271356
19147278253
19147288141
19147297906
19147306085
19147311883
19147318963
19147324884
19147331292
19147337518
19147346124
19147352960
19147359307
19147366204
19147373101
19147379632
19147385491
19147391656
19147399529
19147406304
19147412652
19147419610
19147426507
19147433343
19147439996
19147446954
19147452630
19147458428
19147463311
19147471184
19147476495
19147482537
19147488946
19147494988
19147500298
19147506707
19147512627
19147519951
19147527642
19147534844
19147540337
19147546990
19147552361
19147560845
19147566155
19147573845
19147581231
19147587395
19147592339
19147599968
19147605339
19147610955
19147618279
19147623894
19147629631
19147637261
19147642632
19147651116
19147658196
19147666252
19147672905
19147678887
19147684685
19147689629
19147696037
19147702568
19147708305
19147716057
19147723259
19147729973
19147737358
19147744194
19147750359
19147757133
19147764458
19147772331
19147778313
19147785698
19147793388
19147800224
19147806755
19147814201
19147820549
19147828850
19147836784
19147842216
19147849296
19147855827
19147861015
19147867607
19147874992
19147881767
19147888664
19147897209
19147906852
19147919914
19147930961
19147940055
19147947746
19147954826
19147962333
19147970268
19147975883
19147984001
19147991569
19147997428
19148004203
19148010001
19148018119
19148022880
19148031913
19148039542
19148046561
19148050590
19148057670
19148063407
19148071098
19148077384
19148082938
19148089408
19148096671
19148102958
19148110282
19148116141
19148125358
19148130118
19148138358
19148145560
19148152213
19148158317
19148167045
19148172904
19148180106
19148186515
19148193656
19148202018
19148207938
19148214835
19148221976
19148229056
19148238700
19148245047
19148252127
19148261283
19148270865
19148277213
19148286002
19148290518
19148299490
19148306876
19148314566
19148321280
19148328848
19148334952
19148342337
19148348013
19148352164
19148360342
19148364432
19148372732
19148377981
19148383047
19148389273
19148394400
19148400442
19148405691
19148411429
19148418631
19148425589
19148429495
19148438345
19148444143
19148449637
19148455252
19148460379
19148465994
19148472769
19148478384
19148484427
19148488272
19148495840
19148503164
19148509085
19148516409
19148521109
19148527578
19148532217
19148536489
19148548330
19148556265
19148562490
19148572683
19148582876
19148592214
19148600088
19148605825
19148611746
19148616445
19148623159
19148628347
19148633230
19148638479
19148643301
19148650259
19148654653
19148659780
19148665762
19148670888
19148675527
19148680776
19148686330
19148692861
19148697683
19148703664
19148711172
19148717214
19148722402
19148727590
19148733754
19148740102
19148745107
19148752553
19148758230
19148764150
19148770253
19148776540
19148782766
19148788930
19148794606
19148799062
19148804433
19148810659
19148814931
19148822255
19148829091
19148834951
19148841298
19148846059
19148852773
19148858266
19148864125
19148870473
19148875783
19148881154
19148887502
19148893361
19148898061
19148903981
19148910085
19148917287
19148922963
19148928822
19148934560
19148940602
19148946278
19148952809
19148959767
19148965993
19148973134
19148977284
19148985097
19148990712
19148997426
19149002797
19149008473
19149015736
19149021840
19149030263
19149036488
19149043507
19149049550
19149057362
19149064259
19149070179
19149076161
19149084156
19149090931
19149097340
19149102772
19149108754
19149116261
19149121327
19149132557
19149140980
19149149159
19149158375
19149167347
19149175648
19149182057
19149188526
19149193592
19149200001
19149207203
19149213551
19149220326
19149226734
19149232105
19149238026
19149243397
19149249561
19149254993
19149262379
19149267628
19149275318
19149282093
19149288257
19149294910
19149301624
19149308521
19149314991
19149321522
19149326771
19149332691
19149338855
19149345936
19149352344
19149357288
19149363880
19149370044
19149376087
19149382129
19149388782
19149395130
19149403125
19149408496
19149415699
19149421253
19149428516
19149434497
19149439685
19149447071
19149454700
19149460315
19149467578
19149473926
19149479602
19149486499
19149492114
19149499561
19149506824
19149513782
19149521106
19149527576
19149533801
19149538196
19149545764
19149554736
19149560779
19149567493
19149573047
19149580249
19149587939
19149595874
19149605334
19149612781
19149619800
19149625110
19149634326
19149644824
19149651416
19149655871
19149665759
19149670276
19149679065
19149685595
19149691027
19149699633
19149707568
19149713244
19149719287
19149727099
19149733386
19149739550
19149747729
19149753039
19149759265
19149766772
19149773303
19149780139
19149789233
19149795397
19149802844
19149811327
19149818224
19149824755
19149831408
19149840807
19149845263
19149853625
19149860644
19149866015
19149872057
19149878832
19149885485
19149891039
19149899096
19149905321
19149911852
19149918139
19149924608
19149930834
19149936632
19149944689
19149951098
19149957201
19149964037
19149970202
19149976793
19149982958
19149988024
19149995836
19150000963
19150008348
19150013781
19150019762
19150025621
19150031603
19150040270
19150046556
19150051378
19150058275
19150065050
19150069933
19150076891
19150083482
19150088976
19150095751
19150103014
19150109667
19150115465
19150123888
19150129625
19150136461
19150141710
19150149278
19150155199
19150161302
19150167284
19150174425
19150180406
19150186143
19150193834
19150200914
19150207567
19150212694
19150221055
19150226182
19150233018
19150239305
19150245714
19150253038
19150259446
19150266954
19150273301
19150279161
19150284410
19150291429
19150298021
19150302964
19150309739
19150314683
19150321336
19150327622
19150334214
19150340318
19150345506
19150351975
19150358445
19150363755
19150370835
19150375779
19150383225
19150389268
19150396653
19150403001
19150409348
19150416428
19150423997
19150432053
19150438950
19150445359
19150449692
19150456895
19150461228
19150471360
19150477402
19150482407
19150489487
19150494919
19150503159
19150508835
19150514756
19150520920
19150527756
19150533860
19150538437
19150545884
19150550950
19150560410
19150567429
19150574936
19150580979
19150586106
19150593308
19150599167
19150605637
19150612046
19150618943
19150626633
19150631272
19150639633
19150646591
19150651413
19150657456
19150665878
19150673081
19150678574
19150685837
19150691391
19150697678
19150704880
19150712082
19150718124
19150725571
19150733749
19150739426
19150747726
19150754013
19150759872
19150767685
19150774094
19150780319
19150785751
19150792892
19150800583
19150806381
19150812607
19150819504
19150826523
19150833725
19150840500
19150847763
19150854538
19150861251
19150868393
19150873947
19150881027
19150888717
19150895004
19150901535
19150909103
19150916122
19150921676
19150929611
19150935836
19150941818
19150949203
19150956161
19150961105
19150968490
19150976058
19150982955
19150988326
19150995956
19151002181
19151008834
19151015731
19151024703
19151030746
19151038619
19151046310
19151051559
19151062545
19151069015
19151078231
19151083053
19151090072
19151096541
19151103133
19151109603
19151117598
19151125350
19151130294
19151138778
19151145675
19151151473
19151158370
19151163863
19151170882
19151176680
19151184066
19151191207
19151196944
19151205123
19151211165
19151218489
19151224532
19151232833
19151241194
19151248580
19151254256
19151261580
19151266219
19151274581
19151281844
19151289473
19151297347
19151303328
19151310713
19151316084
19151324202
19151330061
19151337447
19151346663
19151353316
19151361983
19151368819
19151376448
19151382918
19151390120
19151397444
19151407087
19151412947
19151421553
19151428389
19151435164
19151442793
19151449507
19151455977
19151464155
19151472334
19151478132
19151486372
19151494001
19151500776
19151508284
19151515303
19151523970
19151531050
19151539045
19151546919
19151554609
19151561506
19151568952
19151577009
19151582685
19151590681
19151597883
19151605634
19151611494
19151619856
19151629255
19151634992
19151644453
19151650190
19151658124
19151664167
19151673810
19151680768
19151688764
19151696515
19151705915
19151712812
19151722822
19151732770
19151741071
19151748517
19151757184
19151766828
19151774457
19151780439
19151787152
19151794477
19151801435
19151807477
19151813092
19151820111
19151826703
19151833051
19151839948
19151847089
19151852765
19151860944
19151866498
19151872907
19151878339
19151884686
19151890118
19151895001
19151902631
19151909283
19151915021
19151921796
19151926617
19151932050
19151939435
19151947552
19151953168
19151958722
19151964581
19151970441
19151974835
19151981183
19151987897
19151993939
19151999249
19152004803
19152010052
19152015667
19152021832
19152026654
19152034222
19152041058
19152045819
19152052411
19152056317
19152063092
19152069500
19152076275
19152081829
19152087872
19152092816
19152098675
19152103741
19152108990
19152116436
19152121258
19152128521
19152133709
19152139324
19152145733
19152151776
19152159222
19152166607
19152172344
19152179363
19152184795
19152191753
19152197002
19152204632
19152209332
19152217144
19152222393
19152229717
19152235027
19152240398
19152247845
19152253887
19152259563
19152266277
19152272259
19152277691
19152285381
19152291790
19152300884
19152307964
19152314678
19152322002
19152329082
19152337505
19152343914
19152350505
19152357219
19152364238
19152370952
19152377849
19152384624
19152390544
19152397380
19152404888
19152409709
19152417278
19152423809
19152430889
19152437419
19152443035
19152449748
19152457317
19152462444
19152470134
19152475810
19152481609
19152488933
19152496745
19152504558
19152508769
19152517436
19152523784
19152531291
19152537151
19152543193
19152548808
19152556621
19152562541
19152568706
19152576091
19152582988
19152590251
19152595805
19152602885
19152609965
19152616496
19152622233
19152629435
19152635295
19152642009
19152649089
19152655192
19152660746
19152667094
19152674479
19152680644
19152687602
19152694316
19152699931
19152707743
19152713542
19152720683
19152726481
19152733622
19152741557
19152748515
19152756815
19152762492
19152770243
19152775858
19152783061
19152789530
19152796183
19152802897
19152809916
19152817118
19152823038
19152829203
19152836710
19152844584
19152850809
19152856669
19152863016
19152870524
19152876322
19152882792
19152889445
19152897013
19152906717
19152917887
19152924662
19152931498
19152942301
19152950174
19152957560
19152964090
19152970377
19152977213
19152983561
19152988565
19152994730
19153002176
19153008280
19153013040
19153020120
19153027323
19153033914
19153039469
19153045999
19153051431
19153057413
19153062845
19153070169
19153075845
19153082254
19153087686
19153095255
19153101419
19153108987
19153116129
19153122964
19153130960
19153138040
19153145303
19153152811
19153159097
19153166116
19153172891
19153180887
19153187234
19153196512
19153202249
19153210245
19153216165
19153224405
19153230691
19153238321
19153246011
19153252176
19153260476
19153267434
19153274026
19153281167
19153287637
19153295816
19153302468
19153310708
19153318093
19153323892
19153331521
19153339272
19153346597
19153351052
19153359048
19153366372
19153372781
19153379800
19153387429
19153393594
19153398721
19153406045
19153413613
19153419595
19153426003
19153432961
19153439248
19153444802
19153451089
19153457497
19153463784
19153468606
19153474831
19153483376
19153489968
19153494851
19153501626
19153508767
19153514809
19153520424
19153528725
19153534768
19153540505
19153546608
19153552834
19153562050
19153570900
19153578286
19153585060
19153594643
19153601296
19153607155
19153613503
19153617531
19153625038
19153631813
19153636391
19153643044
19153649513
19153655922
19153661110
19153666420
19153671730
19153676918
19153682777
19153689308
19153695290
19153701027
19153705482
19153711464
19153716591
19153721535
19153727516
19153733742
19153740211
19153746010
19153751076
19153756203
19153761513
19153766640
19153773964
19153778053
19153784584
19153790993
19153797523
19153802711
19153808876
19153814796
19153822120
19153827552
19153833656
19153840431
19153846534
19153852028
19153857826
19153862648
19153868751
19153875099
19153881263
19153885902
19153892250
19153899147
19153905921
19153914100
19153919959
19153929603
19153937049
19153943824
19153949378
19153955482
19153965370
19153971168
19153978370
19153985633
19153992347
19153999732
19154006568
19154014381
19154022010
19154027564
19154033363
19154039466
19154045386
19154050086
19154058570
19154063880
19154071265
19154076697
19154084754
19154090247
19154097266
19154105079
19154110572
19154115943
19154125098
19154141944
19154162024
19154172889
19154181983
19154195777
19154205359
19154214514
19154225745
19154235510
19154244238
19154252356
19154260657
19154269080
19154278235
19154285986
19154299658
19154309851
19154318640
19154327124
19154336035
19154346716
19154354773
19154366064
19154376013
19154386267
19154395483
19154402502
19154415075
19154423803
19154433813
19154443090
19154451574
19154460791
19154470068
19154479223
19154487951
19154497961
19154510412
19154518347
19154528356
19154538427
19154550085
19154559301
19154568639
19154579076
19154588293
19154599401
19154608556
19154616003
19154628088
19154636388
19154644994
19154655736
19154665258
19154673376
19154684789
19154694005
19154703466
19154712621
19154721532
19154731054
19154741124
19154750524
19154760839
19154769445
19154776769
19154789403
19154797887
19154809545
19154818883
19154827367
19154836400
19154846898
19154855748
19154865147
19154874608
19154883275
19154892125
19154901707
19154911229
19154922093
19154939122
19154954320
19154973790
19154989110
19155003453
19155020054
19155034275
19155055210
19155074192
19155096470
19155117222
19155131382
19155142002
19155153477
19155164524
19155181980
19155201145
19155220310
19155237583
19155248936
19155257786
19155267551
19155277195
19155285496
19155294163
19155304416
19155313572
19155322544
19155332554
19155343967
19155354038
19155363193
19155372165
19155382846
19155391330
19155400730
19155410251
19155420871
19155430698
19155441440
19155451694
19155461154
19155470798
19155479831
19155489413
19155499728
19155507358
19155518100
19155529819
19155538180
19155546237
19155557590
19155568759
19155577792
19155586459
19155598910
19155607821
19155619052
19155626864
19155639682
19155648166
19155656649
19155667880
19155678927
19155689303
19155698214
19155709017
19155718722
19155726595
19155737216
19155746859
19155757052
19155764864
19155775790
19155784274
19155793185
19155802828
19155811800
19155820162
19155828585
19155840365
19155850252
19155857943
19155867525
19155875155
19155886934
19155895174
19155904635
19155911165
19155924105
19155931246
19155939669
19155945223
19155951937
19155960360
19155970308
19155976473
19155982332
19155988375
19155994722
19156000154
19156006258
19156012483
19156018038
19156022676
19156029695
19156035127
19156041658
19156050142
19156054903
19156060701
19156067842
19156074007
19156079195
19156085664
19156092989
19156099153
19156106721
19156111238
19156118196
19156126070
19156132112
19156139253
19156145479
19156151216
19156157381
19156163789
19156170808
19156178254
19156186067
19156192903
19156199800
19156205537
19156212007
19156219087
19156226472
19156234346
19156239839
19156247773
19156253938
19156260652
19156265351
19156272798
19156278840
19156286531
19156293183
19156300263
19156306001
19156312837
19156319001
19156325105
19156331086
19156337800
19156345307
19156351289
19156357453
19156365388
19156370637
19156378571
19156383759
19156390412
19156396210
19156404633
19156411225
19156417023
19156424103
19156428437
19156435090
19156441987
19156447602
19156455109
19156462800
19156468293
19156475251
19156480561
19156487824
19156496674
19156502533
19156510163
19156516571
19156522553
19156529389
19156537506
19156543366
19156552094
19156559357
19156564972
19156572296
19156576813
19156584503
19156591584
19156599030
19156604462
19156611664
19156619171
19156625153
19156630585
19156636200
19156644013
19156650726
19156656708
19156663849
19156669281
19156676605
19156683136
19156689850
19156698395
19156711700
19156727631
19156736664
19156748627
19156756866
19156765350
19156771393
19156779632
19156786651
19156793121
19156800018
19156806060
19156813263
19156820770
19156827240
19156833831
19156839874
19156845794
19156853912
19156861969
19156868438
19156874908
19156881317
19156889434
19156896209
19156902679
19156909027
19156914520
19156925506
19156931976
19156939239
19156946929
19156954742
19156965240
19156972015
19156979461
19156987457
19156993011
19157000030
19157007476
19157012969
19157020293
19157025909
19157034026
19157041289
19157050994
19157059478
19157067229
19157074676
19157082488
19157090911
19157099761
19157107879
19157115081
19157123504
19157132354
19157141814
19157150359
19157164336
19157172637
19157181365
19157187468
19157191985
19157199187
19157206084
19157211638
19157217803
19157224577
19157233977
19157238371
19157246611
19157254057
19157261565
19157267180
19157274748
19157279692
19157285735
19157292082
19157300261
19157305388
19157312529
19157318816
19157324736
19157332732
19157339567
19157347136
19157352751
19157358732
19157364470
19157369169
19157375273
19157381743
19157388456
19157393889
19157401091
19157406462
19157413176
19157420317
19157425505
19157430693
19157437956
19157443998
19157448637
19157455229
19157460478
19157466154
19157473661
19157478849
19157485197
19157491484
19157496427
19157502043
19157509306
19157514677
19157521269
19157527433
19157533354
19157538847
19157545561
19157550871
19157556242
19157563566
19157568449
19157574308
19157580351
19157587675
19157593900
19157599821
19157604765
19157611784
19157617216
19157623807
19157630155
19157636808
19157642301
19157649320
19157654081
19157660673
19157667447
19157674100
19157680570
19157686857
19157697294
19157705045
19157711881
19157719022
19157724149
19157730375
19157738675
19157743558
19157752103
19157758939
19157765775
19157773282
19157778531
19157786710
19157792081
19157798978
19157805387
19157813077
19157818448
19157825833
19157832486
19157837186
19157845181
19157852994
19157860562
19157865689
19157870694
19157878018
19157883023
19157890897
19157896939
19157904324
19157910001
19157915982
19157922085
19157928738
19157934537
19157941006
19157948758
19157954617
19157961331
19157967129
19157973599
19157979153
19157986111
19157991910
19157999661
19158004727
19158012051
19158017361
19158024319
19158029202
19158036831
19158041043
19158047329
19158054226
19158060025
19158065090
19158072903
19158079434
19158085842
19158091519
19158099331
19158106655
19158113308
19158118740
19158125576
19158132778
19158139187
19158145962
19158153469
19158159512
19158166714
19158174587
19158180569
19158188869
19158196255
19158203213
19158208218
19158217495
19158223904
19158231167
19158238430
19158246181
19158255276
19158262295
19158269375
19158279018
19158287807
19158293911
19158301784
19158307888
19158313564
19158320034
19158328456
19158333889
19158342311
19158349575
19158356349
19158364772
19158369472
19158377284
19158384120
19158389919
19158398036
19158404384
19158411220
19158418056
19158424709
19158431972
19158439540
19158445277
19158452907
19158461452
19158468166
19158475002
19158481715
19158487819
19158496791
19158503749
19158509791
19158517909
19158528468
19158536464
19158544032
19158551112
19158557887
19158567164
19158572474
19158579677
19158588282
19158596583
19158603419
19158609523
19158617152
19158623195
19158631923
19158638636
19158644130
19158650172
19158658107
19158665126
19158672267
19158680751
19158686793
19158693934
19158702357
19158709864
19158716456
19158724024
19158731837
19158741480
19158748927
19158755763
19158763026
19158770228
19158777491
19158783961
19158793848
19158800562
19158805689
19158814051
19158819727
19158826624
19158833521
19158839503
19158846583
19158852076
19158857691
19158863856
19158870630
19158877100
19158881922
19158896326
19158905115
19158912439
19158921656
19158931726
19158939661
19158945703
19158952722
19158958277
19158963953
19158970911
19158979151
19158986231
19158993067
19159000269
19159007715
19159012903
19159020044
19159026880
19159031519
19159039575
19159045740
19159050562
19159055750
19159062952
19159069238
19159074670
19159080286
19159086145
19159091821
19159096643
19159104272
19159110254
19159116052
19159121606
19159126977
19159132654
19159139368
19159144250
19159151575
19159157434
19159162805
19159167688
19159173242
19159179468
19159185144
19159193383
19159198510
19159205957
19159211084
19159218591
19159224572
19159230004
19159235803
19159241845
19159247460
19159252221
19159259851
19159265039
19159270776
19159278649
19159284265
19159290307
19159296411
19159302758
19159308434
19159314965
19159319543
19159327966
19159333459
19159338891
19159344994
19159350121
19159357385
19159364098
19159370995
19159376122
19159384118
19159390038
19159394860
19159402795
19159408898
19159415673
19159422143
19159427941
19159436059
19159444848
19159454491
19159461876
19159467431
19159476769
19159483849
19159491845
19159498192
19159506676
19159513756
19159519371
19159524681
19159530297
19159537560
19159542992
19159550255
19159556176
19159562157
19159568077
19159573937
19159579918
19159587486
19159594322
19159601525
19159608666
19159614403
19159621239
19159628441
19159635277
19159642235
19159649071
19159655846
19159662010
19159669090
19159673668
19159680687
19159687401
19159692894
19159699547
19159707298
19159713646
19159719017
19159726707
19159732017
19159738975
19159744407
19159751488
19159759483
19159766380
19159771629
19159777611
19159782798
19159788658
19159793907
19159801902
19159809532
19159815391
19159821189
19159827293
19159833152
19159839073
19159845176
19159851280
19159857994
19159864585
19159869590
19159876731
19159886497
19159893699
19159900474
19159909202
19159915305
19159922935
19159929344
19159934959
19159942893
19159948997
19159955405
19159963157
19159970847
19159977622
19159985313
19159991294
19159997703
19160002952
19160010337
19160016074
19160023215
19160028831
19160036155
19160045554
19160050437
19160058799
19160066062
19160075950
19160087485
19160097739
19160107688
19160117514
19160129111
19160142844
19160152976
19160160727
19160169333
19160177329
19160183859
19160190634
19160196250
19160204123
19160210959
19160216330
19160222861
19160229819
19160234885
19160242026
19160249045
19160253928
19160261435
19160266745
19160273337
19160278647
19160285422
19160294577
19160301047
19160306296
19160313193
19160319174
19160327292
19160333883
19160341574
19160351828
19160356894
19160365255
19160371481
19160380514
19160386190
19160393393
19160400534
19160407553
19160415426
19160422995
19160430868
19160437338
19160444296
19160451254
19160456015
19160464498
19160472006
19160478475
19160482504
19160489889
19160495748
19160503561
19160511678
19160517477
19160525228
19160531210
19160538473
19160545065
19160551656
19160558370
19160564840
19160571676
19160577962
19160584371
19160590292
19160596883
19160602804
19160608602
19160613973
19160621847
19160628988
19160634847
19160639852
19160647420
19160652791
19160658529
19160665792
19160671895
19160677572
19160685201
19160690999
19160698323
19160704671
19160710347
19160716085
19160723409
19160729451
19160734334
19160744893
19160754415
19160759725
19160769246
19160774739
19160783162
19160789021
19160796346
19160801656
19160807454
19160816243
19160820760
19160827657
19160833028
19160839009
19160843648
19160849446
19160855855
19160860616
19160866475
19160873006
19160878987
19160885823
19160890462
19160897114
19160903828
19160908467
19160914509
19160921590
19160928242
19160933125
19160940266
19160948384
19160953877
19160959553
19160965962
19160970662
19160978108
19160984333
19160990193
19160997456
19161001728
19161007832
19161015278
19161022480
19161029682
19161039753
19161047993
19161054890
19161060505
19161067158
19161074787
19161080036
19161087666
19161094441
19161101887
19161106281
19161114643
19161121113
19161126667
19161134113
19161142353
19161148518
19161153950
19161161152
19161166462
19161173481
19161179645
19161186787
19161195148
19161202106
19161208942
19161216511
19161222980
19161228901
19161235370
19161242573
19161249531
19161254352
19161260700
19161265400
19161275348
19161285846
19161293232
19161301899
19161307270
19161314167
19161322223
19161328998
19161335895
19161342914
19161353412
19161362934
19161368854
19161374957
19161381915
19161391864
19161401691
19161406818
19161414813
19161420917
19161425800
19161431049
19161438922
19161445209
19161451984
19161458026
19161463397
19161469440
19161475787
19161481830
19161488299
19161495624
19161502093
19161508990
19161514545
19161521075
19161528338
19161534381
19161540301
19161546405
19161552508
19161556903
19161563373
19161569964
19161574664
19161580523
19161587909
19161595233
19161602923
19161609637
19161615863
19161622576
19161630267
19161637225
19161644305
19161651995
19161657855
19161665057
19161670855
19161678240
19161684588
19161690936
19161699359
19161705767
19161712542
19161719866
19161728045
19161734698
19161740618
19161747210
19161753130
19161759173
19161766619
19161772234
19161780596
19161786455
19161791643
19161798907
19161807757
19161814837
19161821306
19161826861
19161834734
19161842119
19161849810
19161858416
19161865374
19161874590
19161880816
19161888262
19161894060
19161901262
19161909319
19161917192
19161923601
19161931597
19161939592
19161945635
19161954058
19161961992
19161967851
19161974932
19161981157
19161989763
19161997514
19162005815
19162013323
19162021745
19162034013
19162043840
19162056902
19162065141
19162073564
19162084184
19162092668
19162099504
19162106157
19162114335
19162120561
19162127458
19162134599
19162141923
19162149858
19162156205
19162160966
19162170060
19162176103
19162182023
19162189897
19162196122
19162200212
19162209062
19162214433
19162221696
19162227983
19162233537
19162241716
19162247148
19162253068
19162260758
19162267106
19162273026
19162281327
19162287797
19162294694
19162301103
19162307389
19162313798
19162320329
19162327409
19162335160
19162341019
19162346391
19162352311
19162359147
19162364945
19162371354
19162378190
19162383622
19162389603
19162396500
19162402482
19162408951
19162414750
19162420243
19162426285
19162432877
19162438492
19162444047
19162449662
19162457230
19162463273
19162467728
19162474503
19162480973
19162486771
19162494095
19162500260
19162505692
19162510819
19162517655
19162526810
19162537796
19162544632
19162553726
19162560257
19162566361
19162573807
19162579666
19162585648
19162591751
19162597794
19162604996
19162611160
19162617874
19162622391
19162629105
19162636368
19162641373
19162648514
19162653702
19162661087
19162667007
19162676224
19162681778
19162689529
19162695450
19162703689
19162711685
19162718277
19162724014
19162730240
19162735977
19162742141
19162748733
19162755752
19162762954
19162768081
19162774429
19162779678
19162787674
19162793716
19162800308
19162806350
19162813308
19162820022
19162827224
19162833877
19162840713
19162847366
19162854446
19162862625
19162869644
19162874282
19162881545
19162887832
19162894424
19162900710
19162906631
19162913589
19162920913
19162927810
19162934890
19162943252
19162948806
19162955947
19162963576
19162971084
19162976638
19162983718
19162989333
19162996413
19163001967
19163008864
19163016860
19163022414
19163027846
19163036086
19163042190
19163049087
19163055617
19163062758
19163070083
19163077407
19163084121
19163090651
19163097304
19163104689
19163111281
19163118422
19163124587
19163131667
19163138808
19163144545
19163150771
19163160720
19163164809
19163174147
19163178481
19163187636
19163193862
19163199538
19163206496
19163211989
19163219923
19163225356
19163233168
19163238966
19163246535
19163253065
19163259840
19163266310
19163272780
19163280287
19163286696
19163293410
19163300001
19163306227
19163314284
19163325087
19163333754
19163342116
19163347792
19163355177
19163362196
19163368971
19163375258
19163383680
19163388319
19163396742
19163403273
19163408277
19163416090
19163421095
19163428724
19163436781
19163444898
19163451124
19163456800
19163462354
19163469923
19163476270
19163483228
19163491041
19163496961
19163503126
19163511427
19163518324
19163524732
19163530958
19163539442
19163547315
19163554029
19163562513
19163571546
19163578809
19163585767
19163592847
19163600965
19163608106
19163616407
19163623731
19163631177
19163639539
19163647168
19163652479
19163661451
19163669751
19163675550
19163683423
19163688794
19163697217
19163703504
19163711988
19163720838
19163728894
19163734815
19163742505
19163748548
19163755933
19163764600
19163772473
19163779798
19163787610
19163795422
19163802747
19163809461
19163817334
19163824414
19163831860
19163838269
19163844922
19163854321
19163861340
19163871533
19163876172
19163885510
19163892041
19163899304
19163906445
19163916516
19163923535
19163930737
19163937207
19163944226
19163952160
19163957165
19163966931
19163975232
19163981274
19163988659
19163994275
19164002392
19164009411
19164015698
19164022412
19164028454
19164034680
19164042309
19164052563
19164061108
19164069103
19164075451
19164085400
19164091747
19164098522
19164104504
19164111218
19164115673
19164123486
19164130016
19164137218
19164143932
19164149242
19164156445
19164163830
19164170910
19164177074
19164185436
19164190929
19164197704
19164202770
19164209911
19164215343
19164221386
19164227489
19164233898
19164239391
19164246166
19164251903
19164257641
19164265209
19164269848
19164278392
19164284862
19164290050
19164296520
19164303722
19164309520
19164314647
19164321361
19164326305
19164333202
19164338573
19164344188
19164349437
19164354930
19164361156
19164366771
19164373424
19164380321
19164386974
19164393016
19164397838
19164403880
19164410899
19164415660
19164422862
19164427928
19164435435
19164442027
19164448253
19164455028
19164460948
19164467540
19164474925
19164484386
19164491954
19164499217
19164504710
19164511180
19164518016
19164524119
19164530955
19164537913
19164544505
19164550059
19164556590
19164562693
19164568004
19164575938
19164581431
19164587779
19164595286
19164601695
19164607798
19164615977
19164621836
19164629222
19164635203
19164644297
19164652842
19164659800
19164666697
19164674876
19164682200
19164689951
19164695139
19164703684
19164711192
19164716380
19164723032
19164730784
19164738230
19164743601
19164750254
19164758860
19164766550
19164772532
19164780222
19164785654
19164792612
19164798044
19164805186
19164810679
19164818308
19164823984
19164831797
19164837229
19164845713
19164852305
19164859324
19164865976
19164871958
19164881357
19164887400
19164893625
19164900156
19164906382
19164912851
19164920542
19164926950
19164933054
19164938608
19164946359
19164951303
19164957529
19164964792
19164971262
19164977731
19164984506
19164991403
19164998117
19165005808
19165013010
19165018259
19165026865
19165032053
19165038583
19165046152
19165053293
19165060861
19165067453
19165074960
19165081430
19165087350
19165096322
19165101999
19165108774
19165116220
19165121896
19165128549
19165136178
19165145822
19165154123
19165160653
19165166391
19165174325
19165180795
19165188424
19165195260
19165202645
19165209787
19165216134
19165223092
19165230294
19165236886
19165243478
19165253366
19165258798
19165265206
19165273202
19165280770
19165286446
19165294015
19165304208
19165312875
19165321053
19165329354
19165337411
19165344979
19165352914
19165359872
19165371773
19165380196
19165386178
19165392220
19165400704
19165407479
19165414010
19165420296
19165427865
19165434151
19165443856
19165451119
19165457467
19165463509
19165471016
19165477364
19165486153
19165492134
19165500130
19165506539
19165514046
19165522530
19165529671
19165536385
19165543892
19165550484
19165557564
19165566536
19165574837
19165581368
19165588509
19165597054
19165604744
19165610603
19165618965
19165624764
19165632454
19165641426
19165648811
19165656380
19165665047
19165678047
19165683113
19165691048
19165698555
19165707527
19165712776
19165721443
19165729927
19165739021
19165746834
19165754829
19165760566
19165768135
19165775398
19165782600
19165789314
19165794868
19165801094
19165808113
19165814094
19165820564
19165825141
19165832221
19165838264
19165845649
19165851692
19165858161
19165861762
19165871833
19165878181
19165884651
19165891425
19165897773
19165903205
19165908820
19165916023
19165921760
19165926948
19165935615
19165940925
19165946784
19165954169
19165959479
19165965705
19165972114
19165979804
19165986030
19165993293
19165998115
19166005866
19166011725
19166018744
19166028266
19166033393
19166041572
19166046149
19166051886
19166062079
19166068549
19166074164
19166080756
19166087653
19166094123
19166097663
19166105231
19166111884
19166116828
19166124030
19166129279
19166135749
19166141730
19166148871
19166154425
19166160529
19166166510
19166172675
19166176337
19166184332
19166190680
19166197028
19166203009
19166208746
19166216864
19166222968
19166229620
19166235846
19166242255
19166247870
19166254645
19166260931
19166268072
19166274420
19166280890
19166286261
19166292731
19166299139
19166304388
19166313116
19166318548
19166325445
19166330450
19166338507
19166344854
19166350348
19166357977
19166364874
19166371038
19166377081
19166383612
19166391607
19166398321
19166404058
19166412420
19166418707
19166426214
19166432440
19166439581
19166445989
19166453680
19166462103
19166467657
19166474798
19166482610
19166487920
19166493841
19166500616
19166507146
19166514288
19166520635
19166528387
19166534734
19166540960
19166547491
19166554388
19166561590
19166568120
19166574285
19166581121
19166588079
19166595220
19166601324
19166608465
19166615239
19166628057
19166636663
19166644048
19166651006
19166657720
19166667302
19166674260
19166681035
19166689092
19166693181
19166701848
19166708318
19166714055
19166722173
19166727666
19166734502
19166739873
19166747991
19166753850
19166760869
19166768926
19166774968
19166781133
19166789067
19166795293
19166800725
19166808415
19166814458
19166821050
19166828618
19166834843
19166841923
19166846623
19166855778
19166859868
19166868962
19166876652
19166882268
19166889958
19166895634
19166902226
19166909977
19166916020
19166922246
19166930546
19166937016
19166943608
19166950261
19166958317
19166965153
19166972721
19166980229
19166987431
19166994694
19167000676
19167007084
19167016178
19167023564
19167030766
19167038883
19167046147
19167053166
19167060368
19167066960
19167075321
19167082035
19167088078
19167096500
19167104740
19167111698
19167118290
19167125187
19167132389
19167139164
19167148197
19167153812
19167162968
19167168339
19167177250
19167182438
19167190372
19167197147
19167203739
19167210514
19167218265
19167225101
19167231876
19167239261
19167246524
19167253727
19167261295
19167268863
19167276310
19167284305
19167292728
19167300052
19167306034
19167314090
19167322818
19167331363
19167344425
19167352420
19167359989
19167368594
19167376163
19167385013
19167392032
19167397403
19167404727
19167412723
19167419315
19167424747
19167431400
19167438907
19167446597
19167454166
19167460940
19167466800
19167474063
19167481204
19167488162
19167497073
19167504214
19167511050
19167515811
19167523318
19167530398
19167537539
19167543643
19167550479
19167556216
19167563174
19167569094
19167576113
19167583194
19167589541
19167597903
19167605166
19167611087
19167617007
19167624331
19167631533
19167637515
19167643618
19167650454
19167657229
19167663394
19167669558
19167676333
19167682620
19167689700
19167696169
19167703249
19167710146
19167716921
19167723330
19167728213
19167735781
19167742617
19167748965
19167754458
19167760866
19167767641
19167774294
19167779604
19167785891
19167793703
19167799074
19167804323
19167811098
19167817751
19167824282
19167828432
19167835634
19167841616
19167849001
19167855288
19167860415
19167866396
19167871218
19167877993
19167885256
19167891420
19167897402
19167903688
19167909548
19167915590
19167921022
19167927126
19167932619
19167940248
19167945986
19167950746
19167957765
19167965639
19167971315
19167980104
19167986269
19167995180
19168001588
19168008180
19168015077
19168019350
19168026735
19168033144
19168037782
19168045290
19168052003
19168058534
19168063905
19168070558
19168075441
19168082765
19168090700
19168097230
19168103700
19168110658
19168117372
19168125184
19168131837
19168137635
19168144471
19168151490
19168157777
19168164796
19168171327
19168178529
19168185121
19168192018
19168199708
19168204957
19168213441
19168219056
19168227540
19168233033
19168241517
19168249207
19168255433
19168261170
19168267823
19168274842
19168280946
19168286683
19168294801
19168300660
19168308350
19168314332
19168323304
19168330079
19168336182
19168342957
19168350159
19168358704
19168364014
19168371766
19168377869
19168384095
19168389954
19168396302
19168404236
19168411011
19168417481
19168424073
19168430603
19168437073
19168446900
19168452820
19168460816
19168467713
19168473267
19168481385
19168487610
19168493714
19168499939
19168506165
19168514710
19168520447
19168527344
19168535279
19168542114
19168548401
19168555115
19168562378
19168568543
19168576233
19168583008
19168588074
19168594299
19168600891
19168610413
19168617065
19168624573
19168632507
19168638977
19168647156
19168653320
19168659485
19168668335
19168673889
19168680786
19168688782
19168694519
19168700195
19168708191
19168713989
19168721557
19168730468
19168736389
19168742981
19168750793
19168757568
19168764709
19168771545
19168778930
19168785766
19168794189
19168800903
19168806701
19168813415
19168820495
19168827331
19168835571
19168843322
19168851379
19168858276
19168864990
19168872436
19168878722
19168887695
19168893798
19168901061
19168909423
19168916686
19168922668
19168929504
19168937438
19168944823
19168952270
19168995849
19169004455
19169010314
19169017272
19169023925
19169031066
19169037169
19169043151
19169049681
19169055907
19169062560
19169069701
19169076171
19169083007
19169088866
19169095641
19169102660
19169109923
19169116332
19169122313
19169128417
19169135253
19169141661
19169148985
19169156920
19169162901
19169170714
19169179320
19169185301
19169191710
19169198119
19169205077
19169212706
19169219908
19169227049
19169233885
19169241026
19169247069
19169253050
19169260679
19169266661
19169272948
19169279295
19169287169
19169292723
19169301695
19169308165
19169315001
19169323362
19169329771
19169336363
19169343809
19169350279
19169356627
19169362608
19169368772
19169374754
19169380674
19169388121
19169392942
19169398863
19169405821
19169412657
19169419981
19169426267
19169433592
19169439512
19169446104
19169454283
19169460996
19169467832
19169473875
19169480283
19169486448
19169494016
19169500059
19169506467
19169515562
19169520628
19169527219
19169532835
19169538877
19169545530
19169550535
19169556638
19169564451
19169570310
19169576414
19169582151
19169587034
19169594236
19169599119
19169607358
19169613096
19169619077
19169624875
19169631101
19169636533
19169642820
19169649350
19169655942
19169661130
19169668637
19169673398
19169680539
19169688047
19169693540
19169700681
19169707456
19169715146
19169724179
19169731198
19169738095
19169744504
19169752377
19169759702
19169764829
19169774167
19169783383
19169789121
19169796567
19169803647
19169810178
19169817258
19169823605
19169830685
19169837765
19169844296
19169849789
19169857297
19169865109
19169871823
19169881528
19169888180
19169899106
19169905270
19169914303
19169921933
19169929806
19169936093
19169944027
19169950009
19169957211
19169963070
19169969601
19169975521
19169983212
19169989865
19169995968
19170003109
19170008724
19170014706
19170020748
19170029782
19170038937
19170044979
19170050655
19170057980
19170064633
19170068905
19170076534
19170085140
19170090511
19170097469
19170102962
19170110470
19170116146
19170122555
19170129147
19170136837
19170143185
19170149654
19170156185
19170161495
19170169735
19170175411
19170183224
19170189449
19170196346
19170202144
19170208675
19170214290
19170220577
19170229610
19170235164
19170242366
19170247432
19170255123
19170260921
19170267696
19170274410
19170281429
19170288814
19170293453
19170301204
19170307796
19170314144
19170319454
19170326900
19170334529
19170340877
19170346492
19170352779
19170358516
19170366145
19170373470
19170379207
19170387019
19170393062
19170402461
19170409724
19170416377
19170423946
19170430476
19170437556
19170445979
19170452876
19170460139
19170468013
19170477168
19170484614
19170491633
19170501399
19170512629
19170522883
19170530513
19170538813
19170546016
19170554805
19170562556
19170567866
19170574580
19170582209
19170588557
19170595271
19170600398
19170609492
19170614253
19170623835
19170631220
19170637812
19170646479
19170653315
19170660395
19170667597
19170673945
19170680781
19170687495
19170694392
19170702448
19170709711
19170715144
19170724177
19170729609
19170736323
19170742670
19170749628
19170758051
19170763239
19170771784
19170779230
19170787836
19170793879
19170803034
19170811762
19170818598
19170825861
19170833307
19170840876
19170848017
19170855280
19170863764
19170871515
19170878595
19170885919
19170893427
19170901422
19170909174
19170916437
19170922968
19170929804
19170937982
19170944513
19170952570
19170959161
19170967096
19170972833
19170979547
19170987115
19170994196
19170999506
19171005975
19171011224
19171018304
19171023736
19171030817
19171038202
19171043573
19171049493
19171056146
19171062005
19171068841
19171074701
19171080560
19171086542
19171093744
19171099664
19171106500
19171112664
19171119256
19171125421
19171131585
19171137811
19171142450
19171148431
19171155267
19171161798
19171168573
19171174676
19171179986
19171188958
19171199578
19171207940
19171214654
19171219720
19171228509
19171234002
19171242547
19171248467
19171254510
19171259820
19171265435
19171270806
19171277154
19171282891
19171289117
19171295037
19171302117
19171307549
19171313775
19171318780
19171325005
19171331292
19171336175
19171343255
19171348443
19171355889
19171361565
19171368828
19171374810
19171380425
19171385857
19171391533
19171397088
19171403374
19171410637
19171415642
19171427239
19171431328
19171438530
19171445183
19171451775
19171457512
19171465813
19171471611
19171477288
19171483513
19171489128
19171495171
19171501030
19171507439
19171516106
19171521233
19171529289
19171534233
19171542168
19171547051
19171553459
19171561882
19171568413
19171573906
19171581780
19171587212
19171594719
19171601006
19171607841
19171614250
19171621879
19171629936
19171637443
19171643242
19171650749
19171656425
19171665825
19171671379
19171679191
19171684929
19171691276
19171697319
19171706047
19171713676
19171719413
19171725944
19171733390
19171739860
19171747551
19171752311
19171760368
19171767387
19171774528
19171781974
19171789970
19171796562
19171805107
19171816093
19171821769
19171830924
19171837272
19171843559
19171851432
19171857353
19171864494
19171871269
19171877494
19171886161
19171892204
19171899467
19171905692
19171913749
19171920158
19171928153
19171934318
19171940604
19171948173
19171952933
19171960990
19171968558
19171975638
19171983207
19171988944
19171995902
19172003714
19172009086
19172017691
19172023612
19172031302
19172036917
19172043387
19172050589
19172059500
19172065360
19172072379
19172079886
19172086722
19172093131
19172100211
19172107291
19172112235
19172119010
19172129691
19172136954
19172143302
19172151663
19172157645
19172166129
19172175894
19172182730
19172189322
19172196341
19172202750
19172211233
19172217337
19172225516
19172232718
19172238333
19172245840
19172251333
19172258658
19172264334
19172273794
19172280630
19172288565
19172296743
19172304190
19172311758
19172320364
19172326956
19172335745
19172343863
19172352957
19172361807
19172369802
19172377249
19172385427
19172394277
19172400320
19172408254
19172417105
19172425527
19172432546
19172440115
19172449758
19172460684
19172469289
19172478445
19172488882
19172496938
19172506643
19172514699
19172523000
19172530080
19172538686
19172546499
19172553029
19172561269
19172570485
19172577077
19172585622
19172594106
19172601369
19172608999
19172618276
19172625783
19172635549
19172643850
19172651113
19172659597
19172666127
19172676625
19172683888
19172692067
19172698293
19172707570
19172713246
19172721974
19172729604
19172736318
19172741750
19172750111
19172757130
19172764455
19172770680
19172776845
19172782826
19172790700
19172796986
19172801991
19172810292
19172816823
19172823476
19172828847
19172836781
19172842702
19172849354
19172857594
19172865285
19172872243
19172877736
19172884755
19172890065
19172898488
19172904408
19172911061
19172917714
19172924366
19172931202
19172938771
19172943714
19172952504
19172959339
19172966236
19172971607
19172977894
19172985462
19172991383
19172997792
19173005238
19173012013
19173016773
19173023365
19173030445
19173036915
19173043690
19173049976
19173055409
19173062244
19173067371
19173074146
19173080738
19173086353
19173093494
19173101368
19173106800
19173115223
19173121632
19173128590
19173134449
19173140491
19173146351
19173153370
19173161365
19173168628
19173174183
19173181202
19173188587
19173194996
19173201648
19173207081
19173213794
19173220996
19173226795
19173234180
19173240039
19173246570
19173252430
19173258777
19173266407
19173273426
19173279773
19173287036
19173292346
19173300342
19173306812
19173313037
19173320056
19173328662
19173335681
19173342029
19173347644
19173355518
19173363696
19173369739
19173377429
19173384509
19173391467
19173398914
19173405261
19173410449
19173418628
19173423938
19173430591
19173437854
19173445849
19173453540
19173460925
19173468371
19173474597
19173482348
19173489978
19173498095
19173504443
19173511950
19173517932
19173526049
19173533496
19173539172
19173547290
19173553088
19173562487
19173568530
19173576647
19173583361
19173589343
19173596789
19173606127
19173611682
19173619738
19173625903
19173632983
19173639575
19173646899
19173654040
19173661364
19173667223
19173675036
19173681994
19173689318
19173697192
19173704027
19173711108
19173718676
19173727343
19173733568
19173740465
19173747668
19173757921
19173765246
19173771410
19173777880
19173786730
19173793200
19173801073
19173809008
19173814684
19173822863
19173828661
19173836596
19173842333
19173850634
19173856798
19173864183
19173870592
19173878221
19173883043
19173890673
19173897081
19173905199
19173912645
19173917650
19173925462
19173931078
19173939501
19173945299
19173954149
19173961961
19173969286
19173975999
19173983446
19173991441
19173998643
19174007555
19174015977
19174025621
19174033372
19174042711
19174050096
19174057420
19174064439
19174070909
19174078050
19174085985
19174093553
19174101365
19174107835
19174115648
19174122789
19174129014
19174137742
19174143785
19174153245
19174160264
19174167222
19174173814
19174183274
19174190721
19174197007
19174203294
19174212388
19174219895
19174227342
19174234605
19174240342
19174247544
19174254685
19174261704
19174268479
19174276231
19174284226
19174291611
19174299607
19174307603
19174316453
19174323105
19174332078
19174341721
19174348801
19174354477
19174365403
19174371262
19174379258
19174387131
19174398240
19174406601
19174417282
19174430832
19174441696
19174448166
19174454270
19174459885
19174465561
19174471787
19174479294
19174483933
19174490402
19174496811
19174501877
19174506455
19174512802
19174519455
19174524643
19174531418
19174537033
19174542099
19174548386
19174553452
19174559494
19174564865
19174572617
19174578293
19174584946
19174590683
19174597641
19174603317
19174610763
19174617233
19174623215
19174628830
19174634445
19174640243
19174644882
19174650314
19174657699
19174664352
19174670334
19174676803
19174682358
19174687851
19174694381
19174700058
19174706283
19174712631
19174717697
19174722885
19174729171
19174734603
19174738937
19174745040
19174751510
19174756881
19174761459
19174767929
19174773117
19174778060
19174783309
19174788742
19174796310
19174801254
19174806503
19174811935
19174817672
19174823043
19174829940
19174836715
19174843856
19174849838
19174855392
19174860763
19174866195
19174871688
19174878036
19174884994
19174891402
19174895492
19174901290
19174907210
19174914107
19174921371
19174928817
19174934371
19174939803
19174945968
19174951339
19174957259
19174963912
19174969954
19174983809
19174991011
19175003524
19175009871
19175017073
19175028548
19175034346
19175040389
19175045943
19175052291
19175059310
19175065413
19175070906
19175077132
19175083968
19175089888
19175094588
19175100691
19175107344
19175114058
19175123702
19175129622
19175135115
19175141951
19175149153
19175154952
19175162337
19175167525
19175175032
19175181624
19175187483
19175193526
19175198958
19175206343
19175211714
19175217512
19175225569
19175231489
19175237349
19175246077
19175250166
19175257673
19175263044
19175269209
19175274885
19175282637
19175288801
19175294783
19175301313
19175307417
19175313948
19175320845
19175327864
19175333357
19175339704
19175346540
19175353193
19175360151
19175366804
19175373213
19175379927
19175387434
19175395063
19175401655
19175408430
19175414655
19175420759
19175428205
19175435163
19175444196
19175455915
19175463789
19175473127
19175480024
19175486921
19175495222
19175502607
19175510480
19175517744
19175525617
19175531782
19175539106
19175546064
19175552045
19175561200
19175567914
19175574567
19175580426
19175587140
19175593244
19175598615
19175605878
19175618390
19175627484
19175635785
19175642011
19175650617
19175658490
19175663800
19175671247
19175677045
19175686017
19175691571
19175697370
19175703656
19175709638
19175715070
19175720990
19175726605
19175733014
19175739362
19175746808
19175751508
19175755963
19175763837
19175768842
19175775983
19175783307
19175790021
19175797528
19175804669
19175811871
19175819379
19175824628
19175835309
19175841839
19175848187
19175855328
19175861004
19175868023
19175876141
19175881268
19175888043
19175896161
19175904095
19175909344
19175917828
19175925030
19175932537
19175938946
19175946453
19175955548
19175965496
19175971478
19175979229
19175988018
19175994854
19176001873
19176009014
19176016033
19176021343
19176029888
19176039898
19176046612
19176054485
19176062603
19176069561
19176077496
19176086407
19176093670
19176099102
19176120464
19176130230
19176138042
19176145855
19176151836
19176157390
19176163189
19176169292
19176175090
19176181560
19176187053
19176193279
19176201275
19176206585
19176213115
19176220012
19176224102
19176232402
19176238201
19176243389
19176249431
19176254741
19176261272
19176266277
19176273418
19176282817
19176289592
19176301433
19176308452
19176314067
19176321758
19176329082
19176334697
19176339824
19176345500
19176352214
19176358989
19176364665
19176369975
19176376567
19176382121
19176389262
19176395366
19176400676
19176407634
19176412028
19176422832
19176429179
19176432658
19176440654
19176446696
19176452128
19176458964
19176464213
19176471232
19176476481
19176481608
19176488444
19176493083
19176498332
19176504618
19176511454
19176516093
19176521525
19176526774
19176532695
19176538493
19176543925
19176549235
19176556925
19176562236
19176568034
19176572856
19176579875
19176585246
19176590128
19176597941
19176602641
19176608134
19176614481
19176620341
19176627360
19176633463
19176638895
19176646281
19176652262
19176659708
19176665934
19176671793
19176677286
19176684794
19176692179
19176698832
19176705241
19176711588
19176719095
19176726053
19176733011
19176739237
19176745951
19176753214
19176759440
19176765238
19176772684
19176778360
19176785257
19176791056
19176798075
19176804728
19176810221
19176816080
19176821817
19176827616
19176833780
19176842691
19176848490
19176854532
19176860880
19176866068
19176875650
19176883158
19176892679
19176900308
19176907755
19176916177
19176920999
19176928201
19176936624
19176943216
19176951089
19176957620
19176965860
19176971658
19176979532
19176988687
19176994424
19177002969
19177008951
19177015176
19177022500
19177028787
19177035318
19177041787
19177048013
19177055276
19177062784
19177069436
19177076333
19177082803
19177089761
19177096048
19177102517
19177109719
19177118447
19177124734
19177129617
19177137673
19177143289
19177150369
19177157693
19177164407
19177169961
19177176858
19177182351
19177189675
19177195107
19177201821
19177209756
19177215249
19177223306
19177229653
19177235574
19177242165
19177250405
19177255593
19177262429
19177269631
19177277627
19177282815
19177291177
19177299050
19177305581
19177311928
19177320778
19177328530
19177334878
19177343361
19177348549
19177357277
19177364846
19177372658
19177377968
19177384743
19177392983
19177400185
19177406594
19177414345
19177421303
19177430947
19177438271
19177445900
19177452797
19177460549
19177467934
19177474648
19177483681
19177493141
19177499245
19177508644
19177514198
19177522133
19177529335
19177536903
19177546791
19177559669
19177567421
19177575661
19177584938
19177593361
19177599708
19177609474
19177615883
19177622780
19177630104
19177636940
19177644569
19177651588
19177658363
19177665626
19177673500
19177680946
19177688514
19177696510
19177705299
19177713661
19177720253
19177727699
19177736305
19177746131
19177753761
19177760292
19177767982
19177774391
19177782325
19177790809
19177800453
19177810523
19177818885
19177825477
19177833717
19177842750
19177848975
19177855750
19177863868
19177871680
19177878089
19177883704
19177889686
19177896155
19177902076
19177909522
19177915504
19177922156
19177926063
19177934302
19177938331
19177945289
19177949805
