19249662085
19249667883
19249673254
19249678137
19249683691
19249689001
19249694189
19249699194
19249703650
19249709204
19249714758
19249720618
19249726111
19249731238
19249737646
19249745398
19249750952
19249758764
19249764502
19249770605
19249776831
19249785620
19249791967
19249797461
19249805456
19249812170
19249818274
19249824072
19249831701
19249839514
19249846289
19249853613
19249861303
19249867773
19249876257
19249889257
19249901037
19249910925
19249920934
19249929357
19249938207
19249946630
19249953771
19249961523
19249969823
19249978063
19249985815
19249994237
19250001745
19250008886
19250017370
19250026037
19250033544
19250043188
19250050268
19250057775
19250066808
19250074071
19250081151
19250088292
19250097509
19250104833
19250112767
19250120824
19250130040
19250136266
19250146032
19250152684
19250161779
19250168431
19250176854
19250184850
19250193395
19250201146
19250210790
19250218297
19250226415
19250235265
19250242955
19250249547
19250260167
19250267491
19250273839
19250281529
19250291600
19250298924
19250305333
19250314549
19250322545
19250330784
19250337803
19250346470
19250354466
19250364842
19250372349
19250381260
19250389744
19250398472
19250406285
19250414708
19250421971
19250428929
19250437596
19250444859
19250452122
19250460362
19250472569
19250478977
19250488316
19250495213
19250502964
19250511570
19250521092
19250531101
19250546360
19250560032
19250571079
19250580296
19250588047
19250601108
19250610935
19250618381
19250624180
19250633274
19250642185
19250648655
19250655063
19250663303
19250672641
19250678501
19250687839
19250696079
19250703769
19250711032
19250718235
19250726780
19250735080
19250741733
19250750522
19250756565
19250765598
19250774143
19250782016
19250790683
19250798862
19250805332
19250815280
19250823825
19250830844
19250838962
19250848361
19250856235
19250866245
19250872958
19250879794
19250890170
19250897372
19250905978
19250913180
19250922092
19250930514
19250938388
19250944125
19250952243
19250961154
19250968600
19250976840
19250986850
19250995822
19251003878
19251010409
19251019748
19251028720
19251037570
19251045199
19251052706
19251060458
19251067782
19251077548
19251085482
19251093905
19251100558
19251108004
19251114840
19251124423
19251130282
19251138766
19251147189
19251155245
19251161105
19251169405
19251177584
19251186434
19251196078
19251204378
19251213045
19251218661
19251226839
19251239535
19251248873
19251257540
19251267183
19251276583
19251285433
19251299166
19251306917
19251314302
19251322908
19251330477
19251337374
19251345980
19251354647
19251361971
19251369478
19251374605
19251383455
19251391329
19251397615
19251407259
19251412752
19251421846
19251429353
19251436739
19251445711
19251452913
19251462434
19251470369
19251477266
19251486055
19251492708
19251501497
19251509309
19251518831
19251525239
19251532564
19251540681
19251549837
19251558870
19251564790
19251572908
19251582246
19251589814
19251599641
19251613191
19251740937
19251751557
19251760285
19251768525
19251777192
19251788605
19251798310
19251807892
19251815949
19251827485
19251836518
19251842743
19251851838
19251860688
19251869050
19251876496
19251884186
19251891938
19251899018
19251909577
19251918305
19251926850
19251935883
19251945465
19251954743
19251962006
19251970978
19251977875
19251984955
19251993256
19252002838
19252012116
19252019135
19252027618
19252033966
19252039520
19252047333
19252052399
19252059906
19252064728
19252072540
19252079925
19252085724
19252091766
19252098541
19252104462
19252112091
19252118561
19252126068
19252133392
19252139740
19252145721
19252152618
19252159698
19252166412
19252173309
19252180755
19252186004
19252193084
19252199920
19252206634
19252213836
19252219940
19252227264
19252232635
19252238250
19252246002
19252253753
19252261016
19252267425
19252274505
19252280975
19252286590
19252292999
19252299774
19252306304
19252314849
19252324065
19252330840
19252337066
19252342742
19252349273
19252352569
19252363494
19252369598
19252375579
19252382537
19252388518
19252393767
19252402190
19252413848
19252425139
19252437652
19252444976
19252451751
19252459319
19252469146
19252477752
19252483428
19252489043
19252497100
19252503203
19252509734
19252516814
19252525237
19252530486
19252536284
19252543547
19252550017
19252557402
19252564299
19252571318
19252577788
19252583891
19252590300
19252597563
19252604399
19252611662
19252618987
19252626616
19252633330
19252641692
19252649504
19252657805
19252664336
19252671355
19252678068
19252685515
19252692473
19252699980
19252706694
19252714262
19252720671
19252728544
19252735136
19252741301
19252748320
19252756926
19252763456
19252769804
19252777800
19252784391
19252791716
19252797941
19252805021
19252813810
19252821012
19252828031
19252838652
19252844023
19252852384
19252860685
19252866545
19252869657
19252885771
19252893339
19252899442
19252906706
19252913419
19252921476
19252928434
19252936430
19252944975
19252952970
19252960050
19252967313
19252974088
19252981107
19252985258
19252994108
19253000394
19253010587
19253016752
19253025297
19253032621
19253040067
19253047452
19253055265
19253063260
19253071988
19253079252
19253084134
19253092496
19253100492
19253108426
19253118131
19253126065
19253133634
19253145169
19253157804
19253169461
19253179044
19253186185
19253193692
19253201260
19253209561
19253217618
19253223843
19253230801
19253238370
19253247586
19253253018
19253262234
19253271451
19253278043
19253283719
19253292386
19253298550
19253306668
19253311612
19253319729
19253326504
19253332791
19253338955
19253346036
19253352627
19253357815
19253364346
19253372647
19253379239
19253384610
19253392056
19253397488
19253404385
19253411526
19253417874
19253424282
19253430630
19253435391
19253441311
19253448208
19253457852
19253464627
19253471279
19253478604
19253485195
19253491238
19253498501
19253506069
19253511257
19253518887
19253525845
19253532681
19253538479
19253545254
19253552273
19253556850
19253564663
19253570644
19253576321
19253582424
19253589138
19253594814
19253601772
19253607204
19253613308
19253618374
19253624843
19253632473
19253638515
19253645473
19253649807
19253656582
19253662746
19253668728
19253674770
19253680996
19253688015
19253692714
19253699611
19253705898
19253711391
19253717495
19253722927
19253729579
19253734706
19253741176
19253747463
19253753871
19253761318
19253769069
19253774684
19253782192
19253789699
19253795558
19253802821
19253809108
19253817043
19253824489
19253830409
19253835963
19253842799
19253849574
19253854945
19253861415
19253867213
19253875575
19253881129
19253887477
19253894496
19253900050
19253905971
19253913356
19253919826
19253924830
19253932155
19253940577
19253945460
19253953456
19253960048
19253966273
19253973719
19253979945
19253985743
19253993739
19253999293
19254006984
19254014979
19254019984
19254028468
19254033656
19254041468
19254046412
19254055506
19254061488
19254069666
19254074915
19254082728
19254088343
19254095973
19254106043
19254114405
19254120509
19254127284
19254134974
19254141566
19254148707
19254155360
19254164210
19254170313
19254177698
19254184595
19254190272
19254197291
19254205652
19254211207
19254218836
19254226710
19254233545
19254240076
19254246607
19254254541
19254262049
19254268824
19254275782
19254281031
19254288111
19254295191
19254301477
19254308313
19254315271
19254321680
19254329248
19254334925
19254342310
19254351099
19254357019
19254365259
19254372827
19254378320
19254388086
19254396448
19254408899
19254415979
19254421716
19254428186
19254435083
19254443079
19254450464
19254456995
19254463831
19254469324
19254476526
19254483057
19254488916
19254497217
19254502038
19254509180
19254516321
19254521264
19254527002
19254534143
19254542383
19254550927
19254557397
19254565942
19254572839
19254580896
19254587915
19254595666
19254603173
19254608606
19254616174
19254622460
19254629602
19254637231
19254643640
19254650781
19254657617
19254664636
19254671166
19254677514
19254687341
19254695153
19254702538
19254709985
19254717980
19254724206
19254732385
19254741235
19254748009
19254754662
19254763573
19254770837
19254780724
19254788659
19254797021
19254804894
19254812646
19254820763
19254828209
19254836754
19254843712
19254850548
19254860192
19254868432
19254875451
19254884240
19254893700
19254900231
19254911644
19254919030
19254926415
19254932579
19254941185
19254947716
19254955040
19254963463
19254968956
19254975609
19254983727
19254989037
19254996666
19255002831
19255011559
19255018700
19255028954
19255037560
19255047081
19255055931
19255064415
19255073570
19255081871
19255090904
19255100181
19255108848
19255119224
19255131065
19255139732
19255148582
19255157676
19255167198
19255176963
19255185875
19255197044
19255208824
19255217063
19255225608
19255235435
19255246238
19255256309
19255264182
19255273460
19255282066
19255291038
19255299522
19255308982
19255318443
19255327903
19255336570
19255345481
19255355003
19255363670
19255374045
19255380515
19255391624
19255400474
19255409812
19255418479
19255429038
19255437705
19255447410
19255455161
19255464133
19255474265
19255482871
19255493003
19255502707
19255509604
19255521079
19255529746
19255538169
19255547446
19255555869
19255566733
19255574362
19255584555
19255594626
19255604697
19255613974
19255623068
19255631552
19255642538
19255651572
19255662131
19255671042
19255681601
19255691366
19255698263
19255711325
19255720968
19255729880
19255738546
19255750021
19255759054
19255769857
19255779257
19255787863
19255800985
19255816610
19255838583
19255860800
19255882833
19255908895
19255932882
19255952474
19255975240
19255995138
19256011678
19256020223
19256028890
19256037862
19256052633
19256071798
19256092305
19256110921
19256125691
19256133504
19256144673
19256153401
19256163350
19256172749
19256182454
19256190450
19256200337
19256209248
19256218770
19256228108
19256241597
19256252217
19256260335
19256269368
19256279195
19256288594
19256297993
19256308308
19256318806
19256328938
19256339314
19256349446
19256359761
19256369099
19256379170
19256389424
19256399800
19256410786
19256421223
19256430317
19256440693
19256449543
19256459492
19256470600
19256483296
19256492939
19256500080
19256510456
19256522480
19256532124
19256541950
19256553608
19256563923
19256574604
19256585590
19256595234
19256606098
19256615742
19256625995
19256637104
19256647175
19256658710
19256670551
19256680194
19256689472
19256698383
19256709857
19256719074
19256729755
19256739948
19256750568
19256759906
19256774616
19256786640
19256798419
19256810504
19256817889
19256831378
19256839374
19256851153
19256860919
19256871234
19256880633
19256884112
19256891925
19256897113
19256905292
19256912311
19256920184
19256926532
19256934527
19256939471
19256945392
19256953814
19256959246
19256968097
19256974566
19256981036
19256988604
19256994220
19257001055
19257009112
19257017779
19257022845
19257030230
19257035174
19257042498
19257046771
19257054522
19257063494
19257068560
19257075884
19257080950
19257086871
19257094317
19257100054
19257108050
19257115313
19257120318
19257127032
19257133135
19257139544
19257145586
19257154864
19257161455
19257167315
19257175921
19257182635
19257191302
19257198260
19257207232
19257214129
19257219988
19257228960
19257234087
19257241533
19257247637
19257253313
19257260637
19257266985
19257273027
19257280474
19257285967
19257292742
19257301836
19257307817
19257312578
19257320207
19257325701
19257331194
19257336992
19257343950
19257350176
19257356890
19257362322
19257368791
19257375078
19257379533
19257387224
19257394853
19257400591
19257407488
19257415239
19257422746
19257427995
19257436174
19257443559
19257453142
19257462236
19257468828
19257475236
19257480180
19257486345
19257491655
19257497514
19257503679
19257509782
19257514970
19257520891
19257526872
19257533098
19257539018
19257545488
19257551042
19257557084
19257564042
19257569963
19257576188
19257582170
19257588090
19257593583
19257599626
19257603837
19257612260
19257616044
19257627519
19257632646
19257639665
19257647050
19257651689
19257659379
19257666032
19257671342
19257676591
19257683366
19257689469
19257693925
19257701310
19257708451
19257713822
19257718888
19257726701
19257732682
19257737992
19257743912
19257750931
19257756425
19257762772
19257768693
19257775407
19257782181
19257788407
19257793839
19257799821
19257806840
19257812699
19257818741
19257825760
19257833329
19257840043
19257845292
19257852555
19257858719
19257864029
19257872513
19257879410
19257885880
19257891983
19257899735
19257905411
19257911087
19257918228
19257926834
19257932205
19257938797
19257945572
19257950699
19257958023
19257964554
19257972550
19257979080
19257991531
19258001053
19258008621
19258015335
19258024490
19258033585
19258040237
19258045975
19258052872
19258059219
19258065933
19258073318
19258079483
19258085342
19258091018
19258096939
19258103714
19258111526
19258117813
19258123916
19258130020
19258137100
19258145523
19258153091
19258160415
19258168289
19258176162
19258183975
19258190506
19258196975
19258202285
19258209732
19258217422
19258225601
19258232253
19258240066
19258246780
19258253127
19258257766
19258267165
19258273391
19258280166
19258286453
19258293411
19258299453
19258306594
19258312576
19258320083
19258325515
19258332107
19258337295
19258343948
19258350478
19258356216
19258363662
19258371596
19258377273
19258383071
19258389907
19258395766
19258401809
19258408339
19258416518
19258423537
19258430129
19258438369
19258445021
19258452163
19258458388
19258464431
19258470595
19258477919
19258485183
19258492568
19258499404
19258507460
19258514723
19258520400
19258528151
19258536086
19258543349
19258548842
19258556716
19258563857
19258569533
19258577834
19258586501
19258592482
19258602919
19258612135
19258621107
19258628371
19258637221
19258647536
19258656386
19258666212
19258674635
19258681715
19258687758
19258693922
19258702833
19258709120
19258714918
19258720472
19258727369
19258732985
19258739760
19258746595
19258753798
19258762709
19258768507
19258776991
19258782911
19258789320
19258797010
19258804762
19258812696
19258820387
19258827955
19258835096
19258841017
19258850111
19258855055
19258864820
19258870496
19258879408
19258884168
19258891309
19258899793
19258906568
19258915601
19258921888
19258929945
19258938428
19258945631
19258952955
19258959730
19258966993
19258972913
19258980604
19258989820
19258995252
19259002698
19259010206
19259016980
19259025647
19259032056
19259040052
19259046338
19259053235
19259062268
19259068006
19259078138
19259084912
19259092176
19259099439
19259107190
19259115796
19259124646
19259131299
19259139173
19259147962
19259154004
19259162122
19259170606
19259178845
19259187817
19259195630
19259204358
19259212720
19259218701
19259225293
19259235303
19259242505
19259251782
19259258740
19259269116
19259275464
19259282117
19259289929
19259298718
19259306469
19259315320
19259323559
19259330334
19259338208
19259345532
19259354504
19259358899
19259369274
19259373913
19259384777
19259391552
19259401501
19259408459
19259418041
19259427075
19259435559
19259444225
19259451977
19259458752
19259466503
19259474499
19259481884
19259488537
19259494030
19259502880
19259508923
19259515331
19259524670
19259532787
19259537487
19259546398
19259551098
19259560314
19259568371
19259575939
19259580578
19259589000
19259596752
19259602672
19259609447
19259618969
19259626232
19259632152
19259639537
19259645458
19259652538
19259661815
19259667675
19259677318
19259683910
19259691478
19259698925
19259706859
19259716442
19259724315
19259729869
19259737865
19259746410
19259754039
19259761546
19259768626
19259777843
19259784007
19259792552
19259798656
19259808177
19259815929
19259824046
19259830394
19259837169
19259846934
19259853282
19259859874
19259870921
19259878306
19259889659
19259896190
19259906627
19259915049
19259922801
19259930003
19259937449
19259944102
19259953074
19259962046
19259968089
19259977854
19259984202
19259990428
19260001048
19260009104
19260017283
19260024241
19260032115
19260038035
19260046580
19260050486
19260060679
19260067454
19260074534
19260085032
19260092661
19260100108
19260105418
19260116038
19260123240
19260131296
19260137339
19260145090
19260153391
19260162302
19260171946
19260178538
19260185679
19260195139
19260204844
19260213877
19260221567
19260229380
19260236094
19260244516
19260254221
19260260752
19260268686
19260276377
19260283091
19260289621
19260295786
19260302133
19260308176
19260316599
19260323435
19260331003
19260336313
19260344309
19260350168
19260357126
19260362680
19260369333
19260375436
19260380563
19260387827
19260395029
19260401682
19260407724
19260414438
19260422006
19260428598
19260435068
19260441354
19260448495
19260455209
19260459848
19260467111
19260472909
19260480111
19260486459
19260492380
19260499154
19260504464
19260510629
19260517953
19260524789
19260529916
19260537301
19260544259
19260549813
19260555490
19260562753
19260567636
19260574472
19260579965
19260586373
19260591256
19260597543
19260603036
19260609567
19260615853
19260622689
19260627755
19260632760
19260639230
19260644418
19260651498
19260658212
19260664437
19260668954
19260675485
19260680673
19260686593
19260693307
19260699899
19260706918
19260711678
19260718209
19260723031
19260728890
19260734322
19260741524
19260748971
19260753548
19260760140
19260766366
19260771798
19260777291
19260785042
19260791512
19260798836
19260804146
19260811165
19260819100
19260825264
19260830819
19260838448
19260845955
19260850777
19260857491
19260863655
19260868782
19260874520
19260881661
19260889290
19260894234
19260901253
19260908760
19260915047
19260921700
19260927620
19260933968
19260940193
19260946175
19260953804
19260959541
19260967415
19260972054
19260979866
19260987923
19260993660
19260999458
19261006294
19261011848
19261018867
19261024361
19261032356
19261040352
19261047676
19261055794
19261063057
19261070564
19261075752
19261083809
19261091682
19261096809
19261104377
19261112129
19261118660
19261125496
19261132087
19261138130
19261146247
19261153022
19261159797
19261166694
19261172981
19261179328
19261187202
19261194282
19261200019
19261206306
19261213142
19261219245
19261225288
19261230171
19261237251
19261244270
19261249580
19261258125
19261263862
19261269843
19261276801
19261282600
19261290717
19261296455
19261303413
19261308723
19261315620
19261320869
19261327888
19261333747
19261339789
19261347358
19261354499
19261359443
19261367133
19261371894
19261378303
19261385444
19261393073
19261398749
19261404792
19261411872
19261419684
19261425177
19261433722
19261441230
19261449225
19261458319
19261466193
19261475287
19261480963
19261489142
19261495978
19261503424
19261509467
19261516547
19261523139
19261529059
19261536688
19261545172
19261552557
19261559393
19261567694
19261573676
19261580512
19261588080
19261594855
19261600775
19261610480
19261615912
19261623663
19261629340
19261635260
19261640631
19261648016
19261655768
19261663153
19261669195
19261676947
19261682318
19261690619
19261698553
19261705389
19261714605
19261725103
19261733892
19261741461
19261749884
19261758306
19261765325
19261773687
19261780645
19261786932
19261793463
19261799566
19261805609
19261811590
19261819464
19261826727
19261832952
19261839849
19261845770
19261851629
19261857610
19261863470
19261871465
19261877691
19261883672
19261889959
19261895940
19261902044
19261908269
19261915716
19261923223
19261928960
19261934148
19261940923
19261946355
19261952947
19261959905
19261964483
19261971685
19261976690
19261984746
19261992071
19261997625
19262002813
19262009710
19262017827
19262023687
19262029119
19262035711
19262041814
19262046880
19262052800
19262060186
19262068120
19262074468
19262081182
19262086248
19262094060
19262101384
19262107121
19262116765
19262122563
19262130010
19262135503
19262141057
19262147588
19262152409
19262159612
19262167912
19262174504
19262180058
19262185979
19262191472
19262196965
19262203679
19262210088
19262216374
19262221196
19262227605
19262232243
19262239567
19262243352
19262249882
19262257268
19262263920
19262269414
19262274296
19262280522
19262285710
19262291935
19262297429
19262303654
19262309391
19262313481
19262319889
19262325932
19262331608
19262339665
19262345158
19262350163
19262356816
19262361088
19262367436
19262372258
19262378788
19262385502
19262391728
19262396977
19262400944
19262409245
19262414616
19262421696
19262428593
19262435368
19262440739
19262446842
19262453068
19262458561
19262464298
19262469486
19262476994
19262482059
19262489750
19262494083
19262501957
19262508060
19262514774
19262521122
19262529667
19262538822
19262544071
19262551456
19262558719
19262564945
19262573063
19262580387
19262585575
19262592655
19262598880
19262606205
19262612919
19262620304
19262626468
19262633243
19262641239
19262647220
19262655216
19262662662
19262671695
19262678226
19262683475
19262691471
19262696903
19262705997
19262712650
19262718936
19262725101
19262733096
19262739383
19262745975
19262752628
19262759219
19262765567
19262771915
19262779788
19262785648
19262791263
19262798953
19262804629
19262812625
19262817813
19262826053
19262831851
19262838992
19262844180
19262851077
19262857852
19262863162
19262870242
19262877871
19262884585
19262891116
19262897830
19262904178
19262910830
19262917788
19262924319
19262930178
19262938052
19262943728
19262949710
19262956912
19262963259
19262970706
19262977236
19262983462
19262989443
19262995669
19263003115
19263010378
19263015566
19263023135
19263028567
19263036440
19263041384
19263048708
19263053774
19263060732
19263068240
19263074221
19263080141
19263088381
19263093752
19263100100
19263107302
19263113406
19263119387
19263128420
19263134218
19263142946
19263150210
19263156985
19263164187
19263170901
19263176821
19263185915
19263192019
19263198305
19263204714
19263211672
19263217348
19263223269
19263229311
19263237185
19263243898
19263249941
19263256838
19263262880
19263270021
19263277162
19263285890
19263293337
19263300417
19263307436
19263314394
19263322267
19263329653
19263339540
19263346681
19263354067
19263360902
19263370912
19263377992
19263386232
19263393190
19263399416
19263405641
19263413942
19263419862
19263428041
19263433534
19263442262
19263447328
19263455751
19263461915
19263470338
19263475831
19263484926
19263491151
19263498292
19263505983
19263512513
19263519410
19263526368
19263535279
19263542604
19263548768
19263556214
19263563295
19263570436
19263577272
19263584840
19263591981
19263599793
19263607118
19263616212
19263622437
19263631715
19263639466
19263646974
19263654908
19263662293
19263669312
19263676392
19263682008
19263690430
19263695985
19263704163
19263710999
19263718384
19263724671
19263730530
19263736451
19263742432
19263749085
19263755494
19263762086
19263769837
19263776612
19263782349
19263787415
19263794861
19263801209
19263806702
19263812867
19263820374
19263826172
19263833069
19263840149
19263847473
19263855164
19263864563
19263870728
19263877198
19263884766
19263891358
19263896729
19263902649
19263909912
19263917236
19263924256
19263931397
19263938110
19263942993
19263948608
19263955139
19263962036
19263968994
19263975342
19263984192
19263991760
19263998352
19264005981
19264013122
19264021484
19264027527
19264035217
19264042114
19264049011
19264056396
19264062744
19264068542
19264075256
19264081543
19264087097
19264093689
19264101013
19264107361
19264112793
19264118774
19264125854
19264130981
19264137939
19264144836
19264151672
19264157775
19264164550
19264170471
19264177368
19264184509
19264191589
19264198486
19264203124
19264211364
19264216979
19264224426
19264230895
19264238220
19264245483
19264251952
19264258788
19264265929
19264272582
19264278503
19264285888
19264293273
19264299316
19264306457
19264313476
19264320312
19264326659
19264333922
19264340575
19264347716
19264355651
19264360656
19264368346
19264375426
19264381408
19264388793
19264396239
19264402892
19264410155
19264416686
19264424193
19264430419
19264438231
19264445922
19264452086
19264460570
19264466490
19264473143
19264481261
19264488829
19264493895
19264502867
19264509093
19264515196
19264521666
19264529356
19264538146
19264544798
19264552611
19264558470
19264565550
19264571898
19264581908
19264589598
19264599852
19264607481
19264615294
19264624205
19264629454
19264636839
19264645384
19264651488
19264656370
19264664122
19264669737
19264675963
19264682982
19264689024
19264694944
19264701170
19264707823
19264713682
19264719481
19264725523
19264731626
19264739195
19264745176
19264751036
19264756712
19264764097
19264769407
19264777403
19264783201
19264791319
19264795896
19264803526
19264808897
19264815977
19264821470
19264828794
19264834959
19264839964
19264847105
19264851988
19264859800
19264864805
19264872129
19264877683
19264885252
19264894590
19264901914
19264909849
19264916624
19264923521
19264930112
19264937620
19264944700
19264951475
19264958310
19264964536
19264972104
19264980588
19264986570
19264994260
19265002012
19265008237
19265015134
19265023252
19265029843
19265036557
19265044736
19265050412
19265056333
19265062680
19265070249
19265076657
19265083798
19265091489
19265098569
19265108823
19265114743
19265121579
19265128110
19265135800
19265143735
19265152890
19265161008
19265168942
19265177182
19265186032
19265192990
19265201596
19265208127
19265216611
19265222592
19265231076
19265239133
19265248349
19265260800
19265273495
19265281186
19265294369
19265304196
19265313351
19265319333
19265327999
19265335812
19265341793
19265350033
19265357296
19265361080
19265370297
19265376583
19265382992
19265389034
19265395016
19265400082
19265406002
19265412167
19265418270
19265424679
19265431332
19265436825
19265444210
19265448788
19265454464
19265459408
19265466854
19265471432
19265478451
19265483883
19265489132
19265494381
19265501522
19265506710
19265514217
19265519527
19265527157
19265532955
19265540584
19265545101
19265552974
19265557491
19265564388
19265570369
19265576351
19265582882
19265587581
19265595333
19265599971
19265607418
19265615779
19265621273
19265627742
19265634456
19265639644
19265645931
19265650325
19265656856
19265664485
19265669490
19265678523
19265684078
19265691524
19265697322
19265701778
19265710445
19265715083
19265721858
19265727596
19265733882
19265738826
19265745357
19265752620
19265758907
19265764278
19265770686
19265777034
19265782161
19265788570
19265794307
19265800716
19265807551
19265813228
19265819575
19265824153
19265832942
19265839534
19265848994
19265855647
19265863460
19265868586
19265876277
19265888057
19265894343
19265900447
19265906428
19265913508
19265918452
19265926081
19265932185
19265938777
19265944575
19265951411
19265958979
19265963984
19265971491
19265978572
19265984919
19265990656
19265998103
19266004267
19266010432
19266016474
19266022639
19266029353
19266037165
19266043574
19266049250
19266055964
19266063288
19266069575
19266076899
19266083918
19266088862
19266096735
19266103815
19266110285
19266117121
19266123713
19266131708
19266138910
19266143854
19266150629
19266157587
19266164728
19266171137
19266178705
19266184748
19266191217
19266200434
19266207575
19266214899
19266221003
19266228876
19266233759
19266241327
19266249628
19266254938
19266263117
19266267938
19266275934
19266283686
19266290216
19266298334
19266305109
19266311701
19266318475
19266325922
19266332758
19266339044
19266346613
19266353082
19266360345
19266367426
19266372369
19266380426
19266387140
19266393915
19266400995
19266408502
19266413202
19266420587
19266426691
19266433954
19266441156
19266446283
19266453912
19266460992
19266467645
19266473382
19266480340
19266492975
19266499322
19266508050
19266513848
19266521417
19266528558
19266537469
19266545892
19266552972
19266558160
19266565911
19266573663
19266580621
19266587762
19266595269
19266601617
19266608880
19266615045
19266620355
19266629266
19266636102
19266642571
19266649468
19266656304
19266663445
19266670098
19266677361
19266684563
19266691338
19266700432
19266707696
19266714959
19266722161
19266729485
19266737603
19266744866
19266751580
19266758660
19266766045
19266775261
19266782647
19266789544
19266796441
19266804070
19266811028
19266820061
19266828057
19266836418
19266843315
19266851128
19266858025
19266864189
19266871147
19266877434
19266885735
19266892021
19266900627
19266907402
19266915215
19266921928
19266928276
19266937920
19266944878
19266952995
19266961357
19266969109
19266975639
19266985344
19266991753
19266999138
19267006706
19267014397
19267023247
19267031181
19267038078
19267045524
19267052055
19267060295
19267066887
19267078483
19267085685
19267092704
19267099357
19267106559
19267113517
19267119987
19267125236
19267133781
19267139213
19267147270
19267153251
19267159599
19267166740
19267174858
19267180900
19267190299
19267196830
19267202262
19267210929
19267218131
19267224540
19267235343
19267243400
19267249809
19267256400
19267262382
19267268241
19267274284
19267284049
19267289359
19267295402
19267302360
19267308707
19267316215
19267322440
19267330558
19267336295
19267343497
19267348990
19267357047
19267363028
19267367911
19267375419
19267379996
19267388968
19267394095
19267399649
19267406485
19267411490
19267418326
19267423270
19267429496
19267435843
19267441214
19267448050
19267455130
19267461295
19267466666
19267472891
19267479972
19267486197
19267491202
19267497550
19267502799
19267509879
19267514334
19267521903
19267527640
19267533011
19267538931
19267545096
19267550101
19267558218
19267564261
19267570547
19267577872
19267582877
19267589346
19267594717
19267601431
19267608084
19267615286
19267620779
19267627737
19267634268
19267640494
19267647329
19267654471
19267660086
19267667471
19267672842
19267679983
19267686148
19267694571
19267702383
19267705923
19267715383
19267720633
19267728201
19267734915
19267742178
19267750051
19267756826
19267763296
19267768667
19267777029
19267785330
19267791982
19267803335
19267811208
19267818044
19267824209
19267833425
19267840688
19267848684
19267856130
19267861013
19267867117
19267874441
19267881948
19267887319
19267896474
19267901418
19267909170
19267915456
19267923330
19267929067
19267935232
19267942251
19267948537
19267957387
19267963369
19267970632
19267978383
19267985158
19267991262
19267997792
19268005422
19268011586
19268019094
19268024770
19268032521
19268038686
19268046559
19268054799
19268061940
19268069997
19268076344
19268082936
19268089772
19268095632
19268102529
19268110036
19268117299
19268122121
19268128957
19268136037
19268142628
19268150136
19268155995
19268164479
19268170521
19268176564
19268183705
19268190541
19268195546
19268204335
19268211720
19268219349
19268224415
19268231618
19268237965
19268245228
19268253590
19268259694
19268267750
19268275441
19268283375
19268291493
19268299122
19268306019
19268312733
19268320423
19268328602
19268336109
19268342640
19268349476
19268356739
19268362782
19268368641
19268375721
19268383167
19268389332
19268397816
19268404835
19268412769
19268418507
19268427601
19268436146
19268444263
19268452564
19268459888
19268470875
19268477161
19268486805
19268495411
19268503284
19268511463
19268518848
19268525989
19268532703
19268539356
19268546192
19268554249
19268560718
19268567798
19268575123
19268582080
19268591358
19268598011
19268607654
19268614490
19268622547
19268630664
19268638050
19268644458
19268651905
19268660755
19268668506
19268676624
19268683460
19268690173
19268697131
19268704883
19268712329
19268718189
19268725940
19268734851
19268742786
19268751208
19268758960
19268764758
19268772327
19268780078
19268788440
19268794910
19268805224
19268812671
19268820971
19268827014
19268834887
19268840564
19268849475
19268858935
19268867724
19268873584
19268881884
19268887011
19268893664
19268900988
19268906543
19268913745
19268922045
19268928698
19268934680
19268940417
19268946459
19268953173
19268959094
19268966418
19268973742
19268978442
19268985034
19268990161
19268997729
19269004931
19269011523
19269017626
19269024645
19269031420
19269036547
19269043444
19269050585
19269055956
19269064440
19269070116
19269076159
19269082751
19269089342
19269095202
19269102892
19269110460
19269115893
19269123217
19269128527
19269136767
19269143236
19269150316
19269155565
19269162401
19269170031
19269176683
19269182482
19269187914
19269195848
19269202196
19269209154
19269214891
19269221178
19269227343
19269231920
19269237841
19269244676
19269251879
19269257555
19269263109
19269269213
19269274889
19269281175
19269288561
19269294969
19269301561
19269306871
19269313280
19269318346
19269325121
19269331529
19269337938
19269345872
19269352220
19269357896
19269364000
19269369859
19269376817
19269384325
19269389818
19269396348
19269405199
19269411363
19269416978
19269424058
19269430467
19269438585
19269446336
19269452256
19269458604
19269466417
19269472337
19269479722
19269487718
19269494676
19269501084
19269509080
19269515184
19269521287
19269528611
19269534532
19269542283
19269548936
19269556626
19269562852
19269570725
19269577744
19269582688
19269591844
19269596909
19269604783
19269612534
19269618882
19269625535
19269631944
19269638535
19269645066
19269653184
19269660386
19269665574
19269672471
19269678818
19269686814
19269692673
19269700974
19269707688
19269717942
19269735520
19269748276
19269757126
19269767563
19269776169
19269783432
19269790635
19269798630
19269806015
19269812241
19269820786
19269827988
19269835739
19269843674
19269851547
19269857895
19269864792
19269871201
19269877548
19269884812
19269890976
19269898422
19269904099
19269911423
19269919418
19269924545
19269933640
19269938522
19269945847
19269952621
19269960007
19269964523
19269971542
19269980453
19269986435
19269994369
19269999924
19270005478
19270013107
19270021103
19270026840
19270034225
19270040634
19270047470
19270054733
19270061081
19270068405
19270076278
19270082260
19270089340
19270096481
19270104293
19270112960
19270117904
19270126144
19270134628
19270141036
19270148483
19270156478
19270164169
19270173324
19270180099
19270187423
19270195297
19270201461
19270209945
19270217574
19270224776
19270233077
19270241195
19270248031
19270255965
19270266097
19270272994
19270281112
19270287520
19270296432
19270302962
19270311873
19270318526
19270325973
19270333907
19270340194
19270347823
19270356551
19270364364
19270372847
19270379683
19270386214
19270398238
19270411422
19270423995
19270436263
19270446883
19270463301
19270473494
19270486922
19270495467
19270504439
19270511702
19270522017
19270529768
19270537398
19270548628
19270558394
19270567427
19270574568
19270584273
19270594710
19270603010
19270609053
19270617171
19270622542
19270629683
19270635237
19270642073
19270649824
19270654402
19270662947
19270667769
19270674482
19270679304
19270687056
19270693098
19270700361
19270705244
19270712446
19270718550
19270725141
19270730207
19270736494
19270743086
19270747480
19270755171
19270760298
19270767805
19270772993
19270779829
19270785017
19270792280
19270798689
19270803877
19270810163
19270816755
19270822736
19270829206
19270834821
19270839155
19270847028
19270852949
19270859907
19270865400
19270870832
19270877424
19270884138
19270889081
19270895307
19270901227
19270906537
19270911909
19270917585
19270924116
19270929609
19270934675
19270941999
19270947614
19270953412
19270958661
19270963971
19270969648
19270975812
19270981244
19270986310
19270991193
19270997358
19271003400
19271009381
19271015851
19271022504
19271027997
19271036542
19271044660
19271057843
19271065839
19271073895
19271081464
19271086835
19271097150
19271102582
19271109357
19271117841
19271124554
19271132977
19271139752
19271146161
19271153119
19271160870
19271167767
19271178998
19271187482
19271193829
19271212689
19271220379
19271229107
19271234112
19271242230
19271250714
19271257489
19271264935
19271269940
19271277081
19271285077
19271293011
19271299420
19271307293
19271314312
19271320477
19271328411
19271335613
19271342449
19271349652
19271356365
19271362591
19271367840
19271375775
19271383465
19271390911
19271398174
19271405315
19271411785
19271418194
19271426861
19271433331
19271442059
19271450359
19271456524
19271462810
19271471538
19271478191
19271485882
19271491070
19271497906
19271506695
19271513164
19271519939
19271526287
19271533123
19271541301
19271547832
19271556072
19271563518
19271569439
19271576702
19271585125
19271592632
19271600811
19271610210
19271615947
19271625652
19271632854
19271645366
19271652812
19271659221
19271666362
19271673808
19271680766
19271686015
19271694988
19271700664
19271707805
19271713664
19271720195
19271727275
19271733806
19271739909
19271747050
19271753825
19271761455
19271769450
19271775493
19271782512
19271789470
19271799357
19271805888
19271812663
19271821086
19271826823
19271836039
19271842692
19271851420
19271857829
19271866069
19271872660
19271880595
19271888041
19271895793
19271903544
19271911235
19271917765
19271926249
19271932963
19271940165
19271948466
19271955851
19271965190
19271971598
19271980387
19271985087
19271994669
19272002177
19272010294
19272019877
19272027201
19272035136
19272042094
19272049967
19272057169
19272067667
19272075175
19272084269
19272091166
19272100748
19272109293
19272118448
19272126688
19272132975
19272141886
19272148600
19272157694
19272165873
19272173563
19272181925
19272191996
19272199503
19272207071
19272215128
19272221964
19272229776
19272237039
19272244608
19272251077
19272259378
19272266763
19272274759
19272281595
19272288370
19272295938
19272302835
19272307718
19272318399
19272323831
19272331033
19272337503
19272345010
19272350748
19272356546
19272362405
19272368875
19272375345
19272381021
19272388711
19272394937
19272400186
19272406839
19272411905
19272416971
19272423501
19272429727
19272434854
19272442483
19272448953
19272454995
19272460733
19272466836
19272472085
19272480447
19272487283
19272492288
19272498757
19272503762
19272509378
19272516336
19272520425
19272527261
19272534646
19272540811
19272545693
19272551736
19272559121
19272564248
19272570535
19272577004
19272582803
19272587808
19272592385
19272600930
19272606179
19272611184
19272621377
19272627297
19272633096
19272639687
19272644753
19272650552
19272657204
19272663613
19272670083
19272675271
19272680276
19272688210
19272693337
19272699929
19272705483
19272712075
19272718606
19272723305
19272730874
19272736977
19272742592
19272749855
19272756813
19272760598
19272767373
19272774880
19272779702
19272786843
19272793129
19272800026
19272806008
19272813332
19272819863
19272826332
19272833473
19272841713
19272849526
19272858925
19272867104
19272872719
19272880226
19272887978
19272895546
19272902260
19272910194
19272916481
19272923500
19272930824
19272937782
19272945534
19272952003
19272957924
19272965919
19272971840
19272978004
19272984962
19272990822
19272999367
19273004982
19273011329
19273017738
19273023597
19273031349
19273040809
19273048561
19273055397
19273060524
19273070411
19273074440
19273085121
19273091407
19273099281
19273107337
19273113624
19273121620
19273127357
19273139259
19273147804
19273154395
19273160194
19273167701
19273173133
19273178809
19273186012
19273192603
19273200538
19273210975
19273217445
19273223243
19273228919
19273236426
19273243507
19273250281
19273256751
19273262549
19273269141
19273275611
19273282996
19273290687
19273295936
19273303687
19273309546
19273316077
19273323035
19273328833
19273337012
19273344397
19273350989
19273357154
19273363868
19273370459
19273376014
19273383399
19273390479
19273396765
19273403540
19273410071
19273415442
19273423926
19273432288
19273441687
19273448828
19273456519
19273464453
19273470679
19273479041
19273485999
19273494055
19273500769
19273509253
19273516333
19273522375
19273530615
19273535864
19273545569
19273551184
19273559058
19273566199
19273571509
19273577978
19273586035
19273591711
19273599402
19273606177
19273611120
19273619543
19273626745
19273633886
19273640600
19273648779
19273656042
19273663061
19273671179
19273677526
19273685705
19273691626
19273700415
19273708837
19273715612
19273721960
19273730505
19273738012
19273745153
19273754553
19273762243
19273771276
19273780798
19273788915
19273796850
19273807226
19273816320
19273824438
19273834386
19273841772
19273849157
19273859228
19273867711
19273875036
19273885045
19273892492
19273901525
19273908422
19273917760
19273925206
19273933446
19273940770
19273948400
19273957372
19273964269
19273972203
19273980992
19273988927
19273994542
19274000218
19274005895
19274013463
19274020116
19274026830
19274032811
19274037389
19274044591
19274051549
19274057652
19274063512
19274069676
19274076085
19274082372
19274087499
19274096288
19274103307
19274109654
19274117467
19274125340
19274131932
19274138158
19274146580
19274152623
19274160130
19274166783
19274173985
19274179906
19274183079
19274191746
19274198521
19274203160
19274208775
19274213292
19274218968
19274224705
19274229710
19274237584
19274244664
19274249119
19274254490
19274260106
19274264256
19274270604
19274278294
19274283421
19274288914
19274294773
19274299839
19274305943
19274312107
19274317356
19274322544
19274328343
19274335240
19274341282
19274344944
19274351353
19274355930
19274363499
19274368382
19274374546
19274380405
19274385655
19274392612
19274399570
19274406345
19274412449
19274420444
19274426670
19274433079
19274440220
19274446751
19274452488
19274459202
19274467319
19274474521
19274484104
19274490024
19274497410
19274505893
19274514377
19274519932
19274527683
19274536411
19274541538
19274548252
19274555088
19274562168
19274569980
19274575840
19274584323
19274591831
19274598056
19274608066
19274614109
19274620822
19274627902
19274636691
19274643222
19274652133
19274659946
19274667575
19274675327
19274682834
19274690036
19274697726
19274705356
19274711154
19274718478
19274725864
19274731479
19274737765
19274743381
19274748691
19274756137
19274762729
19274769382
19274775973
19274780734
19274788119
19274793368
19274800693
19274807467
19274814486
19274821566
19274827304
19274834201
19274839572
19274847384
19274855624
19274860324
19274866305
19274873873
19274879489
19274885836
19274890841
19274898165
19274904757
19274910494
19274916720
19274923129
19274929476
19274936373
19274943026
19274949984
19274957064
19274961520
19274968600
19274975619
19274982577
19274988985
19274996981
19275003207
19275010348
19275016878
19275022189
19275030672
19275037813
19275047030
19275053683
19275059359
19275066866
19275073946
19275080721
19275088900
19275097078
19275106112
19275113985
19275119417
19275128267
19275134371
19275144075
19275152315
19275160494
19275167574
19275173128
19275182344
19275191378
19275200594
19275208711
19275214754
19275224703
19275230440
19275240450
19275247713
19275256868
19275265230
19275273714
19275281465
19275288240
19275296236
19275306184
19275315462
19275322176
19275329683
19275335725
19275343721
19275351716
19275359834
19275366670
19275375093
19275381868
19275389497
19275396577
19275403230
19275411226
19275421296
19275428682
19275438142
19275445283
19275454438
19275461213
19275467683
19275477327
19275485261
19275494538
19275501252
19275508576
19275516633
19275525361
19275531953
19275538911
19275547883
19275556733
19275563142
19275571442
19275578889
19275586579
19275591523
19275599824
19275607636
19275615144
19275620881
19275626679
19275632294
19275638703
19275644318
19275649995
19275657258
19275662995
19275669404
19275675995
19275682465
19275688141
19275692719
19275700776
19275707245
19275712800
19275718110
19275724823
19275729889
19275737153
19275742524
19275749298
19275753998
19275760712
19275767670
19275772065
19275779755
19275784760
19275794892
19275800141
19275806916
19275812348
19275818756
19275824188
19275831696
19275838471
19275842865
19275850189
19275854584
19275861664
19275865997
19275872223
19275879181
19275883759
19275889191
19275895721
19275902679
19275908722
19275914642
19275922394
19275927765
19275933197
19275940643
19275946869
19275953033
19275957611
19275963775
19275970794
19275975799
19275980926
19275987701
19275992706
19275998138
19276004730
19276009552
19276016632
19276021576
19276026764
19276032806
19276038665
19276045379
19276050628
19276057037
19276063079
19276069366
19276076080
19276080352
19276088104
19276093902
19276100738
19276107025
19276113311
19276119781
19276126129
19276131744
19276139434
19276147064
19276152618
19276159087
19276166351
19276171050
19276179229
19276185210
19276192535
19276199554
19276206084
19276212493
19276220428
19276225860
19276234161
19276241912
19276249480
19276255523
19276262359
19276269988
19276276519
19276283721
19276291167
19276295623
19276304595
19276311248
19276318938
19276330291
19276337127
19276342986
19276350982
19276356902
19276365142
19276370452
19276378936
19276385405
19276391814
19276398772
19276405791
19276412627
19276420012
19276426360
19276435027
19276441496
19276449431
19276455962
19276465666
19276474150
19276481352
19276487090
19276496367
19276503020
19276512358
19276520842
19276526884
19276533171
19276540678
19276547697
19276552702
19276561857
19276569121
19276577116
19276582731
19276590056
19276597441
19276604521
19276610869
19276618254
19276624479
19276630461
19276638395
19276644987
19276652189
19276658964
19276666716
19276673002
19276680082
19276686369
19276692839
19276701322
19276708219
19276716459
19276723783
19276731230
19276737882
19276743742
19276751371
19276758024
19276768095
19276774015
19276781583
19276788908
19276798368
19276806486
19276813505
19276821622
19276830167
19276838529
19276845792
19276854520
19276862089
19276870817
19276881009
19276887723
19276896573
19276904325
19276911771
19276920865
19276930204
19276936368
19276946134
19276954618
19276962552
19276971036
19276978421
19276989591
19276995694
19277006192
19277014615
19277022183
19277030240
19277040616
19277048245
19277055997
19277065396
19277072232
19277080960
19277088651
19277095303
19277106656
19277113003
19277125394
19277133389
19277141324
19277151944
19277159390
19277168423
19277178128
19277193570
19277203701
19277209988
19277219265
19277225552
19277235379
19277241421
19277250393
19277256680
19277266995
19277273037
19277282315
19277288235
19277296231
19277303433
19277309109
19277316433
19277321926
19277329495
19277336453
19277343960
19277349270
19277356228
19277362454
19277367764
19277373135
19277380581
19277387905
19277392727
19277400600
19277405056
19277411343
19277415676
19277424160
19277431545
19277436977
19277443569
19277450771
19277458950
19277465542
19277472927
19277480922
19277487270
19277492824
19277499782
19277506313
19277513759
19277520473
19277527858
19277533352
19277539699
19277548366
19277553310
19277560146
19277565212
19277571804
19277577480
19277583644
19277588954
19277595363
19277602199
19277607570
19277613246
19277620082
19277626186
19277633144
19277637477
19277644435
19277651332
19277656886
19277662929
19277669765
19277674342
19277681361
19277686732
19277692714
19277699611
19277705409
19277712611
19277717982
19277724269
19277730189
19277738856
19277749965
19277759486
19277765590
19277773951
19277780055
19277788661
19277795436
19277799830
19277808009
19277814113
19277819728
19277826381
19277833400
19277839137
19277846339
19277853236
19277858119
19277864466
19277872950
19277878810
19277884669
19277892420
19277898036
19277904872
19277909632
19277917323
19277923609
19277930628
19277936854
19277943324
19277949610
19277957484
19277964014
19277970240
19277976160
19277983668
19277989832
19277995509
19278002467
19278008326
19278016016
19278022669
19278027552
19278033961
19278040308
19278046229
19278053309
19278062647
19278067957
19278074915
19278081751
19278088465
19278094751
19278102747
19278110010
19278114771
19278121851
19278128443
19278135462
19278142847
19278148523
19278154810
19278162500
19278167871
19278175135
19278180872
19278186731
19278194483
19278200281
19278207666
19278214258
19278221033
19278227014
19278233362
19278239404
19278246484
19278252710
19278258997
19278266504
19278271631
19278278833
19278286645
19278293726
19278299890
19278306604
19278312891
19278318567
19278328638
19278336511
19278340600
19278349939
19278356714
19278365869
19278375512
19278384607
19278391748
19278399255
19278404748
19278412133
19278417810
19278425622
19278431726
19278438806
19278443933
19278451196
19278458947
19278465234
19278471276
19278477197
19278483789
19278490747
19278498193
19278507104
19278513024
19278520654
19278526452
19278533044
19278541284
19278548791
19278555871
19278562463
19278567712
19278574914
19278580041
19278588586
19278596032
19278603173
19278612694
19278620568
19278628686
19278635949
19278642419
19278652611
19278658593
19278666527
19278676903
19278683617
19278694726
19278702904
19278710167
19278717919
19278725182
19278733788
19278742028
19278750023
19278758080
19278765709
19278772301
19278778893
19278788048
19278794518
19278802147
19278812645
19278818932
19278826378
19278835350
19278841576
19278850975
19278858910
19278865196
19278873070
19278882469
19278887596
19278896629
19278903770
19278913597
19278919395
19278926414
19278933739
19278942283
19278950157
19278956016
19278962974
19278970421
19278977318
19278983299
19278990379
19278993492
19279002403
19279007286
19279015159
19279023704
19279036094
19279043235
19279052940
19279059288
19279068138
19279075218
19279081993
19279088401
19279094444
19279101402
19279107566
19279115013
19279120994
19279125999
19279132896
19279139915
19279145347
19279152793
19279158775
19279164085
19279170310
19279177085
19279181358
19279187827
19279193870
19279200889
19279207236
19279213706
19279219016
19279224570
19279229880
19279236045
19279241050
19279247947
19279255393
19279263022
19279269919
19279277549
19279285056
19279292563
19279299094
19279304770
19279311240
19279316062
19279322776
19279330344
19279336020
19279341819
19279349204
19279355124
19279361716
19279368369
19279372763
19279379538
19279386679
19279394004
19279400107
19279407187
19279412985
19279418356
19279425559
19279432578
19279438254
19279444052
19279450705
19279456320
19279462973
19279470114
19279474875
19279482809
19279489584
19279495383
19279501730
19279507101
19279512900
19279520529
19279526999
19279534079
19279540854
19279546896
19279555929
19279561972
19279569052
19279574606
19279583639
19279589071
19279596396
19279604147
19279611593
19279618124
19279628073
19279634237
19279644308
19279652487
19279659262
19279666403
19279673910
19279679342
19279686361
19279693136
19279698263
19279707296
19279713766
19279719503
19279726095
19279734335
19279741171
19279747579
19279754720
19279758382
19279768942
19279775961
19279781637
19279789022
19279795431
19279803976
19279809591
19279815084
19279822042
19279829183
19279837118
19279844381
19279850545
19279858480
19279866842
19279875081
19279881490
19279890645
19279897664
19279904989
19279912313
19279918477
19279925374
19279933187
19279941243
19279948690
19279956990
19279964498
19279972554
19279980611
19279988240
19279995198
19280001729
19280009480
19280016805
19280025044
19280030415
19280038533
19280045857
19280053243
19280059468
19280065266
19280072896
19280079549
19280087422
19280094868
19280100850
19280108235
19280114339
19280121480
19280128804
19280136311
19280142903
19280149495
19280157795
19280163106
19280170857
19280178181
19280188008
19280196187
19280209797
19280218342
19280226094
19280234028
19280239827
19280251362
19280258686
19280267903
19280274861
19280283100
19280291401
19280299946
19280307331
19280315205
19280323933
19280332600
19280339558
19280346272
19280353779
19280362629
19280371662
19280377949
19280388142
19280395893
19280406086
19280413959
19280422321
19280431049
19280439228
19280446247
19280455890
19280465656
19280473346
19280481769
19280489948
19280496784
19280505268
19280514606
19280522052
19280528583
19280535968
19280542987
19280552875
19280561542
19280568134
19280574970
19280581806
19280591876
19280598346
19280606098
19280613239
19280621173
19280627155
19280635089
19280643634
19280649982
19280658405
19280667377
19280673846
19280682147
19280692828
19280700641
19280706256
19280712848
19280721210
19280726337
19280733233
19280741290
19280744647
19280754230
19280757586
19280765704
19280772967
19280778338
19280785296
19280789874
19280798053
19280805316
19280816180
19280822772
19280830706
19280835345
19280846270
19280851214
19280858050
19280867327
19280872637
19280878741
19280885821
19280891986
19280896502
19280904803
19280910357
19280915179
19280921710
19280928790
19280933917
19280940020
19280946307
19280951373
19280957415
19280962359
19280971209
19280975603
19280981890
19280987383
19280992144
19280997454
19281002459
19281009661
19281015154
19281021075
19281027605
19281033526
19281040301
19281047259
19281053911
19281060076
19281068621
19281075762
19281082110
19281087481
19281092913
19281099321
19281107500
19281113054
19281120073
19281128130
19281132891
19281141863
19281148394
19281156023
19281161089
19281167192
19281175310
19281182573
19281189775
19281194292
19281201189
19281208635
19281212908
19281220903
19281228471
19281235918
19281241350
19281247759
19281252763
19281259721
19281267046
19281274797
19281282182
19281287553
19281293962
19281298784
19281305620
19281313432
19281320085
19281325883
19281330705
19281337785
19281343706
19281350297
19281356279
19281363481
19281371904
19281382585
19281389421
19281398759
19281405595
19281414750
19281421037
19281428788
19281436662
19281443071
19281449418
19281455949
19281465226
19281472306
19281480302
19281487504
19281494279
19281503495
19281509904
19281516679
19281524735
19281531327
19281539689
19281548356
19281555863
19281563859
19281570878
19281577836
19281583573
19281592179
19281599686
19281607987
19281615983
19281622697
19281628434
19281635819
19281642899
19281649491
19281655167
19281660233
19281667557
19281674271
19281682450
19281690384
19281696183
19281703385
19281712784
19281719681
19281726761
19281733536
19281741593
19281749344
19281753922
19281761185
19281768631
19281775528
19281781632
19281789200
19281796829
19281802139
19281809403
19281817337
19281822769
19281830338
19281836563
19281846939
19281853165
19281862381
19281868240
19281877090
19281884720
19281894363
19281902481
19281908340
19281918350
19281922745
19281932693
19281941116
19281948379
19281955520
19281965225
19281970779
19281979995
19281989761
19281997818
19282013321
19282022720
19282032974
19282040847
19282049453
19282058853
19282067459
19282072586
19282087905
19282096450
19282106948
19282114456
19282123855
19282131301
19282140334
19282149307
19282159805
19282169082
19282177138
19282187270
19282200576
19282210891
19282218703
19282228286
19282235427
19282245070
19282252822
19282262282
19282274611
19282281142
19282293288
19282299819
19282312026
19282321059
19282331191
19282340468
19282349501
19282360854
19282370375
19282380751
19282390395
19282400160
19282409255
19282417494
19282428786
19282436720
19282447951
19282456068
19282466627
19282474684
19282484694
19282496901
19282507155
19282515211
19282525892
19282534254
19282545851
19282552931
19282565138
19282574598
19282583509
19282591078
19282602980
19282614271
19282623854
19282635633
19282642530
19282653761
19282662672
19282673170
19282681043
19282691297
19282700819
19282712293
19282721021
19282731275
19282739637
19282749708
19282760511
19282771558
19282779432
19282790601
19282797498
19282808362
19282815931
19282826307
19282837171
19282844312
19282855115
19282865613
19282875013
19282885389
19282894727
19282903089
19282914930
19282923841
19282933850
19282942090
19282950757
19282962476
19282972119
19282978711
19282991773
19283002576
19283013623
19283021741
19283031690
19283042371
19283052747
19283062390
19283072949
19283083203
19283092786
19283101758
19283112622
19283120923
19283133557
19283143323
19283151257
19283164135
19283174511
19283181714
19283194714
19283202710
19283214001
19283222241
19283233288
19283242504
19283253308
19283265759
19283276440
19283285534
19283296093
19283305309
19283315441
19283326244
19283337414
19283346752
19283356029
19283367870
19283376842
19283387890
19283396740
19283408459
19283419018
19283428356
19283437816
19283447338
19283456981
19283468090
19283478099
19283487011
19283498851
19283507335
19283517101
19283527416
19283537853
19283548046
19283558971
19283569103
19283578807
19283587047
19283593761
19283599864
19283608348
19283616161
19283622691
19283629833
19283635326
19283642223
19283649059
19283659923
19283667003
19283674998
19283679393
19283689036
19283695689
19283704051
19283714915
19283722606
19283729136
19283737010
19283743174
19283751780
19283757640
19283765818
19283773265
19283779490
19283786265
19283794017
19283800975
19283808299
19283816355
19283823252
19283829356
19283836924
19283843028
19283850413
19283856700
19283864756
19283871592
19283877268
19283884226
19283892466
19283897410
19283905222
19283912302
19283918101
19283925181
19283933115
19283938425
19283945139
19283951060
19283959605
19283967356
19283974253
19283981272
19283988596
19283995310
19284003855
19284012278
19284018748
19284024668
19284033030
19284040232
19284046641
19284053476
19284060129
19284068247
19284075083
19284080820
19284090830
19284096323
19284103220
19284112986
19284118845
19284125986
19284135324
19284142099
19284150461
19284157663
19284167307
19284175058
19284182565
19284190683
19284197946
19284205759
19284213327
19284222360
19284229623
19284236398
19284242380
19284250803
19284257944
19284265207
19284273691
19284282053
19284289011
19284297433
19284303720
19284310129
19284319711
19284328866
19284336007
19284343759
19284358407
19284365121
19284372567
19284379037
19284392465
19284400277
19284406076
19284417489
19284423593
19284432809
19284440133
19284446420
19284452706
19284459909
19284465524
19284472299
19284478646
19284484323
19284490914
19284497384
19284503426
19284510690
19284515939
19284522286
19284527963
19284535104
19284541146
19284546151
19284552560
19284559884
19284565072
19284572091
19284577828
19284583932
19284590340
19284597054
19284603158
19284609139
19284615914
19284621712
19284628487
19284634102
19284640633
19284646554
19284653695
19284659188
19284664742
19284671090
19284677559
19284682686
19284688790
19284695748
19284703621
19284712838
19284719857
19284726326
19284736946
19284743416
19284750313
19284757088
19284762886
19284769844
19284775704
19284780586
19284786385
19284792000
19284799019
19284806099
19284813606
19284819649
19284826119
19284832039
19284838448
19284844246
19284850471
19284857918
19284864326
19284871895
19284878853
19284886909
19284892769
19284900642
19284908699
19284918220
19284924568
19284932014
19284940193
19284948127
19284955146
19284959846
19284968086
19284975410
19284981880
19284987922
19284993660
19285001777
19285008918
19285014411
19285021492
19285027595
19285034248
19285040840
19285047431
19285054878
19285060310
19285067390
19285074653
19285080207
19285088325
19285094611
19285101203
19285109199
19285114387
19285121284
19285128181
19285134834
19285142524
19285149604
19285156196
19285164191
19285170173
19285178229
19285184577
19285191291
19285197272
19285204780
19285209846
19285214789
19285221869
19285229621
19285237922
19285246283
19285252082
19285258246
19285265876
19285275214
19285282721
19285288520
19285298102
19285305243
19285311652
19285318793
19285324713
19285331610
19285338935
19285346442
19285351996
19285360175
19285369025
19285374884
19285382208
19285389349
19285395819
19285403326
19285410407
19285416754
19285425116
19285430670
19285438116
19285445258
19285451605
19285460760
19285467352
19285474005
19285483038
19285489020
19285496466
19285504217
19285511175
19285520697
19285527167
19285533697
19285540411
19285547857
19285556036
19285562140
19285569342
19285574163
19285581549
19285588263
19285595221
19285602972
19285609259
19285616705
19285624456
19285630133
19285639532
19285646734
19285654608
19285661505
19285669012
19285676214
19285686041
19285693548
19285702825
19285709905
19285719427
19285727666
19285735418
19285742010
19285749822
19285758794
19285768133
19285773077
19285781743
19285788213
19285794805
19285803899
19285811223
19285818792
19285827154
19285835576
19285842656
19285850042
19285857427
19285864324
19285874028
19285882634
19285890447
19285898931
19285907537
19285914006
19285921880
19285930791
19285936650
19285946416
19285956120
19285963567
19285972051
19285980534
19285989934
19285995183
19286002446
19286007207
19286016118
19286021916
19286029668
19286035405
19286040166
19286047856
19286052739
19286059270
19286065068
19286072331
19286078618
19286084721
19286091679
19286097355
19286105046
19286110844
19286118413
19286127018
19286133366
19286141545
19286149724
19286155888
19286161564
19286170353
19286178715
19286183659
19286190312
19286196110
19286203129
19286210575
19286216862
19286223637
19286227970
19286234623
19286240910
