18714768008
18714777590
18714786623
18714795168
18714802920
18714811403
18714819765
18714826662
18714835024
18714842653
18714849367
18714856081
18714865725
18714873659
18714878603
18714888246
18714897097
18714902407
18714910768
18714917482
18714924990
18714933290
18714939394
18714950014
18714957582
18714965944
18714974306
18714980287
18714989259
18714999208
18715007021
18715015627
18715025392
18715034975
18715043336
18715049745
18715058778
18715067201
18715081056
18715090700
18715098268
18715107118
18715113771
18715123292
18715133241
18715139833
18715148561
18715156129
18715164308
18715172670
18715181092
18715189454
18715197450
18715206666
18715212892
18715220826
18715227418
18715235841
18715244752
18715250489
18715260133
18715268983
18715277406
18715284242
18715292359
18715298707
18715306886
18715316529
18715324281
18715331300
18715337586
18715346558
18715355103
18715363343
18715370423
18715378602
18715385865
18715393189
18715401856
18715409974
18715417359
18715424317
18715433533
18715439881
18715448670
18715456482
18715464905
18715472779
18715480042
18715489441
18715495545
18715503968
18715512146
18715519776
18715528382
18715536926
18715550049
18715556641
18715565552
18715571838
18715580689
18715589905
18715596130
18715607361
18715614502
18715622498
18715628784
18715637695
18715646728
18715652954
18715663757
18715670532
18715679321
18715685913
18715694885
18715700866
18715709656
18715717285
18715725525
18715733825
18715741577
18715748962
18715757385
18715764892
18715772461
18715783142
18715795532
18715805664
18715815612
18715827575
18715838012
18715846130
18715856811
18715865295
18715872558
18715879760
18715887695
18715897399
18715905212
18715910644
18715919128
18715926025
18715934447
18715942382
18715950133
18715960143
18715967101
18715974425
18715982970
18715989989
18715996581
18716002746
18716010436
18716016417
18716024291
18716030517
18716036864
18716044005
18716050292
18716056151
18716063903
18716070617
18716076476
18716084227
18716091918
18716099730
18716107176
18716114928
18716121825
18716128295
18716135619
18716142638
18716148314
18716162169
18716169981
18716175536
18716182677
18716190550
18716195250
18716202879
18716209837
18716217101
18716222105
18716230345
18716235289
18716243040
18716248350
18716256224
18716263731
18716272948
18716278563
18716286864
18716292296
18716301817
18716307371
18716317442
18716327513
18716334776
18716342711
18716350950
18716357725
18716367979
18716375608
18716384031
18716392332
18716402098
18716406309
18716417112
18716423216
18716430662
18716437925
18716444822
18716452024
18716461485
18716467222
18716477232
18716483946
18716490965
18716502927
18716513914
18716522459
18716530881
18716538511
18716545835
18716553709
18716563108
18716570493
18716578123
18716584714
18716593381
18716599424
18716609189
18716614438
18716623349
18716629270
18716634885
18716640012
18716646726
18716651365
18716658628
18716665158
18716671506
18716677610
18716682187
18716689450
18716694394
18716701902
18716709226
18716714841
18716720090
18716726926
18716731015
18716738034
18716743772
18716750974
18716757993
18716762387
18716770322
18716776914
18716784482
18716791806
18716798581
18716804807
18716812497
18716820554
18716827328
18716832638
18716840573
18716849423
18716857175
18716865780
18716873410
18716880185
18716888241
18716898007
18716906003
18716913998
18716921505
18716929135
18716940365
18716947689
18716956662
18716963253
18716972592
18716980099
18716989559
18717000241
18717009396
18717017636
18717024227
18717032772
18717041439
18717053829
18717063595
18717075192
18717085018
18717093136
18717102840
18717111019
18717118404
18717127377
18717136410
18717143124
18717152401
18717159176
18717168331
18717174923
18717184200
18717192013
18717204342
18717214779
18717225155
18717238765
18717248165
18717259517
18717269771
18717277584
18717284175
18717290401
18717296443
18717304683
18717311763
18717319759
18717326229
18717333858
18717339534
18717346431
18717353145
18717359981
18717366390
18717373042
18717378169
18717384639
18717389827
18717397334
18717401851
18717407588
18717413936
18717420894
18717425410
18717432735
18717438655
18717444575
18717450740
18717456355
18717462153
18717470271
18717476253
18717483882
18717492488
18717498042
18717509822
18717519587
18717527034
18717534480
18717543452
18717553340
18717559443
18717568049
18717574946
18717581355
18717592463
18717600032
18717609797
18717616633
18717627070
18717631281
18717644709
18717651057
18717659419
18717669917
18717678034
18717687312
18717695368
18717702387
18717712885
18717719660
18717728022
18717738459
18717750117
18717757624
18717768610
18717778437
18717787714
18717796625
18717805353
18717812128
18717819574
18717826899
18717835016
18717841547
18717849482
18717856379
18717865046
18717872431
18717879694
18717885736
18717894220
18717902155
18717909601
18717917414
18717924616
18717931268
18717938226
18717944818
18717951898
18717958490
18717965570
18717971246
18717978326
18717984735
18717991022
18717997369
18718004572
18718014093
18718022028
18718033258
18718042596
18718051874
18718061273
18718070123
18718078302
18718087274
18718095575
18718106195
18718116754
18718125726
18718134393
18718143670
18718153863
18718163995
18718174737
18718185479
18718195001
18718203424
18718211907
18718222833
18718232293
18718244073
18718253961
18718264459
18718275506
18718285394
18718297417
18718307915
18718318108
18718326897
18718337273
18718347649
18718356988
18718368767
18718379204
18718390069
18718400628
18718411675
18718425103
18718437188
18718448296
18718458245
18718470574
18718480706
18718490654
18718502373
18718514641
18718526299
18718538811
18718549614
18718560478
18718572136
18718583977
18718595085
18718606071
18718619316
18718630058
18718639641
18718645561
18718656486
18718668327
18718673027
18718686149
18718694023
18718705253
18718715568
18718722587
18718735405
18718744194
18718756034
18718764640
18718775444
18718792106
18718805717
18718815666
18718826530
18718836295
18718845756
18718853996
18718862846
18718873405
18718882560
18718893302
18718904166
18718911430
18718921256
18718931022
18718940177
18718955070
18718964835
18718975577
18718986747
18718995536
18719003653
18719012198
18719022208
18719030875
18719039908
18719048758
18719060355
18719068656
18719078238
18719086966
18719096366
18719104483
18719114188
18719125784
18719135855
18719145499
18719153250
18719162650
18719172903
18719181754
18719190909
18719202933
18719211844
18719220572
18719231741
18719241934
18719251578
18719260794
18719272085
18719279898
18719290945
18719300894
18719308951
18719319082
18719329092
18719340872
18719350821
18719359426
18719369192
18719377920
18719387258
18719398062
18719407217
18719417532
18719428457
18719435598
18719448171
18719457754
18719466421
18719476980
18719486990
18719495412
18719505483
18719515920
18719522024
18719530630
18719536428
18719543630
18719549428
18719556020
18719560354
18719566884
18719575063
18719583486
18719590383
18719598867
18719606374
18719614003
18719621022
18719626271
18719637197
18719644338
18719649526
18719655324
18719661794
18719668813
18719676808
18719683766
18719689748
18719696340
18719702748
18719709584
18719716725
18719723012
18719730702
18719737538
18719743276
18719750111
18719757192
18719763356
18719772572
18719778798
18719786916
18719794545
18719801564
18719810536
18719815968
18719825001
18719829884
18719836903
18719844533
18719852711
18719859608
18719866566
18719873585
18719880726
18719889637
18719895558
18719904774
18719910389
18719918263
18719924427
18719931202
18719938465
18719944935
18719954029
18719960072
18719966908
18719976734
18719984669
18719992054
18719999989
18720007374
18720014942
18720023548
18720030934
18720036671
18720046070
18720052784
18720059254
18720067860
18720076466
18720083546
18720089588
18720097401
18720103077
18720111256
18720118641
18720125049
18720130665
18720138050
18720142628
18720150379
18720155994
18720163013
18720169178
18720174305
18720180591
18720185535
18720193592
18720201709
18720209583
18720216846
18720225147
18720232227
18720241626
18720247791
18720253589
18720260791
18720268482
18720275867
18720284778
18720291919
18720295886
18720303638
18720307849
18720314990
18720321582
18720325977
18720331104
18720337756
18720343921
18720348010
18720354968
18720360156
18720366321
18720371326
18720376514
18720385547
18720391284
18720398303
18720405017
18720409717
18720415942
18720422290
18720428149
18720434497
18720440051
18720446277
18720451587
18720457202
18720464465
18720469470
18720476550
18720482165
18720486682
18720493213
18720498950
18720504992
18720512805
18720518420
18720523364
18720529406
18720534961
18720540820
18720546679
18720554187
18720559191
18720564196
18720569995
18720576647
18720582568
18720588610
18720593493
18720600268
18720605029
18720610949
18720618334
18720623583
18720629992
18720637194
18720643542
18720649523
18720656908
18720663134
18720669421
18720675646
18720681750
18720687792
18720695361
18720701037
18720707506
18720713427
18720720507
18720733202
18720749621
18720770495
18720782030
18720795458
18720805529
18720811205
18720819201
18720824999
18720831469
18720842211
18720849352
18720855883
18720862169
18720868090
18720875658
18720882860
18720889696
18720894945
18720902757
18720908678
18720916246
18720921983
18720928026
18720935106
18720939989
18720947252
18720953600
18720960436
18720967882
18720973192
18720979173
18720986070
18720992418
18720997057
18721004137
18721009141
18721017320
18721023607
18721031297
18721038377
18721043687
18721051195
18721057176
18721063035
18721068101
18721076219
18721083787
18721090196
18721096605
18721101609
18721107469
18721114305
18721121507
18721127732
18721134568
18721141832
18721147081
18721153550
18721160752
18721166795
18721173326
18721180589
18721187303
18721193345
18721200730
18721208055
18721213914
18721221177
18721228929
18721234849
18721240525
18721247361
18721253220
18721260117
18721267197
18721276475
18721283250
18721289719
18721295701
18721302109
18721311021
18721314744
18721325364
18721331101
18721338608
18721345383
18721352952
18721361741
18721368821
18721377121
18721385972
18721392807
18721399277
18721406601
18721414780
18721420700
18721429062
18721437546
18721442734
18721450119
18721458237
18721462754
18721468979
18721478623
18721484726
18721493210
18721499314
18721506211
18721511460
18721518906
18721524033
18721531296
18721536484
18721545395
18721552170
18721558518
18721564194
18721571030
18721576950
18721586105
18721593613
18721601730
18721608688
18721617416
18721623581
18721631821
18721638168
18721645431
18721652633
18721660751
18721669845
18721677536
18721685287
18721692611
18721699386
18721706649
18721716415
18721724411
18721734665
18721741806
18721752853
18721758529
18721767440
18721772994
18721781539
18721790145
18721796249
18721804428
18721810043
18721817916
18721826522
18721834945
18721842574
18721850387
18721856857
18721865829
18721871505
18721879317
18721884872
18721893722
18721899825
18721908858
18721914413
18721920211
18721928756
18721936446
18721942489
18721951095
18721959334
18721968123
18721974288
18721982100
18721990767
18721996810
18722004989
18722009993
18722018538
18722025496
18722034346
18722041121
18722047530
18722053878
18722064070
18722071456
18722079451
18722087691
18722098372
18722106368
18722113692
18722120284
18722130049
18722137984
18722145247
18722153670
18722160689
18722167830
18722175459
18722181502
18722190596
18722197249
18722205000
18722214278
18722221846
18722228865
18722236128
18722244063
18722251265
18722257002
18722264509
18722272810
18722280378
18722287825
18722295027
18722301130
18722309492
18722318586
18722326094
18722332441
18722341352
18722347090
18722355513
18722361250
18722369673
18722375349
18722384016
18722389753
18722398969
18722404829
18722412641
18722418440
18722426496
18722434736
18722440900
18722450361
18722458601
18722464948
18722472578
18722481611
18722488203
18722495710
18722504255
18722511945
18722519392
18722527692
18722532880
18722541364
18722548688
18722555768
18722563215
18722571821
18722580427
18722589460
18722595258
18722602338
18722611249
18722617902
18722624738
18722632001
18722639569
18722650251
18722655927
18722665692
18722671674
18722679059
18722684918
18722693158
18722699018
18722709577
18722716046
18722724042
18722732648
18722740277
18722746137
18722752057
18722760907
18722771039
18722777264
18722785565
18722791669
18722799237
18722807843
18722814801
18722821576
18722828839
18722838238
18722845746
18722853680
18722861554
18722868268
18722876324
18722884442
18722894696
18722904705
18722913189
18722920758
18722929180
18722936688
18722943707
18722951153
18722958416
18722966107
18722974407
18722981915
18722989361
18722997173
18723005413
18723013165
18723020367
18723027874
18723034527
18723042461
18723050213
18723057476
18723064068
18723072796
18723080425
18723090374
18723096966
18723103985
18723112408
18723117290
18723125896
18723133465
18723139507
18723146465
18723154033
18723159405
18723165752
18723172283
18723178020
18723181926
18723191387
18723198345
18723205608
18723211467
18723218059
18723223003
18723229351
18723234233
18723240398
18723247112
18723253215
18723259014
18723265239
18723269634
18723276470
18723282695
18723291057
18723295574
18723302715
18723309673
18723314983
18723321452
18723326457
18723336101
18723341106
18723347514
18723354045
18723360027
18723366557
18723372539
18723378886
18723384441
18723389812
18723395610
18723401775
18723407207
18723413188
18723418620
18723424663
18723430583
18723435161
18723440959
18723447429
18723451823
18723458049
18723465251
18723470866
18723476787
18723481913
18723486003
18723492289
18723497294
18723504802
18723509990
18723516398
18723523967
18723528910
18723535441
18723541362
18723546794
18723553630
18723560649
18723565653
18723571452
18723578288
18723583903
18723590617
18723596232
18723602580
18723608744
18723614543
18723620829
18723626566
18723632609
18723637919
18723644144
18723649516
18723655009
18723660258
18723667826
18723673746
18723679362
18723686076
18723693949
18723700724
18723707377
18723712748
18723719950
18723726786
18723732950
18723739969
18723746195
18723751139
18723759073
18723764689
18723771219
18723777994
18723784464
18723791544
18723796976
18723803812
18723809305
18723814676
18723821695
18723827311
18723834635
18723841837
18723848856
18723855204
18723860269
18723865641
18723872537
18723878824
18723883646
18723891397
18723898294
18723904886
18723910990
18723917703
18723924722
18723930948
18723937357
18723943277
18723949197
18723954874
18723960489
18723967569
18723973917
18723979715
18723986307
18723991983
18723999063
18724004800
18724011209
18724016458
18724022378
18724028970
18724036783
18724042032
18724048074
18724056070
18724063394
18724068399
18724075113
18724082071
18724088601
18724093972
18724100137
18724109597
18724116800
18724122354
18724130288
18724136758
18724145486
18724152017
18724159829
18724166116
18724170938
18724178018
18724184548
18724191079
18724197244
18724203164
18724209878
18724216348
18724222634
18724230508
18724235757
18724243020
18724248330
18724254800
18724260232
18724265908
18724271889
18724279092
18724285439
18724293008
18724297646
18724305581
18724311623
18724319680
18724326333
18724334450
18724340005
18724347878
18724354348
18724362343
18724369423
18724374672
18724380776
18724388222
18724397255
18724402810
18724408913
18724417885
18724425515
18724431740
18724438881
18724447548
18724456703
18724462746
18724468971
18724477577
18724484230
18724491249
18724498512
18724506020
18724515724
18724524880
18724530800
18724539406
18724546242
18724552773
18724559364
18724568459
18724575600
18724583473
18724592567
18724599403
18724605812
18724613563
18724622230
18724630775
18724638038
18724647011
18724655922
18724663612
18724669777
18724679176
18724685280
18724691993
18724698829
18724708412
18724717140
18724724037
18724731361
18724737892
18724744117
18724753089
18724759193
18724768287
18724773719
18724782752
18724788978
18724795753
18724801612
18724809852
18724819801
18724828040
18724833656
18724840369
18724846229
18724853553
18724860572
18724866981
18724874915
18724880347
18724885963
18724892005
18724898719
18724903541
18724908851
18724917151
18724922523
18724929908
18724934852
18724939979
18724946204
18724951392
18724957618
18724965918
18724970801
18724977820
18724983985
18724989722
18724995704
18725001136
18725008399
18725015967
18725021704
18725028723
18725034461
18725041297
18725048560
18725055823
18725061560
18725066870
18725073828
18725078589
18725085547
18725090918
18725097571
18725103858
18725109351
18725114783
18725120276
18725126318
18725133521
18725139197
18725144995
18725151709
18725156470
18725162695
18725169409
18725174719
18725179602
18725184729
18725191687
18725197180
18725202124
18725208349
18725214087
18725219092
18725225378
18725232275
18725236548
18725243384
18725247412
18725254858
18725260168
18725266821
18725272314
18725279089
18725283423
18725290319
18725296179
18725301977
18725306311
18725312292
18725320654
18725324987
18725332006
18725337866
18725343115
18725349645
18725354345
18725361852
18725368749
18725375646
18725380224
18725389379
18725396765
18725403417
18725410558
18725417272
18725424902
18725430456
18725437536
18725444738
18725450964
18725456396
18725465063
18725471960
18725478002
18725482946
18725491979
18725497655
18725503393
18725509496
18725516820
18725523107
18725528783
18725535802
18725542821
18725547338
18725554540
18725561193
18725568212
18725574987
18725579381
18725586705
18725591222
18725597997
18725604284
18725611730
18725617589
18725623387
18725629308
18725634801
18725641942
18725647130
18725653844
18725660680
18725666112
18725672704
18725678075
18725684789
18725691014
18725698522
18725703587
18725710484
18725716588
18725723058
18725728795
18725733739
18725740941
18725746800
18725752721
18725759129
18725765172
18725770726
18725776524
18725782140
18725787938
18725793797
18725801121
18725805821
18725813695
18725818516
18725826695
18725832982
18725840367
18725846898
18725851353
18725858067
18725862889
18725870091
18725875767
18725883763
18725889439
18725898289
18725903965
18725911717
18725917271
18725925694
18725931248
18725939732
18725945286
18725954197
18725959751
18725968357
18725975804
18725982639
18725988255
18725995091
18726003330
18726011143
18726017246
18726024509
18726030186
18726039097
18726045567
18726052525
18726060337
18726069370
18726074070
18726083103
18726089695
18726096287
18726102024
18726110569
18726117466
18726123386
18726130527
18726136631
18726142917
18726149143
18726157322
18726163669
18726170566
18726178074
18726184116
18726191196
18726196079
18726203769
18726210605
18726217380
18726225254
18726233676
18726239841
18726247714
18726254611
18726261325
18726269077
18726275730
18726285861
18726292514
18726299411
18726307651
18726313937
18726322299
18726327670
18726335483
18726341891
18726350131
18726356418
18726364597
18726372043
18726378818
18726385532
18726391818
18726399875
18726407931
18726412997
18726421725
18726428500
18726434604
18726441012
18726448214
18726457065
18726465182
18726472201
18726480746
18726488925
18726494601
18726504733
18726511508
18726517977
18726524325
18726530123
18726536288
18726542208
18726548983
18726554843
18726561740
18726567233
18726573702
18726581027
18726587313
18726593173
18726598849
18726605624
18726611544
18726618502
18726623873
18726630221
18726636080
18726641573
18726647677
18726652132
18726660921
18726667513
18726673495
18726678805
18726686861
18726692171
18726699435
18726707247
18726713289
18726718538
18726725374
18726731295
18726737398
18726744051
18726749788
18726755709
18726761141
18726767916
18726774141
18726779207
18726784639
18726790377
18726796175
18726802462
18726808870
18726812715
18726819551
18726824190
18726830416
18726836336
18726843294
18726848726
18726854769
18726859651
18726865877
18726871858
18726877291
18726883272
18726889131
18726894258
18726899507
18726906221
18726911043
18726917146
18726923067
18726929720
18726935518
18726939912
18726947908
18726954134
18726959932
18726967073
18726972444
18726977693
18726983613
18726988740
18726995271
18727001802
18727006013
18727013093
18727019502
18727026094
18727033296
18727039522
18727045320
18727051484
18727060334
18727066316
18727072603
18727078340
18727085725
18727091584
18727099214
18727104463
18727111116
18727118440
18727123872
18727131318
18727137788
18727144624
18727151032
18727157014
18727163728
18727170014
18727175630
18727180207
18727187165
18727193208
18727198945
18727205171
18727212495
18727217439
18727223115
18727230012
18727236237
18727241975
18727250031
18727261567
18727268403
18727274323
18727280488
18727288544
18727295014
18727302827
18727308503
18727315522
18727322297
18727327729
18727336274
18727342011
18727348298
18727355317
18727361847
18727367951
18727373993
18727380097
18727386200
18727391449
18727399201
18727406525
18727411774
18727417328
18727423981
18727429230
18727436371
18727441559
18727448700
18727455414
18727460053
18727465546
18727472077
18727478241
18727484223
18727490021
18727497345
18727504059
18727509857
18727516205
18727522614
18727528778
18727536102
18727542023
18727549408
18727555267
18727561066
18727568024
18727573883
18727580963
18727585602
18727592804
18727600067
18727607818
18727614410
18727619537
18727625458
18727632843
18727638153
18727646148
18727654144
18727659881
18727666351
18727674713
18727681732
18727689117
18727693451
18727701263
18727709259
18727717254
18727724212
18727729949
18727738738
18727745696
18727752960
18727760223
18727766815
18727772796
18727781036
18727787505
18727793670
18727803130
18727808929
18727819610
18727828826
18727837615
18727846648
18727852264
18727861724
18727868926
18727876006
18727883941
18727891143
18727899200
18727906829
18727914397
18727923736
18727932097
18727942717
18727950103
18727958892
18727966460
18727974822
18727982878
18727990386
18727997466
18728003997
18728010955
18728017668
18728023528
18728032073
18728038115
18728048613
18728053557
18728062163
18728068266
18728077178
18728082305
18728091094
18728095915
18728104460
18728109953
18728116972
18728123808
18728131865
18728139799
18728147673
18728153593
18728160796
18728167998
18728174284
18728179899
18728189238
18728194243
18728203642
18728209013
18728216337
18728224028
18728229094
18728236296
18728243376
18728248381
18728255034
18728260161
18728266874
18728274931
18728279875
18728287687
18728293425
18728301115
18728307341
18728312406
18728319670
18728324919
18728331327
18728338468
18728346891
18728353788
18728362150
18728367704
18728375639
18728380766
18728388273
18728394193
18728400907
18728406156
18728413175
18728419706
18728426420
18728433561
18728439970
18728446439
18728451261
18728459318
18728463529
18728469999
18728476285
18728482328
18728488737
18728494108
18728499540
18728506193
18728511503
18728517545
18728523893
18728530912
18728537137
18728541227
18728547086
18728551175
18728557340
18728564664
18728572782
18728578153
18728585050
18728590177
18728596952
18728603604
18728609586
18728617276
18728622525
18728629056
18728634915
18728640286
18728646634
18728653470
18728659696
18728665982
18728672086
18728678861
18728684537
18728688809
18728697598
18728702908
18728709927
18728715787
18728722318
18728727872
18728734586
18728741177
18728746121
18728753079
18728760403
18728766446
18728773709
18728779996
18728786343
18728794095
18728801541
18728807156
18728812649
18728819424
18728826077
18728831143
18728837185
18728843716
18728850979
18728855618
18728863003
18728867520
18728873806
18728880459
18728886074
18728892361
18728900479
18728905789
18728912686
18728917263
18728924465
18728930874
18728936367
18728943630
18728950894
18728956143
18728963894
18728968777
18728976284
18728983608
18728988735
18728996670
18729004116
18729010037
18729015347
18729021755
18729028469
18729034634
18729042080
18729048305
18729053799
18729059475
18729066494
18729071926
18729077663
18729084682
18729090969
18729098354
18729102871
18729110561
18729116115
18729123256
18729129726
18729134792
18729142238
18729149135
18729155483
18729162136
18729169338
18729175136
18729181789
18729189601
18729198268
18729204860
18729210781
18729218532
18729224514
18729230617
18729237697
18729243740
18729248256
18729253627
18729260280
18729266811
18729274135
18729280544
18729285549
18729293910
18729300868
18729307277
18729312770
18729318996
18729325771
18729331996
18729338283
18729346522
18729351466
18729359096
18729365382
18729370998
18729377101
18729382655
18729390468
18729396571
18729402980
18729410243
18729414760
18729421962
18729428248
18729436183
18729443202
18729450587
18729457667
18729463404
18729472560
18729478419
18729486476
18729492213
18729501246
18729508692
18729517054
18729522792
18729532130
18729536402
18729546900
18729553431
18729560328
18729565699
18729574244
18729579371
18729588587
18729594569
18729601283
18729609217
18729616663
18729623866
18729631556
18729638026
18729646448
18729654505
18729660975
18729670679
18729678004
18729685023
18729692652
18729699610
18729706995
18729717371
18729724268
18729732508
18729739466
18729747461
18729755823
18729764002
18729770655
18729778772
18729784998
18729792566
18729801966
18729809290
18729818079
18729824121
18729832727
18729838831
18729847315
18729853174
18729862146
18729870142
18729880029
18729887415
18729894006
18729903223
18729910242
18729916772
18729924524
18729931604
18729938989
18729946008
18729950891
18729959558
18729964502
18729971216
18729978235
18729986413
18729992273
18729997522
18730003320
18730009485
18730016504
18730023767
18730030237
18730036157
18730041955
18730048913
18730055017
18730059533
18730066003
18730070398
18730077661
18730082238
18730089318
18730095239
18730100732
18730106042
18730111657
18730118066
18730124047
18730129357
18730136132
18730140832
18730147607
18730152917
18730159020
18730163659
18730170373
18730176110
18730181542
18730186608
18730192345
18730197472
18730204491
18730209191
18730213586
18730220055
18730225793
18730232507
18730238732
18730243005
18730249718
18730255028
18730260949
18730267419
18730273095
18730277489
18730284264
18730289452
18730296349
18730301415
18730308007
18730312035
18730318139
18730323021
18730330346
18730337792
18730343590
18730348778
18730354332
18730359948
18730366661
18730372765
18730379906
18730384728
18730389855
18730396080
18730402001
18730409203
18730415734
18730421166
18730429100
18730433800
18730439964
18730446434
18730453209
18730458641
18730465050
18730472862
18730479759
18730485558
18730493614
18730499596
18730507530
18730514305
18730518883
18730524681
18730532310
18730539757
18730546471
18730553123
18730560448
18730566124
18730571129
18730576988
18730582908
18730590477
18730594749
18730601890
18730606468
18730613731
18730621238
18730626426
18730634239
18730639793
18730647239
18730652366
18730660179
18730668663
18730674461
18730679954
18730685630
18730691795
18730697044
18730702842
18730710777
18730717246
18730723960
18730728843
18730735679
18730740806
18730747764
18730752403
18730760276
18730767356
18730775230
18730781516
18730786216
18730792686
18730798911
18730804649
18730812705
18730819419
18730826194
18730832420
18730838462
18730844199
18730849265
18730854941
18730862144
18730868430
18730874717
18730882285
18730887351
18730894858
18730900840
18730907554
18730914084
18730919639
18730927390
18730933066
18730940696
18730945945
18730953513
18730961142
18730967856
18730974631
18730980063
18730988059
18730995505
18731002402
18731009665
18731016623
18731023581
18731030905
18731037070
18731044089
18731048911
18731056357
18731062705
18731068808
18731075583
18731082297
18731089072
18731095663
18731102683
18731109274
18731116537
18731123434
18731132895
18731138083
18731146872
18731153403
18731159445
18731165854
18731172018
18731179159
18731187765
18731194113
18731200033
18731206564
18731212423
18731218466
18731225729
18731232748
18731238546
18731244894
18731252157
18731258444
18731263510
18731269430
18731278585
18731285543
18731293966
18731299032
18731307150
18731312826
18731320761
18731325949
18731334432
18731341024
18731349020
18731356039
18731363485
18731370809
18731377645
18731385763
18731391988
18731398397
18731405599
18731412618
18731419820
18731426168
18731434103
18731442159
18731449911
18731457357
18731463033
18731469137
18731479330
18731485616
18731494466
18731502462
18731508931
18731518453
18731524862
18731533345
18731539876
18731546773
18731553914
18731561483
18731566182
18731573323
18731580526
18731584493
18731590413
18731594686
18731601766
18731606221
18731614583
18731621907
18731627706
18731634542
18731641377
18731646321
18731653035
18731659993
18731666585
18731672627
18731678304
18731685323
18731690999
18731702351
18731708943
18731714192
18731722066
18731728535
18731734456
18731740132
18731747578
18731754231
18731760274
18731768696
18731778462
18731785054
18731790913
18731798909
18731804951
18731810933
18731816121
18731822773
18731828389
18731834431
18731840413
18731848408
18731853840
18731859211
18731866169
18731871357
18731878743
18731885823
18731891377
18731896626
18731902119
18731908894
18731915180
18731920490
18731925678
18731932270
18731937824
18731942829
18731949116
18731955158
18731960957
18731967426
18731973530
18731977558
18731982807
18731989155
18731996113
18732002522
18732008320
18732014545
18732019855
18732026020
18732031574
18732038837
18732045490
18732050678
18732057636
18732064655
18732070637
18732076069
18732082783
18732088642
18732094013
18732099750
18732106098
18732111713
18732117267
18732123249
18732131244
18732136676
18732143085
18732148639
18732153827
18732161090
18732165973
18732172382
18732178669
18732185627
18732190570
18732198322
18732205036
18732212543
18732219806
18732226886
18732233051
18732237811
18732244892
18732249591
18732255145
18732261493
18732268634
18732276447
18732282123
18732287555
18732294269
18732299396
18732306049
18732312518
18732317218
18732324481
18732333026
18732342120
18732349628
18732354999
18732363910
18732370624
18732377582
18732384601
18732391192
18732397296
18732401874
18732408160
18732412677
18732424640
18732430926
18732438128
18732444598
18732449664
18732456439
18732463397
18732469683
18732474810
18732481524
18732489032
18732495562
18732501422
18732507708
18732515704
18732521380
18732526324
18732532061
18732537432
18732544573
18732550555
18732555865
18732562579
18732568499
18732575274
18732581194
18732586810
18732593340
18732598589
18732605242
18732611956
18732618182
18732622820
18732629900
18732636309
18732641558
18732649737
18732657305
18732663225
18732669512
18732677752
18732683428
18732690752
18732697954
18732706987
18732713945
18732720110
18732728533
18732736223
18732742327
18732750017
18732756914
18732764971
18732771013
18732777544
18732784258
18732792559
18732799761
18732807024
18732812883
18732821062
18732829973
18732836992
18732846391
18732855058
18732861406
18732870805
18732880022
18732887529
18732897112
18732904192
18732910600
18732919145
18732928361
18732936723
18732945207
18732953264
18732963518
18732970781
18732986284
18732994768
18733005876
18733015947
18733024492
18733030839
18733040361
18733047136
18733054155
18733064653
18733070573
18733076738
18733087480
18733094926
18733103471
18733111405
18733115678
18733126725
18733134049
18733142594
18733148759
18733156510
18733163346
18733170915
18733177873
18733185075
18733191117
18733197587
18733202897
18733213639
18733220841
18733225907
18733233536
18733239945
18733246354
18733250687
18733257828
18733263199
18733269913
18733275040
18733280045
18733287003
18733294632
18733301835
18733308732
18733313614
18733317948
18733324662
18733330399
18733336564
18733343033
18733350296
18733355973
18733360794
18733368485
18733371659
18733380814
18733384964
18733392411
18733398209
18733405655
18733412003
18733418350
18733424698
18733431046
18733436905
18733442093
18733449356
18733455032
18733461014
18733465286
18733472122
18733479019
18733484329
18733490616
18733496048
18733502396
18733507400
18733513199
18733518631
18733525711
18733530594
18733536941
18733542862
18733548294
18733555191
18733559646
18733565201
18733575332
18733584610
18733592666
18733601516
18733612503
18733617202
18733623306
18733629654
18733635330
18733642471
18733651138
18733656326
18733662368
18733670120
18733676773
18733681716
18733688674
18733693191
18733700637
18733706863
18733711563
18733718276
18733725112
18733732986
18733738235
18733744460
18733750503
18733758315
18733763747
18733770217
18733774795
18733781997
18733788955
18733795242
18733801406
18733807449
18733814407
18733821303
18733826308
18733833755
18733840346
18733846145
18733850539
18733858779
18733866714
18733871840
18733878554
18733885756
18733891921
18733897841
18733903762
18733911452
18733916701
18733923537
18733929580
18733936354
18733943251
18733948928
18733955092
18733961379
18733967665
18733973891
18733980422
18733986891
18733993361
18733999953
18734005324
18734011550
18734017470
18734024245
18734030715
18734036391
18734043837
18734050490
18734059035
18734064955
18734073744
18734082106
18734089919
18734097914
18734105666
18734112746
18734119643
18734128065
18734135939
18734143996
18734151747
18734160231
18734167006
18734175612
18734182936
18734188551
18734196058
18734202650
18734208204
18734215101
18734221937
18734229322
18734236036
18734242323
18734249769
18734255995
18734261976
18734268812
18734274427
18734279615
18734286512
18734292738
18734298902
18734304945
18734311292
18734318373
18734324293
18734330274
18734337843
18734343458
18734350782
18734356153
18734363111
18734371046
18734376661
18734385267
18734391492
18734398817
18734405958
18734412977
18734418775
18734426099
18734434644
18734439954
18734446424
18734451917
18734459608
18734469190
18734475049
18734482496
18734488355
18734496534
18734502698
18734510877
18734518567
18734527662
18734536267
18734543348
18734549756
18734557630
18734565381
18734572217
18734583936
18734592298
18734599317
18734609448
18734617200
18734623975
18734633130
18734637952
18734648389
18734656323
18734664624
18734672131
18734680981
18734687878
18734694897
18734701672
18734710461
18734718152
18734726086
18734735547
18734741650
18734749951
18734756360
18734763745
18734773327
18734781262
18734792126
18734802563
18734810070
18734818737
18734825573
18734834729
18734841565
18734847729
18734854931
18734860363
18734865429
18734872509
18734879650
18734890026
18734895703
18734903027
18734910046
18734915173
18734921093
18734927685
18734934704
18734939831
18734946240
18734951244
18734958691
18734964550
18734971752
18734978405
18734984814
18734990185
18734996044
18735003185
18735010998
18735015270
18735022411
18735025402
18735033764
18735039135
18735046032
18735051403
18735057873
18735063366
18735069713
18735075512
18735082958
18735088085
18735095043
18735100536
18735106945
18735112560
18735117992
18735124828
18735131481
18735137706
18735142772
18735148449
18735154552
18735159435
18735165355
18735171398
18735178600
18735183910
18735189586
18735193492
18735200084
18735206859
18735213024
18735219188
18735224376
18735230602
18735235729
18735240856
18735246471
18735253429
18735259837
18735265392
18735272838
18735277843
18735284496
18735291209
18735297435
18735303416
18735310313
18735317149
18735321971
18735329356
18735337169
18735347178
18735354564
18735362132
18735369884
18735375743
18735384532
18735392405
18735398448
18735405528
18735411448
18735419383
18735425486
18735430796
18735439708
18735446482
18735454722
18735460887
18735467540
18735473216
18735478587
18735484873
18735492686
18735499156
18735506053
18735512827
18735519114
18735526988
18735532237
18735538096
18735543833
18735551829
18735557688
18735563059
18735568247
18735575327
18735580515
18735591135
18735600718
18735606943
18735613413
18735619822
18735626414
18735632578
18735639109
18735645701
18735651499
18735659678
18735665659
18735672373
18735679148
18735685007
18735691477
18735698191
18735703013
18735709665
18735714304
18735720896
18735725718
18735734018
18735740671
18735747690
18735754282
18735759714
18735766245
18735773691
18735779917
18735785166
18735793466
18735799082
18735805795
18735812876
18735819772
18735825388
18735832956
18735839426
18735844553
18735849191
18735856516
18735862436
18735870676
18735876535
18735885263
18735894357
18735901498
18735908090
18735914316
18735921030
18735927255
18735934091
18735941232
18735947885
18735959115
18735969064
18735974618
18735981088
18735989267
18735999765
18736010812
18736018136
18736024728
18736030526
18736037179
18736045846
18736052987
18736063180
18736070077
18736076486
18736083261
18736090035
18736096810
18736104196
18736110665
18736118112
18736124520
18736132699
18736138863
18736147653
18736153817
18736162667
18736168649
18736178780
18736184884
18736193063
18736199532
18736208016
18736214059
18736222298
18736228219
18736235726
18736245614
18736252328
18736259408
18736265145
18736274849
18736280343
18736289681
18736294625
18736302559
18736310006
18736318245
18736325753
18736333199
18736341439
18736350167
18736354439
18736364937
18736371285
18736380928
18736387703
18736394844
18736404854
18736411934
18736420174
18736426155
18736435372
18736442024
18736449287
18736455269
18736463142
18736469368
18736476509
18736481270
18736488167
18736495552
18736501656
18736506355
18736513069
18736519783
18736526131
18736531746
18736538399
18736544197
18736548897
18736556892
18736562019
18736569893
18736575264
18736581062
18736585640
18736595100
18736600532
18736606758
18736613777
18736620247
18736626228
18736633552
18736639473
18736644844
18736652778
18736659370
18736666572
18736674507
18736681526
18736689704
18736695075
18736702278
18736708259
18736715583
18736723640
18736728523
18736735481
18736740302
18736746833
18736751472
18736758918
18736763679
18736770087
18736775459
18736781928
18736787666
18736794074
18736800666
18736806892
18736812690
18736818732
18736824042
18736828803
18736835334
18736840156
18736846747
18736851874
18736858100
18736864875
18736870734
18736876716
18736880988
18736887336
18736893439
18736901130
18736906318
18736913337
18736918036
18736924872
18736930793
18736937262
18736943366
18736949774
18736956855
18736961493
18736968024
18736974799
18736980414
18736984870
18736994513
18736999213
18737006781
18737012152
18737019599
18737025885
18737032965
18737039374
18737046515
18737052741
18737059454
18737066290
18737073248
18737079901
18737085333
18737093024
18737100226
18737108710
18737116522
18737123602
18737131293
18737137335
18737143011
18737153753
18737160040
18737168829
18737175360
18737181341
18737187506
18737194769
18737202765
18737208441
18737215521
18737221869
18737228888
18737233892
18737240972
18737247137
18737254339
18737261602
18737269598
18737276190
18737283819
18737290106
18737296087
18737305548
18737312200
18737319158
18737325933
18737331915
18737338628
18737344732
18737352789
18737360052
18737366521
18737375249
18737381048
18737388372
18737394353
18737401250
18737407964
18737414739
18737421758
18737426641
18737434942
18737439641
18737446905
18737453802
18737460210
18737466680
18737472783
18737479924
18737487737
18737492925
18737500982
18737508184
18737515264
18737520208
18737527593
18737535161
18737541509
18737547734
18737554631
18737560857
18737565679
18737574346
18737579595
18737588445
18737594426
18737600713
18737607732
18737613835
18737620183
18737627812
18737633000
18737641179
18737647832
18737653996
18737661504
18737671208
18737677678
18737685063
18737692021
18737699223
18737705510
18737712468
18737720708
18737727910
18737734563
18737740666
18737747990
18737755864
18737760930
18737769780
18737777104
18737783513
18737789799
18737796269
18737804631
18737811406
18737819523
18737827702
18737836003
18737844120
18737851872
18737859257
18737866215
18737874150
18737882023
18737886357
18737898136
18737903385
18737913883
18737919193
18737930912
18737940128
18737948246
18737960697
18737967289
18737974796
18737984379
18737993168
18737999393
18738006657
18738015201
18738021610
18738029301
18738034733
18738042545
18738048710
18738057987
18738067081
18738072635
18738083133
18738087223
18738097110
18738102787
18738112980
18738119266
18738127201
18738136783
18738145511
18738151676
18738161075
18738168643
18738176029
18738183048
18738191165
18738198978
18738205142
18738212467
18738218814
18738225772
18738230594
18738237491
18738243350
18738250613
18738258243
18738263126
18738270145
18738276370
18738282474
18738289432
18738295352
18738301761
18738307681
18738314517
18738320193
18738326358
18738332156
18738340335
18738345706
18738352786
18738358584
18738365725
18738372744
18738377383
18738384280
18738392398
18738397403
18738404178
18738410403
18738417117
18738423587
18738429263
18738436709
18738443850
18738450625
18738455081
18738462466
18738468508
18738475283
18738480898
18738488406
18738494021
18738499697
18738505557
18738511172
18738517642
18738524111
18738530398
18738536929
18738540835
18738547976
18738552981
18738559267
18738565310
18738571352
18738576235
18738583620
18738591189
18738596133
18738603640
18738610659
18738617922
18738623965
18738630861
18738636782
18738643068
18738649599
18738657046
18738662905
18738668215
18738675783
18738681948
18738688234
18738693422
18738699892
18738705690
18738712038
18738718630
18738724977
18738730593
18738738222
18738744326
18738750856
18738758730
18738764711
18738772219
18738779299
18738785280
18738792177
18738799196
18738806459
18738813539
18738819582
18738826479
18738832643
18738839418
18738845522
18738851625
18738859499
18738865297
18738872743
18738878908
18738884401
18738890871
18738897768
18738904054
18738911012
18738917848
18738924318
18738930482
18738936830
18738944337
18738949464
18738957887
18738963197
18738974550
18738980470
18738988588
18738995485
18739001283
18739008119
18739015504
18739021363
18739028993
18739035585
18739042848
18739049562
18739055909
18739062074
18739068360
18739074769
18739079652
18739087281
18739092042
18739101197
18739107118
18739113404
18739118165
18739125794
18739132874
18739138856
18739145875
18739151978
18739158021
18739164185
18739171387
18739177186
18739185914
18739193909
18739201173
18739207337
18739215516
18739223450
18739230225
18739235169
18739243470
18739250123
18739257203
18739265320
18739271912
18739276978
18739286255
18739292481
18739298951
18739305237
18739311829
18739319641
18739325501
18739328431
18739339173
18739345276
18739351929
18739358887
18739364258
18739372620
18739378906
18739386170
18739392029
18739399170
18739405213
18739411194
18739418762
18739425659
18739434204
18739438416
18739445740
18739452271
18739458679
18739465698
18739473999
18739483154
18739489014
18739495239
18739503052
18739510437
18739515747
18739524292
18739529541
18739537597
18739542846
18739549988
18739555176
18739562561
18739567566
18739574585
18739582275
18739587524
18739595337
18739602783
18739609253
18739618347
18739625061
18739633239
18739641540
18739647949
18739657287
18739663574
18739673095
18739679260
18739688293
18739695434
18739704772
18739713012
18739720153
18739727233
18739735656
18739742309
18739750121
18739756713
18739765746
18739774291
18739782348
18739790160
18739796691
18739802917
18739812316
18739818969
18739826720
18739833495
18739842223
18739851378
18739856749
18739864806
18739872496
18739878844
18739887938
18739893859
18739904296
18739910521
18739918517
18739925841
18739938048
18739944823
18739952696
18739959654
18739967406
18739974974
18739982176
18739990538
18739994811
18740001708
18740010069
18740015746
18740022154
18740030211
18740035460
18740041136
18740048094
18740055296
18740061888
18740067625
18740072203
18740079710
18740085936
18740093077
18740098265
18740105284
18740111815
18740118773
18740123045
18740130125
18740136473
18740141356
18740149962
18740156065
18740162108
18740168516
18740174254
18740179869
18740187254
18740195066
18740201048
18740206297
18740212278
18740217649
18740223997
18740229368
18740236692
18740243345
18740248960
18740254270
18740259703
18740265562
18740271482
18740277036
18740283445
18740288206
18740292173
18740300169
18740304685
18740312193
18740320188
18740330137
18740336973
18740342100
18740346922
18740354002
18740360105
18740366636
18740374143
18740379392
18740386350
18740392820
18740398923
18740406858
18740412778
18740419370
18740425901
18740432371
18740439023
18740443784
18740451902
18740457090
18740464841
18740468076
18740478025
18740484800
18740491269
18740500974
18740509153
18740516721
18740523801
18740532590
18740538571
18740546689
18740553891
18740559445
18740566220
18740571713
18740577695
18740585385
18740593198
18740600644
18740609372
18740617429
18740623837
18740630429
18740636288
18740643185
18740648740
18740655515
18740663693
18740671139
18740678097
18740683469
18740690488
18740696957
18740703305
18740710812
18740715878
18740723385
18740729733
18740735348
18740742489
18740748349
18740754879
18740762570
18740768857
18740775631
18740780941
18740787777
18740794491
18740800106
18740808102
18740812924
18740819577
18740826046
18740833065
18740838131
18740844967
18740850033
18740858822
18740864498
18740871395
18740877865
18740883114
18740891171
18740897457
18740903866
18740910458
18740917721
18740924069
18740930111
18740936276
18740942196
18740948238
18740955990
18740962215
18740968624
18740973690
18740980709
18740985287
18740991939
18741000118
18741006466
18741012020
18741017879
18741023556
18741029476
18741036373
18741041134
18741048763
18741055111
18741063472
18741069088
18741075802
18741081905
18741090328
18741097164
18741105953
18741112667
18741119686
18741129573
18741137386
18741145687
18741152950
18741159725
18741169979
18741177242
18741184078
18741190303
18741199397
18741205562
18741212703
18741222163
18741229305
18741236995
18741244441
18741251643
18741261226
18741267879
18741274348
18741281428
18741288142
18741295955
18741302791
18741309871
18741316218
18741322078
18741329524
18741336665
18741344172
18741351069
18741358577
18741365352
18741372310
18741379878
18741386775
18741394770
18741400203
18741408076
18741415950
18741422785
18741431147
18741437739
18741447383
18741453974
18741462947
18741471613
18741476557
18741485285
18741491023
18741500666
18741506953
18741515803
18741523188
18741530573
18741538142
18741545466
18741550776
18741561335
18741566462
18741574885
18741584406
18741592036
18741599360
18741607722
18741614313
18741624079
18741629755
18741635981
18741643000
18741649714
18741658014
18741664606
18741670710
18741677668
18741682978
18741689814
18741695917
18741702631
18741708490
18741714655
18741720148
18741724543
18741731501
18741737665
18741743952
18741749201
18741756464
18741762506
18741767572
18741773737
18741778742
18741784113
18741790582
18741795160
18741801874
18741807245
18741813776
18741818353
18741825372
18741834589
18741840448
18741846429
18741853509
18741859918
18741865106
18741873224
18741880243
18741885187
18741891229
18741895929
18741901483
18741907342
18741912469
18741917230
18741924859
18741930841
18741935968
18741941339
18741946527
18741953180
18741958368
18741964349
18741970147
18741975885
18741981439
18741986688
18741991693
18741997247
18742003839
18742008783
18742014154
18742019830
18742025628
18742032281
18742037347
18742044671
18742051751
18742058282
18742063470
18742068780
18742074578
18742081231
18742088311
18742095086
18742100335
18742106622
18742112725
18742116876
18742124505
18742131829
18742139214
18742144769
18742150262
18742156060
18742161797
18742167596
18742172906
18742180413
18742185967
18742192498
18742199334
18742204583
18742209344
18742216607
18742222222
18742229241
18742235039
18742241082
18742246819
18742254448
18742259697
18742267144
18742275322
18742281975
18742288323
18742294487
18742302239
18742308037
18742315056
18742320610
18742327629
18742334465
18742341423
18742347588
18742355278
18742361016
18742366509
18742374870
18742381462
18742388481
18742394341
18742401787
18742409721
18742417290
18742424187
18742430107
18742440666
18742447563
18742455864
18742462639
18742469658
18742475456
18742483452
18742489189
18742495109
18742502617
18742510429
18742517998
18742523735
18742530021
18742538017
18742544670
18742551872
18742556572
18742564506
18742570610
18742577995
18742585380
18742591606
18742598442
18742604850
18742610954
18742617729
18742623771
18742628410
18742635734
18742643363
18742649711
18742656425
18742662834
18742669486
18742676078
18742685050
18742692069
18742696830
18742704459
18742710563
18742717643
18742725089
18742731498
18742737601
18742744865
18742751945
18742759635
18742766715
18742772819
18742781608
18742788077
18742796561
18742801871
18742810111
18742816092
18742822440
18742828971
18742837516
18742844901
18742852408
18742859427
18742865226
18742872916
18742880118
18742886954
18742895133
18742903373
18742910269
18742916922
18742926627
18742932852
18742941214
18742948660
18742958609
18742964591
18742973441
18742979483
18742987906
18742995718
18743002249
18743011466
18743020926
18743027396
18743036002
18743042471
18743052237
18743058585
18743068594
18743075369
18743086966
18743093680
18743104361
18743110647
18743121084
18743128042
18743136892
18743147146
18743154837
18743162466
18743171377
18743179007
18743185659
18743195547
18743202932
18743210745
18743218435
18743228689
18743235952
18743243765
18743249990
18743258047
18743264456
18743273000
18743281423
18743289419
18743295583
18743304434
18743312246
18743318227
18743326650
18743332876
18743341360
18743349538
18743356313
18743363027
18743369558
18743376333
18743383169
18743389272
18743395498
18743401906
18743406484
18743413442
18743421132
18743427175
18743432607
18743439748
18743445485
18743452810
18743457448
18743464833
18743471303
18743476979
18743484426
18743491750
18743498403
18743502919
18743509938
18743516164
18743523061
18743527700
18743535817
18743542958
18743548757
18743555104
18743560903
18743567433
18743573842
18743580678
18743584828
18743614919
18743622060
18743629323
18743634633
18743640858
18743646474
18743652089
18743658131
18743664235
18743671254
18743676381
18743682179
18743688710
18743694447
18743699818
18743705983
18743712025
18743718068
18743723927
18743727772
18743736256
18743740773
18743748158
18743754994
18743763051
18743767628
18743774952
18743782338
18743788258
18743794972
18743801319
18743807179
18743813587
18743819935
18743826588
18743832814
18743839222
18743845082
18743851795
18743858814
18743865284
18743872547
18743879261
18743885059
18743892140
18743899159
18743904957
18743911976
18743917347
18743924244
18743931934
18743936817
18743943775
18743952930
18743959339
18743966785
18743972401
18743979481
18743984974
18743991871
18743997486
18744005176
18744010792
18744017322
18744024830
18744031055
18744038074
18744044788
18744052417
18744058582
18744063343
18744072193
18744077625
18744085193
18744091297
18744097522
18744105213
18744111255
18744118213
18744125293
18744130847
18744137927
18744145618
18744152210
18744158985
18744165515
18744171314
18744178760
18744185474
18744189807
18744196826
18744204700
18744209399
18744217944
18744224292
18744230029
18744236377
18744243579
18744250171
18744257068
18744264209
18744270923
18744277087
18744282336
18744289783
18744297107
18744303943
18744311389
18744317370
18744323413
18744330554
18744336352
18744344287
18744354968
18744361682
18744369372
18744377673
18744383044
18744391162
18744399340
18744406604
18744411669
18744420336
18744426440
18744431140
18744439929
18744445117
18744454882
18744460314
18744468981
18744475939
18744482348
18744489123
18744495715
18744502978
18744509386
18744516467
18744521960
18744528918
18744535876
18744541247
18744548266
18744554919
18744562243
18744569872
18744577135
18744583056
18744591295
18744596605
18744604235
18744613207
18744619494
18744626818
18744634264
18744641527
18744647265
18744656725
18744662340
18744670519
18744678942
18744686693
18744692797
18744701342
18744709032
18744714403
18744722826
18744731798
18744738268
18744746630
18744754137
18744761278
18744770494
18744778795
18744787035
18744794603
18744804857
18744813158
18744820970
18744829759
18744836900
18744844957
18744852220
18744859727
18744870164
18744876207
18744883714
18744892381
18744900072
18744906053
18744915208
18744922960
18744932298
18744939012
18744947618
18744953538
18744962083
18744968858
18744977952
18744986985
18744993150
18745001817
18745010301
18745017503
18745023301
18745031724
18745038011
18745049241
18745060410
18745069505
18745078660
18745090745
18745100510
18745109849
18745119004
18745127732
18745137498
18745146348
18745158189
18745166001
18745174302
18745184128
18745192734
18745202805
18745211777
18745220261
18745230515
18745239365
18745248520
18745257187
18745265732
18745274338
18745283982
18745293076
18745301499
18745310715
18745319931
18745327744
18745337815
18745346359
18745354965
18745364609
18745373093
18745382919
18745392014
18745401474
18745409348
18745417587
18745425034
18745435532
18745444504
18745454208
18745460617
18745470810
18745480514
18745486984
18745496750
18745506027
18745516647
18745523361
18745534713
18745543380
18745552963
18745561569
18745570846
18745579513
18745586105
18745601058
18745607528
18745618148
18745626022
18745636032
18745646774
18745656661
18745666976
18745674667
18745685165
18745695113
18745704391
18745715743
18745724227
18745734969
18745742782
18745752669
18745764083
18745774581
18745783797
18745791427
18745802413
18745811202
18745821456
18745830733
18745841170
18745850386
18745858565
18745869796
18745878524
18745888839
18745899276
18745909041
18745919112
18745927046
18745935408
18745945479
18745954878
18745962325
18745971846
18745982710
18745991438
18745999373
18746007735
18746017989
18746028670
18746037276
18746048201
18746063521
18746082503
18746103560
18746122480
18746143232
18746164595
18746185286
18746207014
18746226606
18746246931
18746268049
18746283796
18746294782
18746306562
18746324323
18746344160
18746357892
18746375593
18746391828
18746405744
18746415937
18746426435
18746436261
18746446820
18746457441
18746467389
18746476667
18746487653
18746498029
18746507184
18746517133
18746527326
18746537396
18746546124
18746556439
18746566205
18746575360
18746584760
18746592755
18746602155
18746612347
18746623578
18746633527
18746642316
18746653912
18746661542
18746672711
18746682965
18746689862
18746699872
18746712018
18746722455
18746731305
18746742352
18746750287
18746761090
18746771038
18746779644
18746790325
18746797100
18746805401
18746811322
18746818829
18746824688
18746831890
18746837444
18746843121
18746850323
18746855816
18746864056
18746871319
18746876751
18746888043
18746892986
18746901165
18746907513
18746914776
18746920879
18746928692
18746935467
18746942058
18746949200
18746956524
18746962810
18746969829
18746977154
18746981731
18746988933
18746995891
18747002544
18747008342
18747015178
18747021465
18747028545
18747035808
18747040935
18747047832
18747053447
18747059978
18747066204
18747073772
18747079387
18747086528
18747092205
18747099590
18747105693
18747114543
18747119853
18747125835
18747133708
18747140422
18747148052
18747154888
18747162029
18747168193
18747176860
18747183330
18747190471
18747197978
18747203716
18747211162
18747217998
18747225139
18747232036
18747240153
18747247233
18747253215
18747261760
18747267070
18747275310
18747280559
18747287578
18747293254
18747300639
18747305827
18747312297
18747318339
18747322978
18747331706
18747337321
18747343119
18747349162
18747355876
18747361735
18747366923
18747373149
18747381572
18747388224
18747393534
18747401652
18747406840
18747414530
18747419657
18747426554
18747434123
18747438700
18747444926
18747451945
18747457377
18747462199
18747470316
18747475932
18747483134
18747488871
18747494791
18747502909
18747512370
18747519022
18747525492
18747532389
18747537394
18747543742
18747548136
18747554667
18747562113
18747567972
18747573954
18747580485
18747585428
18747591288
18747596537
18747603006
18747608805
18747614908
18747619425
18747626444
18747632303
18747637552
18747643839
18747650553
18747655130
18747661173
18747667276
18747673319
18747678080
18747684061
18747689371
18747694864
18747700968
18747706095
18747712015
18747716837
18747722879
18747730814
18747736490
18747743204
18747749063
18747754434
18747761209
18747767679
18747774271
18747779642
18747786905
18747792276
18747798380
18747803568
18747810220
18747818216
18747824808
18747830972
18747836648
18747844339
18747849710
18747856729
18747863199
18747870035
18747876199
18747882974
18747888589
18747895425
18747901590
18747909341
18747914895
18747922647
18747928018
18747935159
18747941079
18747948281
18747955972
18747960977
18747968057
18747975442
18747982339
18747987771
18747995523
18748002114
18748007669
18748013284
18748019509
18748027200
18748035012
18748044412
18748049783
18748057229
18748065102
18748071877
18748079141
18748084145
18748092568
18748099526
18748105752
18748112344
18748118691
18748125832
18748133706
18748140420
18748147805
18748152932
18748160134
18748167092
18748173745
18748179177
18748186501
18748194192
18748200173
18748205727
18748211709
18748218728
18748225197
18748230202
18748238747
18748243935
18748249977
18748256874
18748264321
18748270302
18748277565
18748283852
18748290383
18748296120
18748303017
18748309242
18748315834
18748323281
18748329994
18748336708
18748344216
18748349098
18748356484
18748362892
18748369301
18748374855
18748381935
18748388649
18748394508
18748402199
18748409950
18748415321
18748423195
18748431618
18748436867
18748445289
18748451454
18748457863
18748463966
18748472145
18748479835
18748487465
18748494911
18748500526
18748509742
18748514991
18748522682
18748530128
18748537880
18748544838
18748554603
18748561805
18748569191
18748576026
18748585487
18748593971
18748600379
18748607215
18748618080
18748626319
18748633399
18748639320
18748649452
18748657508
18748667579
18748675575
18748683509
18748690589
18748698341
18748705115
18748714393
18748722571
18748728614
18748736732
18748742652
18748750892
18748756690
18748766028
18748774207
18748780799
18748786658
18748795142
18748800879
18748807837
18748814734
18748824012
18748830970
18748837439
18748845252
18748852088
18748860389
18748867408
18748875342
18748884131
18748889624
18748898352
18748906226
18748919776
18748927710
18748939673
18748947669
18748954260
18748963049
18748969763
18748974158
18748980383
18748987585
18748994421
18749000525
18749007300
18749011816
18749017432
18749023901
18749030737
18749037207
18749042151
18749048376
18749055456
18749061743
18749067053
18749075049
18749081335
18749087805
18749094153
18749100256
18749107092
18749112341
18749117285
18749124304
18749130652
18749134985
18749143103
18749147802
18749154699
18749161962
18749167883
18749174597
18749180395
18749185827
18749193273
18749197973
18749205786
18749211279
18749218725
18749223364
18749229589
18749236608
18749241735
18749248754
18749253881
18749260290
18749266027
18749271154
18749280553
18749287206
18749295385
18749301366
18749308080
18749315404
18749320959
18749327489
18749333288
18749338171
18749345067
18749350194
18749356908
18749361669
18749368261
18749375890
18749382238
18749387304
18749394262
18749400365
18749406774
18749414342
18749418493
18749426000
18749431615
18749437352
18749444799
18749450170
18749459630
18749464879
18749470250
18749477086
18749482579
18749488988
18749497167
18749503209
18749510228
18749516393
18749523290
18749529271
18749535619
18749542455
18749548558
18749555211
18749562352
18749567479
18749574681
18749582127
18749588780
18749595311
18749601353
18749607335
18749614049
18749619542
18749627843
18749634434
18749640050
18749647069
18749652135
18749659215
18749666234
18749673436
18749680516
18749687474
18749691746
18749700108
18749705479
18749712315
18749719456
18749724766
18749731846
18749737889
18749744297
18749753697
18749758641
18749765660
18749771092
18749777623
18749785435
18749793125
18749801365
18749808140
18749814182
18749822666
18749828526
18749834507
18749842808
18749849400
18749856358
18749862827
18749869297
18749876316
18749882542
18749889194
18749899326
18749904758
18749912510
18749918491
18749924229
18749931614
18749940098
18749946567
18749953770
18749960483
18749967075
18749974277
18749981357
18749988987
18749995151
18749999790
18750008152
18750015110
18750020969
18750029087
18750035434
18750043247
18750049411
18750056186
18750064792
18750071079
18750078342
18750085178
18750094028
18750100986
18750107212
18750116611
18750123569
18750130588
18750138461
18750146152
18750153659
18750158969
18750168308
18750177646
18750185214
18750193637
18750200229
18750208713
18750214938
