19465264499
19465269443
19465275303
19465281101
19465286960
19465293247
19465299778
19465306430
19465312778
19465319553
19465325962
19465331028
19465336215
19465343357
19465350254
19465356113
19465361545
19465368930
19465373752
19465381381
19465389255
19465395541
19465401706
19465407871
19465415866
19465422763
19465428256
19465436679
19465443759
19465450107
19465455539
19465462802
19465471713
19465477328
19465485080
19465490634
19465498630
19465505343
19465514010
19465524020
19465532260
19465539828
19465549838
19465555697
19465563510
19465573153
19465581454
19465587558
19465595126
19465600802
19465607882
19465616610
19465626010
19465632907
19465639193
19465647616
19465653536
19465660067
19465668490
19465676119
19465683566
19465689120
19465696810
19465702487
19465710482
19465717806
19465725985
19465732821
19465741854
19465748385
19465754061
19465762606
19465769991
19465778719
19465786349
19465793673
19465801302
19465810702
19465817537
19465826449
19465835848
19465842806
19465850557
19465857637
19465866854
19465878939
19465890108
19465899446
19465906343
19465914705
19465920442
19465931673
19465939485
19465946932
19465954500
19465962374
19465967684
19465976228
19465981783
19465990328
19465998567
19466004427
19466013948
19466023409
19466031221
19466038667
19466045808
19466053621
19466061189
19466067781
19466076814
19466083040
19466091951
19466097444
19466106721
19466114717
19466124055
19466132417
19466140230
19466149080
19466155000
19466165071
19466175508
19466183198
19466191438
19466200898
19466207551
19466215852
19466224397
19466232148
19466239717
19466248445
19466255586
19466261262
19466271821
19466279084
19466286042
19466294526
19466303559
19466309907
19466317597
19466324006
19466331940
19466339631
19466347016
19466356049
19466361787
19466370270
19466376557
19466385102
19466391205
19466399750
19466407136
19466413605
19466422333
19466431244
19466439423
19466445343
19466456208
19466462861
19466470307
19466477692
19466484955
19466493683
19466500702
19466509125
19466515839
19466525666
19466533905
19466541535
19466547577
19466555939
19466565216
19466573212
19466581513
19466591156
19466598969
19466611420
19466621185
19466629608
19466639191
19466647675
19466655548
19466665741
19466673004
19466681122
19466688873
19466697601
19466704803
19466711395
19466720367
19466727203
19466733917
19466740814
19466748626
19466756256
19466765228
19466772674
19466780914
19466787994
19466797149
19466803863
19466810638
19466819793
19466828216
19466835723
19466840789
19466849273
19466856903
19466864593
19466874175
19466881500
19466888458
19466896453
19466903228
19466911163
19466917510
19466923492
19466933440
19466941863
19466948760
19466955962
19466964568
19466970489
19466978728
19466987395
19466993438
19467002776
19467008880
19467018096
19467025054
19467034881
19467041167
19467050872
19467054717
19467064483
19467072478
19467079802
19467088897
19467094695
19467102507
19467113005
19467120207
19467128203
19467137664
19467145476
19467154509
19467164031
19467170867
19467177397
19467192534
19467199553
19467211089
19467219023
19467225920
19467234526
19467241179
19467248747
19467255949
19467261687
19467270415
19467275603
19467284514
19467290861
19467299101
19467305693
19467319182
19467329863
19467339323
19467348234
19467356413
19467366240
19467374846
19467382475
19467389738
19467397489
19467405729
19467414030
19467421415
19467430021
19467436186
19467444059
19467452482
19467459440
19467465421
19467474149
19467480131
19467486662
19467495573
19467500761
19467510709
19467518400
19467526945
19467534513
19467541410
19467552396
19467560392
19467569913
19467578519
19467586210
19467593046
19467599454
19467608060
19467615079
19467623929
19467630826
19467639005
19467647245
19467654813
19467661588
19467669828
19467679410
19467686429
19467694242
19467703153
19467712247
19467720670
19467726956
19467736478
19467743863
19467750272
19467757535
19467762723
19467769986
19467777005
19467784146
19467790555
19467797269
19467802884
19467808316
19467815640
19467822354
19467830350
19467837125
19467844144
19467850247
19467856900
19467862698
19467869473
19467875577
19467882962
19467889859
19467896390
19467904019
19467910000
19467915249
19467923977
19467930752
19467937405
19467944912
19467949490
19467957608
19467963589
19467970425
19467976590
19467984768
19467991604
19467998806
19468006436
19468011807
19468020291
19468027920
19468035855
19468042568
19468049954
19468057522
19468063198
19468070828
19468077358
19468082302
19468091396
19468097378
19468105495
19468111904
19468117947
19468123684
19468132290
19468138760
19468145412
19468153652
19468160427
19468168239
19468176662
19468183254
19468189907
19468195827
19468204922
19468212368
19468219509
19468228298
19468235683
19468243496
19468252590
19468259365
19468267849
19468272609
19468281154
19468287319
19468297206
19468303249
19468311611
19468318630
19468324489
19468331874
19468338588
19468345973
19468354885
19468360866
19468369350
19468374965
19468383510
19468391078
19468396938
19468403651
19468412074
19468417567
19468425929
19468431544
19468439906
19468447902
19468454188
19468460780
19468470607
19468477870
19468487941
19468493495
19468503016
19468510035
19468517360
19468525111
19468535243
19468541285
19468550624
19468556788
19468566920
19468574733
19468582240
19468589564
19468600123
19468606349
19468613612
19468621668
19468629176
19468638087
19468645960
19468653651
19468661585
19468669093
19468676356
19468683375
19468691370
19468698939
19468707301
19468717554
19468726893
19468734705
19468742701
19468750086
19468761561
19468770228
19468778162
19468786524
19468794214
19468801905
19468812098
19468818201
19468827906
19468834375
19468843470
19468851282
19468859461
19468868555
19468875025
19468883570
19468891687
19468900232
19468907801
19468915491
19468923426
19468931177
19468938562
19468945032
19468953577
19468961817
19468970056
19468977808
19468986597
19468996118
19469003442
19469010828
19469018152
19469025110
19469032983
19469039880
19469049707
19469058374
19469065637
19469071985
19469079126
19469085534
19469092126
19469100061
19469105737
19469111413
19469118127
19469123132
19469129968
19469136133
19469143518
19469149804
19469156640
19469163232
19469169824
19469175683
19469182763
19469188012
19469193811
19469201379
19469207604
19469214257
19469220971
19469227563
19469233483
19469239648
19469246362
19469252221
19469262231
19469268273
19469275231
19469281579
19469288903
19469295434
19469301659
19469307458
19469313988
19469320336
19469326379
19469332848
19469339867
19469347069
19469353478
19469359765
19469364953
19469369713
19469377038
19469382714
19469389611
19469395714
19469402306
19469410058
19469414513
19469420800
19469427208
19469434533
19469441491
19469446190
19469452416
19469458947
19469465722
19469470055
19469477379
19469483300
19469489464
19469493920
19469500145
19469505272
19469511681
19469518761
19469523339
19469533653
19469540856
19469545311
19469552025
19469559166
19469567162
19469573204
19469580406
19469585899
19469591087
19469597801
19469602501
19469610374
19469615135
19469623924
19469628746
19469635582
19469641807
19469648033
19469654930
19469663353
19469670616
19469675865
19469683067
19469689964
19469695884
19469701805
19469708702
19469714927
19469722618
19469728538
19469736229
19469741295
19469749229
19469756248
19469761253
19469768516
19469775230
19469781272
19469787498
19469793907
19469801597
19469807762
19469813865
19469820701
19469826499
19469833824
19469839439
19469847068
19469853477
19469858482
19469867942
19469873985
19469880027
19469886131
19469892539
19469899070
19469907920
19469913413
19469920615
19469927879
19469933494
19469939658
19469946067
19469954490
19469960776
19469966453
19469973655
19469979697
19469985435
19469993003
19469999289
19470008384
19470015281
19470021445
19470028037
19470033774
19470040305
19470048728
19470056235
19470063681
19470068625
19470075705
19470080710
19470088584
19470094870
19470102378
19470107871
19470114035
19470120261
19470128745
19470134421
19470142172
19470149069
19470155356
19470163352
19470168845
19470175864
19470182944
19470188986
19470193747
19470201193
19470208640
19470215536
19470220969
19470228720
19470234274
19470242087
19470250815
19470255881
19470263937
19470269980
19470276816
19470283957
19470290121
19470297018
19470302878
19470309897
19470316183
19470322226
19470329916
19470337179
19470343039
19470350851
19470358114
19470367147
19470373190
19470381491
19470387289
19470394308
19470402670
19470410971
19470417013
19470425497
19470431356
19470437765
19470446554
19470453817
19470459676
19470467550
19470476583
19470481283
19470487997
19470497274
19470505392
19470510458
19470517294
19470526754
19470532613
19470540853
19470546773
19470554952
19470562765
19470570150
19470576131
19470584676
19470590658
19470598714
19470606832
19470614644
19470621053
19470630452
19470636800
19470646383
19470655660
19470664144
19470672139
19470677755
19470684896
19470694905
19470701924
19470711690
19470718648
19470725362
19470735799
19470744039
19470750020
19470756123
19470764668
19470773946
19470780476
19470788350
19470797078
19470804219
19470810017
19470817708
19470824055
19470831990
19470837605
19470844990
19470850362
19470857747
19470864583
19470869404
19470877522
19470882954
19470889729
19470895955
19470901875
19470909016
19470914387
19470920613
19470926472
19470932393
19470939473
19470946003
19470952107
19470956868
19470964619
19470972981
19470978962
19470985676
19470991841
19470997700
19471004597
19471009785
19471016316
19471022419
19471030537
19471035542
19471041157
19471047932
19471053913
19471060078
19471065327
19471070942
19471078144
19471083881
19471090107
19471095966
19471100849
19471108051
19471114460
19471121113
19471126789
19471132404
19471138264
19471144611
19471150104
19471156757
19471163898
19471169086
19471175312
19471181659
19471187031
19471193073
19471200092
19471205951
19471210590
19471217609
19471221821
19471229694
19471235248
19471242145
19471247821
19471254657
19471259235
19471265766
19471273639
19471278644
19471286823
19471293109
19471299213
19471305072
19471312824
19471319354
19471326251
19471332172
19471338764
19471343829
19471349689
19471357135
19471363483
19471368121
19471377094
19471383075
19471389117
19471395282
19471402911
19471408710
19471415729
19471422931
19471428363
19471434650
19471440143
19471448443
19471455768
19471462665
19471468341
19471476520
19471482196
19471489703
19471496295
19471502582
19471508624
19471515521
19471521747
19471527545
19471533892
19471541522
19471548358
19471554705
19471560870
19471568805
19471575213
19471582415
19471588824
19471594744
19471599566
19471607928
19471613116
19471621966
19471627581
19471633746
19471639849
19471648150
19471653582
19471661395
19471668353
19471674578
19471682146
19471690386
19471697527
19471704668
19471711443
19471718584
19471725970
19471731829
19471739031
19471744646
19471752764
19471760882
19471767107
19471774737
19471782000
19471787920
19471793352
19471801897
19471808306
19471815691
19471820879
19471828325
19471834490
19471839556
19471847429
19471855364
19471861650
19471867693
19471873857
19471880693
19471887651
19471894426
19471903032
19471909319
19471914751
19471922869
19471928423
19471938066
19471945513
19471952715
19471958940
19471964983
19471968462
19471978960
19471986223
19471993791
19472000383
19472005205
19472011430
19472018571
19472026323
19472032182
19472038652
19472046586
19472052568
19472060563
19472066118
19472074296
19472081987
19472089311
19472095781
19472100969
19472107866
19472115617
19472120927
19472128984
19472136674
19472140886
19472152726
19472161637
19472168168
19472175004
19472181169
19472191911
19472200822
19472207353
19472213395
19472222001
19472229508
19472236161
19472244218
19472251115
19472258866
19472265702
19472272294
19472279679
19472287919
19472295182
19472300248
19472309281
19472316117
19472321915
19472328934
19472336381
19472340653
19472351578
19472357743
19472366227
19472372025
19472381058
19472387406
19472396500
19472403092
19472411210
19472417252
19472424271
19472431473
19472439896
19472448014
19472455826
19472462784
19472468827
19472476639
19472482743
19472492203
19472497452
19472506241
19472514237
19472523209
19472531265
19472537064
19472543106
19472551895
19472557633
19472567093
19472573380
19472579178
19472584549
19472590225
19472595230
19472602676
19472607681
19472614700
19472622208
19472627762
19472633926
19472641250
19472646133
19472653457
19472661941
19472666702
19472673782
19472678604
19472684463
19472691055
19472696975
19472703262
19472709305
19472715286
19472722000
19472726699
19472735733
19472740249
19472745926
19472751663
19472759841
19472766067
19472773147
19472779861
19472787246
19472793106
19472799209
19472806228
19472812454
19472817581
19472821975
19472828628
19472835159
19472841445
19472846206
19472852798
19472859268
19472864822
19472870376
19472876540
19472882705
19472888931
19472894973
19472900771
19472906142
19472912246
19472916640
19472922805
19472928176
19472934646
19472941054
19472946303
19472951674
19472959121
19472965163
19472971206
19472977431
19472984206
19472990859
19472996108
19473002822
19473008254
19473013991
19473021560
19473027602
19473033400
19473041030
19473046645
19473053115
19473058303
19473062819
19473069289
19473076369
19473082717
19473087233
19473094313
19473099867
19473105788
19473112013
19473118666
19473126296
19473133315
19473139845
19473146803
19473152297
19473161025
19473166579
19473173171
19473179335
19473187025
19473195387
19473202162
19473209303
19473216200
19473223585
19473229628
19473236586
19473243056
19473249281
19473256544
19473263319
19473269850
19473276198
19473281202
19473288893
19473293837
19473300978
19473307631
19473313856
19473319349
19473325575
19473332106
19473338575
19473344069
19473350355
19473357313
19473363844
19473369520
19473376112
19473383009
19473391310
19473397108
19473405897
19473413893
19473421644
19473428907
19473437147
19473444105
19473449354
19473456251
19473462904
19473468031
19473475233
19473482252
19473488844
19473495191
19473502576
19473508558
19473515272
19473521925
19473529066
19473536146
19473543775
19473550672
19473557386
19473564222
19473571668
19473578016
19473585340
19473592115
19473598523
19473606031
19473612745
19473619642
19473625562
19473632947
19473639905
19473644727
19473653943
19473659070
19473667188
19473674268
19473682141
19473688184
19473693738
19473702222
19473707837
19473715650
19473722974
19473729199
19473737927
19473743909
19473750989
19473757275
19473762586
19473771497
19473777844
19473785107
19473793103
19473797986
19473805432
19473812878
19473824353
19473833142
19473838330
19473847912
19473854931
19473861828
19473869031
19473876965
19473884411
19473890454
19473898510
19473905652
19473913037
19473919812
19473930005
19473938183
19473946850
19473952465
19473960583
19473968151
19473976269
19473984204
19473992565
19474000195
19474008007
19474016552
19474021557
19474029797
19474038586
19474045727
19474052746
19474059521
19474067699
19474075329
19474083263
19474091686
19474099926
19474107128
19474115978
19474121715
19474129955
19474135387
19474144420
19474152538
19474159923
19474167248
19474173229
19474182140
19474187999
19474195446
19474204174
19474214428
19474222667
19474229931
19474237072
19474243480
19474249828
19474256359
19474265331
19474269054
19474277721
19474284862
19474291393
19474297252
19474303905
19474310130
19474316478
19474323497
19474328990
19474335643
19474342845
19474351268
19474367198
19474390025
19474410716
19474418162
19474426036
19474432323
19474440990
19474447093
19474453990
19474460277
19474465892
19474473033
19474480906
19474487559
19474493846
19474501231
19474507518
19474513926
19474520701
19474526011
19474533824
19474541636
19474547618
19474554087
19474558848
19474566172
19474573130
19474579112
19474584971
19474590403
19474599009
19474604807
19474612437
19474618418
19474624033
19474630991
19474637461
19474642893
19474648509
19474655039
19474660838
19474666941
19474674265
19474679453
19474685557
19474691721
19474695628
19474703013
19474709482
19474714670
19474721506
19474727549
19474733713
19474738047
19474745615
19474751597
19474758616
19474764048
19474770090
19474776194
19474782724
19474789560
19474796213
19474802195
19474808054
19474815439
19474820993
19474828318
19474833017
19474840525
19474848276
19474853769
19474860910
19474867197
19474873178
19474879709
19474888254
19474895090
19474901438
19474908212
19474914987
19474920542
19474927133
19474933969
19474940439
19474947458
19474953500
19474960886
19474966806
19474974008
19474980112
19474985849
19474993600
19474999033
19475005929
19475011911
19475018747
19475026498
19475032663
19475038705
19475044504
19475052499
19475058664
19475065744
19475072580
19475081613
19475088327
19475094980
19475101510
19475108041
19475113900
19475121652
19475130258
19475135019
19475141671
19475148629
19475155282
19475161630
19475168344
19475176461
19475183175
19475189645
19475195626
19475202157
19475208505
19475215402
19475222543
19475230416
19475235909
19475242501
19475249642
19475255257
19475260140
19475266854
19475273934
19475280343
19475286080
19475293404
19475298836
19475305855
19475312142
19475320138
19475327340
19475334237
19475341134
19475345589
19475353524
19475360604
19475368111
19475374093
19475379036
19475387398
19475393746
19475399605
19475405648
19475414376
19475419808
19475426644
19475432137
19475439217
19475445992
19475452462
19475461006
19475468453
19475476265
19475483711
19475490853
19475497688
19475505074
19475513741
19475520638
19475528084
19475536018
19475540779
19475548836
19475555428
19475563240
19475569038
19475578255
19475584541
19475593208
19475600899
19475608406
19475615669
19475624824
19475632881
19475641243
19475646919
19475654609
19475662666
19475671272
19475678413
19475684700
19475696235
19475703132
19475709968
19475720649
19475727424
19475735542
19475744270
19475752754
19475760688
19475767585
19475776802
19475784187
19475793098
19475799751
19475809089
19475816108
19475824653
19475831367
19475840827
19475847358
19475856330
19475862312
19475870307
19475876472
19475885749
19475892036
19475900886
19475907050
19475915717
19475923041
19475931037
19475938361
19475946418
19475953254
19475960822
19475967719
19475975165
19475981513
19475990363
19475995551
19476001960
19476008307
19476014655
19476018866
19476026313
19476034674
19476041327
19476047614
19476053961
19476060981
19476065131
19476072028
19476078070
19476085883
19476092169
19476096808
19476103949
19476111151
19476117987
19476124884
19476130316
19476136786
19476142645
19476149664
19476154669
19476160590
19476168280
19476173956
19476180609
19476187689
19476193060
19476199896
19476206549
19476211188
19476219244
19476224921
19476232245
19476237372
19476244024
19476249579
19476256293
19476262762
19476269659
19476273871
19476281744
19476287115
19476292914
19476298163
19476305609
19476311468
19476318426
19476323614
19476329901
19476336615
19476344854
19476351324
19476358038
19476364141
19476371466
19476378057
19476383612
19476392645
19476397589
19476405279
19476411077
19476417364
19476424566
19476429632
19476436651
19476441595
19476448309
19476456121
19476462530
19476467962
19476472845
19476478948
19476485540
19476491704
19476499517
19476504400
19476510625
19476519536
19476526250
19476531438
19476537664
19476545232
19476551946
19476558477
19476565435
19476570012
19476578496
19476585210
19476590459
19476598760
19476605535
19476611089
19476618718
19476626226
19476633123
19476639531
19476646794
19476653020
19476659490
19476665349
19476673589
19476679387
19476686589
19476692693
19476698857
19476704839
19476712468
19476720586
19476727422
19476734013
19476739995
19476746037
19476752812
19476759953
19476766301
19476773930
19476780461
19476786381
19476792485
19476800114
19476806157
19476813725
19476818486
19476828862
19476834233
19476841862
19476849309
19476855717
19476862065
19476867070
19476875248
19476880253
19476888676
19476893864
19476902958
19476910160
19476916508
19476922428
19476930668
19476936589
19476942387
19476948063
19476956120
19476962040
19476968083
19476973393
19476982060
19476989018
19476995426
19477002690
19477009342
19477016728
19477024113
19477029423
19477036625
19477044010
19477048649
19477057133
19477062931
19477069218
19477074223
19477083195
19477091129
19477097355
19477103519
19477109379
19477115787
19477123295
19477128300
19477136356
19477142216
19477148929
19477154239
19477161075
19477168400
19477175174
19477182438
19477190067
19477196232
19477201419
19477208744
19477214054
19477220096
19477224979
19477234073
19477242740
19477250247
19477256595
19477264224
19477272281
19477279483
19477285831
19477294681
19477300296
19477310367
19477319034
19477330142
19477337589
19477345218
19477352603
19477361942
19477369449
19477376834
19477385013
19477392215
19477400210
19477407291
19477415347
19477424869
19477430789
19477439761
19477445682
19477454654
19477461734
19477469424
19477476199
19477485965
19477495242
19477501834
19477510318
19477516055
19477525332
19477533755
19477541690
19477549136
19477556826
19477564883
19477572940
19477581118
19477590090
19477594668
19477606204
19477613406
19477622012
19477628909
19477636904
19477646365
19477651736
19477662112
19477671633
19477678164
19477687441
19477693484
19477700686
19477708926
19477716067
19477723208
19477728884
19477737124
19477742129
19477749209
19477756411
19477761232
19477767763
19477774111
19477780459
19477787294
19477793459
19477798342
19477805361
19477810183
19477817934
19477824526
19477830996
19477838564
19477844850
19477850710
19477856813
19477862306
19477869753
19477875002
19477882875
19477887636
19477895143
19477900026
19477907594
19477914186
19477919618
19477925600
19477933351
19477938661
19477945924
19477951967
19477957826
19477963869
19477969789
19477974672
19477982484
19477987672
19477994386
19477999940
19478004274
19478011049
19478017274
19478022951
19478028505
19478034242
19478039186
19478046815
19478051759
19478059511
19478065797
19478070619
19478076906
19478082643
19478088929
19478095704
19478100099
19478106324
19478113282
19478119020
19478124879
19478130799
19478136293
19478140809
19478147340
19478151856
19478159425
19478165284
19478171266
19478177308
19478184693
19478189759
19478196290
19478201844
19478209962
19478216615
19478221192
19478229249
19478234742
19478242493
19478247865
19478255616
19478260438
19478266175
19478271302
19478278992
19478285340
19478291321
19478296326
19478305787
19478311219
19478318665
19478323609
19478331238
19478338257
19478343323
19478348633
19478356019
19478362549
19478367493
19478376465
19478381470
19478388855
19478395691
19478403626
19478409241
19478417176
19478423096
19478430420
19478436341
19478443726
19478450440
19478457703
19478464295
19478472473
19478478089
19478483399
19478490479
19478495300
19478503235
19478508362
19478515503
19478522400
19478527283
19478534912
19478541382
19478549500
19478554504
19478562500
19478567749
19478576782
19478583252
19478589416
19478595520
19478602905
19478611023
19478617126
19478623840
19478629761
19478636047
19478641601
19478648010
19478653930
19478660522
19478666137
19478672546
19478678283
19478684265
19478691955
19478698791
19478706176
19478711120
19478718383
19478723266
19478730590
19478737670
19478742736
19478749755
19478756713
19478762939
19478767883
19478774352
19478781066
19478787231
19478793701
19478800048
19478806640
19478813049
19478818542
19478824950
19478831847
19478837951
19478843810
19478850951
19478855956
19478863464
19478869628
19478875243
19478880248
19478888183
19478893676
19478900268
19478905883
19478914123
19478919982
19478925902
19478932677
19478940490
19478947265
19478953856
19478960509
19478968078
19478973082
19478980590
19478987426
19478992675
19479000670
19479005492
19479012572
19479019164
19479026183
19479033263
19479039916
19479044799
19479051268
19479058653
19479065856
19479073790
19479081236
19479089293
19479097167
19479101195
19479112669
19479118529
19479127928
19479133849
19479142271
19479148802
19479157957
19479165892
19479171690
19479180601
19479186888
19479195921
19479202025
19479210936
19479218870
19479226134
19479233763
19479241514
19479248045
19479255736
19479263426
19479271666
19479279844
19479287291
19479293821
19479301390
19479308287
19479316282
19479324827
19479332273
19479338316
19479346372
19479352659
19479362058
19479370298
19479375425
19479384763
19479392942
19479399778
19479407835
19479415159
19479422239
19479431394
19479440122
19479447935
19479454649
19479461790
19479469785
19479476438
19479482908
19479490415
19479497617
19479504087
19479510496
19479516843
19479520017
19479530149
19479536008
19479543577
19479548459
19479555234
19479560056
19479566526
19479571103
19479577512
19479583005
19479590085
19479596677
19479601804
19479610715
19479616696
19479623899
19479629209
19479637815
19479643857
19479649411
19479654294
19479661862
19479667844
19479673459
19479680539
19479686276
19479691647
19479698667
19479703916
19479711301
19479718259
19479724545
19479731320
19479736020
19479741574
19479748044
19479753598
19479758786
19479764218
19479770322
19479777951
19479783078
19479789487
19479794491
19479800778
19479806271
19479812314
19479816952
19479823849
19479829770
19479835812
19479841061
19479846798
19479852170
19479857602
19479864315
19479871090
19479876095
19479882748
19479887814
19479894772
19479899411
19479904477
19479913266
19479919003
19479923642
19479931332
19479936276
19479942990
19479947506
19479954891
19479961422
19479967709
19479972408
19479979061
19479984249
19479990414
19479996945
19480001583
19480009152
19480014034
19480021236
19480027706
19480033566
19480039730
19480048458
19480053707
19480061581
19480066402
19480074276
19480080624
19480086239
19480091915
19480099361
19480104793
19480111568
19480117122
19480124019
19480128841
19480135799
19480143490
19480150631
19480156856
19480163387
19480169185
19480173885
19480182125
19480187435
19480195675
19480201839
19480209163
19480216121
19480223384
19480228389
19480236019
19480242855
19480250911
19480255977
19480262752
19480269161
19480273799
19480282161
19480286800
19480294002
19480301631
19480308101
19480314388
19480320796
19480326473
19480334529
19480340572
19480348689
19480354854
19480360530
19480367183
19480372554
19480379451
19480384700
19480390742
19480398677
19480404292
19480411311
19480417659
19480423945
19480430781
19480435542
19480443232
19480450313
19480456599
19480461238
19480469172
19480474299
19480480159
19480486995
19480494197
19480499995
19480507746
19480513240
19480519831
19480526789
19480532038
19480538386
19480545649
19480551814
19480559199
19480563655
19480571223
19480578364
19480585810
19480593623
19480599177
19480606989
19480613581
19480620417
19480625605
19480632929
19480639521
19480648066
19480653132
19480660456
19480668024
19480674616
19480680414
19480686762
19480692011
19480700556
19480709589
19480716425
19480722834
19480729731
19480736445
19480743342
19480748896
19480759516
19480766413
19480774286
19480782160
19480787714
19480795893
19480801020
19480809748
19480814936
19480824457
19480832392
19480838373
19480846430
19480854303
19480859674
19480868646
19480877069
19480883234
19480892633
19480898493
19480906976
19480913202
19480921442
19480928033
19480935114
19480944269
19480950555
19480956964
19480965021
19480971368
19480978876
19480985956
19480992547
19481002435
19481007867
19481014947
19481021600
19481030328
19481036554
19481044488
19481051629
19481059259
19481067865
19481074334
19481080804
19481088128
19481095025
19481102472
19481109491
19481120355
19481127618
19481136590
19481143304
19481151238
19481157830
19481170342
19481178948
19481186395
19481194695
19481201409
19481208489
19481216485
19481222527
19481229546
19481236138
19481243462
19481248406
19481255059
19481259637
19481266228
19481271233
19481277947
19481284600
19481289178
19481295342
19481299981
19481307000
19481312249
19481320061
19481325432
19481332451
19481337395
19481344841
19481351922
19481358147
19481364922
19481369622
19481376946
19481383782
19481389824
19481396111
19481402275
19481408684
19481414788
19481421135
19481426567
19481434685
19481439263
19481446709
19481452812
19481458733
19481463921
19481471062
19481477837
19481483452
19481489617
19481494072
19481499809
19481506889
19481513481
19481521477
19481529900
19481535332
19481543022
19481550774
19481555412
19481562736
19481567619
19481576225
19481581230
19481588493
19481594658
19481600212
19481607353
19481612541
19481619499
19481625297
19481632133
19481638603
19481643486
19481649894
19481654899
19481661369
19481667778
19481672660
19481679374
19481684135
19481692863
19481698173
19481703971
19481711113
19481717826
19481724479
19481730705
19481737358
19481743278
19481749320
19481756523
19481761650
19481769096
19481774528
19481781913
19481787223
19481793632
19481799796
19481804923
19481811942
19481819877
19481826774
19481833854
19481840812
19481846244
19481853934
19481859122
19481868156
19481873832
19481880546
19481887931
19481894767
19481902091
19481909232
19481915458
19481923087
19481929862
19481934562
19481941031
19481947196
19481952994
19481959098
19481964835
19481972464
19481977164
19481985282
19481990592
19481996939
19482004447
19482010245
19482015677
19482025443
19482031912
19482038443
19482044547
19482052847
19482058402
19482063895
19482070059
19482076895
19482083304
19482090262
19482095267
19482102164
19482106741
19482113577
19482120230
19482125113
19482130484
19482137686
19482144034
19482149100
19482157950
19482163260
19482170645
19482175955
19482185782
19482191580
19482197867
19482203055
19482212149
19482217764
19482225943
19482232657
19482238333
19482243887
19482251761
19482258658
19482264395
19482271963
19482280081
19482286306
19482292471
19482297232
19482304312
19482310781
19482317190
19482324331
19482331106
19482337210
19482343374
19482349417
19482356375
19482363210
19482369253
19482378591
19482384756
19482390127
19482395437
19482402700
19482408743
19482415640
19482421255
19482428274
19482434743
19482439443
19482445364
19482452138
19482458425
19482464468
19482472097
19482479543
19482486745
19482493215
19482500661
19482506521
19482515066
19482522939
19482530263
19482536977
19482544484
19482550039
19482557851
19482566579
19482573415
19482579091
19482587453
19482595082
19482602529
19482608144
19482616689
19482622487
19482629262
19482638783
19482647267
19482653493
19482662892
19482668752
19482675710
19482684194
19482692250
19482697743
19482706349
19482712514
19482721547
19482728932
19482734486
19482742482
19482747487
19482756154
19482763966
19482774586
19482781544
19482791676
19482798817
19482808461
19482817494
19482824269
19482835499
19482844227
19482850636
19482859730
19482866139
19482874379
19482883290
19482889698
19482896778
19482906544
19482913258
19482922718
19482931263
19482939686
19482945973
19482954090
19482960255
19482969349
19482975575
19482981556
19482988636
19482996204
19483002430
19483009693
19483015125
19483023304
19483029835
19483034656
19483041737
19483047779
19483053211
19483059559
19483066456
19483072010
19483079639
19483085132
19483092640
19483097889
19483105274
19483111194
19483118213
19483123829
19483130542
19483135669
19483142017
19483146534
19483153797
19483159351
19483166736
19483173938
19483178760
19483185291
19483192737
19483198658
19483203601
19483211231
19483217945
19483225574
19483230396
19483237903
19483244007
19483250354
19483254382
19483261890
19483268665
19483274585
19483279895
19483286060
19483291431
19483297656
19483303699
19483308337
19483314868
19483320605
19483325610
19483331775
19483338733
19483344653
19483351367
19483356311
19483361804
19483366992
19483371265
19483377917
19483384265
19483390246
19483397326
19483403430
19483409595
19483415698
19483420947
19483427966
19483434314
19483441394
19483447009
19483454211
19483460193
19483466723
19483472827
19483477465
19483484729
19483491565
19483497790
19483503588
19483509387
19483515551
19483521472
19483528002
19483534167
19483540331
19483547167
19483552477
19483559374
19483564929
19483570422
19483576708
19483585070
19483591723
19483596667
19483603747
19483608691
19483616015
19483623339
19483630846
19483635973
19483642626
19483649523
19483656054
19483662951
19483669543
19483674975
19483682482
19483689135
19483695238
19483698595
19483706041
19483713122
19483719103
19483725084
19483731127
19483736986
19483743822
19483751268
19483757982
19483764330
19483771166
19483777391
19483785692
19483791429
19483797106
19483803759
19483810839
19483816698
19483822496
19483829332
19483836901
19483842150
19483849779
19483856188
19483861009
19483868211
19483873399
19483881395
19483886583
19483894090
19483899278
19483906541
19483912157
19483919664
19483926988
19483934190
19483941637
19483946580
19483953477
19483959581
19483966295
19483972459
19483977464
19483983568
19483991197
19483997789
19484003221
19484009752
19484016404
19484023057
19484029588
19484036729
19484043382
19484049974
19484056504
19484065049
19484071092
19484078843
19484084703
19484093125
19484098497
19484108018
19484114854
19484122788
19484127793
19484136521
19484143907
19484151048
19484157762
19484166490
19484172593
19484178636
19484184617
19484192246
19484197678
19484204392
19484212083
19484218613
19484225510
19484232102
19484239060
19484247544
19484252061
19484261216
19484267991
19484275071
19484282090
19484288743
19484296738
19484321702
19484329453
19484336228
19484342942
19484351426
19484358628
19484365586
19484373093
19484379929
19484386338
19484393235
19484400254
19484408310
19484415634
19484423752
19484430649
19484438217
19484445175
19484452500
19484458603
19484465927
19484473312
19484481003
19484487045
19484495895
19484501755
19484507492
19484516891
19484522446
19484532761
19484538498
19484547592
19484557114
19484566208
19484573410
19484580795
19484587997
19484597519
19484605697
19484611496
19484619796
19484629379
19484636947
19484644760
19484651413
19484658615
19484664840
19484673263
19484679611
19484686264
19484696151
19484703903
19484712631
19484718490
19484727340
19484732589
19484741073
19484748580
19484756149
19484764205
19484771713
19484778426
19484784652
19484791671
19484796920
19484803085
19484811019
19484816878
19484822799
19484828780
19484836837
19484843429
19484851241
19484858443
19484863570
19484870833
19484876082
19484882735
19484887679
19484894637
19484901229
19484907393
19484912276
19484918502
19484924849
19484931624
19484938216
19484944381
19484950118
19484960616
19484967147
19484973311
19484981185
19484986006
19484993819
19484999861
19485006880
19485013106
19485018904
19485024581
19485029830
19485036360
19485043074
19485052168
19485056563
19485064559
19485070601
19485077681
19485083724
19485090987
19485097517
19485103377
19485110274
19485117415
19485123701
19485130415
19485134627
19485141402
19485148115
19485154280
19485160078
19485165999
19485172285
19485177473
19485182051
19485189253
19485195540
19485200422
19485204939
19485212019
19485217878
19485224409
19485230391
19485234907
19485242476
19485247053
19485252668
19485259016
19485264997
19485270979
19485279585
19485285566
19485290815
19485297407
19485302961
19485308821
19485316023
19485322676
19485327864
19485334760
19485340437
19485348188
19485353864
19485360395
19485367841
19485374983
19485380659
19485388105
19485395307
19485401655
19485407026
19485414106
19485419172
19485428083
19485435102
19485442853
19485448774
19485454938
19485459943
19485467451
19485474714
19485481855
19485487287
19485496137
19485501569
19485510175
19485514997
19485523725
19485530500
19485537519
19485545453
19485551557
19485559247
19485565290
19485573224
19485579450
19485586713
19485592450
19485597516
19485605512
19485610700
19485617841
19485624433
19485629376
19485635907
19485643659
19485648541
19485655927
19485663800
19485668988
19485677106
19485682416
19485691693
19485698041
19485704694
19485711530
19485718915
19485725629
19485736615
19485748883
19485755536
19485768231
19485778180
19485787152
19485796429
19485807965
19485820172
19485829022
19485840619
19485849469
19485858624
19485868573
19485878399
19485889996
19485899700
19485908428
19485916241
19485924298
19485934979
19485945782
19485955608
19485963604
19485973736
19485984417
19485993816
19486002911
19486011639
19486020489
19486029095
19486039898
19486048992
19486057293
19486065960
19486076763
19486091289
19486100200
19486110943
19486118633
19486128826
19486139568
19486149944
19486158855
19486167766
19486177227
19486187908
19486196575
19486206584
19486214519
19486227031
19486236980
19486246868
19486256938
19486266460
19486275676
19486287456
19486295757
19486306682
19486315959
19486325725
19486334331
19486345866
19486355876
19486375041
19486394328
19486415629
19486432963
19486453532
19486473307
19486493876
19486511271
19486532023
19486551554
19486566264
19486575175
19486584391
19486595072
19486613566
19486633341
19486652323
19486673075
19486682902
19486693583
19486702921
19486713114
19486722330
19486730875
19486741007
19486751139
19486760050
19486769144
19486779337
19486788858
19486798746
19486808512
19486818582
19486827127
19486836649
19486845316
19486854532
19486860819
19486873270
19486882669
19486891397
19486900369
19486909769
19486918863
19486927896
19486936685
19486946390
19486958353
19486967569
19486977579
19486986184
19486995584
19487005349
19487014810
19487025308
19487034280
19487043374
19487053201
19487061685
19487070901
19487077310
19487087747
19487098306
19487107156
19487116433
19487125710
19487134744
19487144021
19487156045
19487164163
19487175637
19487186684
19487193032
19487203835
19487215005
19487223977
19487232156
19487244668
19487253213
19487263650
19487274392
19487282082
19487293252
19487301491
19487313698
19487320046
19487331765
19487339638
19487349404
19487358986
19487366860
19487378578
19487387184
19487394387
19487403664
19487413185
19487423134
19487431191
19487441139
19487450356
19487459877
19487467751
19487477089
19487486733
19487495461
19487505775
19487515358
19487524574
19487531898
19487541237
19487551369
19487560036
19487570106
19487576515
19487582069
19487589699
19487595436
19487602882
19487608192
19487616676
19487620582
19487628883
19487634681
19487641456
19487646949
19487654579
19487660621
19487667823
19487674476
19487679908
19487687477
19487694007
19487701271
19487707984
19487714088
19487720680
19487728126
19487733375
19487740150
19487746742
19487753761
19487759864
19487766944
19487772315
19487777992
19487784522
19487791419
19487797645
19487805091
19487810706
19487815955
19487824561
19487830115
19487834815
19487840919
19487848121
19487854041
19487860938
19487867469
19487874671
19487881934
19487890296
19487896216
19487904151
19487909522
19487916663
19487923194
19487930091
19487937476
19487944251
19487950049
19487957129
19487963172
19487968848
19487975867
19487982764
19487988257
19487995276
19488001746
19488008338
19488014563
19488020972
19488028418
19488033240
19488043005
19488050757
19488055762
19488061621
19488068518
19488075659
19488081702
19488088171
19488094092
19488101538
19488105933
19488114477
19488120642
19488127112
19488132849
19488140234
19488146948
19488152014
19488160071
19488165747
19488171545
19488178198
19488184607
19488191260
19488197973
19488203833
19488210974
19488217688
19488222570
19488232092
19488238684
19488244909
19488250524
19488258215
19488263586
19488271459
19488276770
19488286413
19488294103
19488302954
19488310888
19488318640
19488328405
19488337011
19488344457
19488351110
19488358617
19488366430
19488375646
19488381872
19488390661
19488397192
19488404943
19488412939
19488422643
19488428258
19488435766
19488446386
19488452672
19488461095
19488467626
19488476659
19488483129
19488491796
19488498266
19488507177
19488512914
19488521398
19488527868
19488535985
19488542882
19488552831
19488559178
19488566869
19488574437
19488583531
19488590306
19488600133
19488606725
19488613439
19488619420
19488627355
19488637792
19488645726
19488653539
19488660069
19488669164
19488675389
19488685216
19488691380
19488701146
19488707310
19488714940
19488722081
19488729710
19488736851
19488744359
19488750889
19488759129
19488765904
19488772252
19488778843
19488788182
19488796116
19488803013
19488809727
19488816319
19488822606
19488829075
19488834996
19488843174
19488847264
19488855870
19488862034
19488868626
19488874974
19488881321
19488887547
19488894200
19488900913
19488907444
19488914036
19488919041
19488926548
19488932652
19488938328
19488943150
19488952549
19488959019
19488966526
19488976292
19488982151
19488990086
19488995640
19489000889
19489008518
19489014988
19489021336
19489026890
19489034275
19489038242
19489047092
19489053013
19489060215
19489067173
19489072239
19489079380
19489086033
19489091709
19489097080
19489103794
19489109592
19489116306
19489122104
19489126255
19489132480
19489138462
19489144809
19489150669
19489156589
19489162387
19489169284
19489174839
19489181613
19489189182
19489194309
19489201328
19489207126
19489213840
19489219272
19489225986
19489231113
19489238437
19489242587
19489248996
19489255527
19489261630
19489267246
19489274326
19489280978
19489286960
19489292758
19489298984
19489305576
19489311496
19489318637
19489325412
19489330661
19489336337
19489343234
19489348605
19489357699
19489365512
19489371310
19489379489
19489386630
19489392733
19489398837
19489405551
19489410434
19489419833
19489426059
19489431552
19489439303
19489444674
19489451632
19489457980
19489464083
19489471591
19489478305
19489485629
19489491488
19489498507
19489505221
19489511874
19489518160
19489525118
19489531893
19489538546
19489544894
19489552645
19489559176
19489565890
19489571444
19489579379
19489586642
19489592013
19489598910
19489605135
19489611971
19489617953
19489625033
19489631014
19489639071
19489644747
19489651339
19489656283
19489664278
19489671786
19489677645
19489683687
19489689669
19489695833
19489701754
19489708345
19489715426
19489722139
19489727999
19489735872
19489742830
19489749178
19489757235
19489760713
19489770418
19489777010
19489784761
19489789705
19489797273
19489802950
19489811983
19489819063
19489824739
19489832185
19489837434
19489844881
19489852754
19489859712
19489865450
19489873689
19489879976
19489887117
19489893282
19489899324
19489908540
19489914644
19489920930
19489927217
19489934602
19489940340
19489946748
19489953706
19489961763
19489966401
19489973115
19489980012
19489985505
19489992952
19489999727
19490006135
19490013704
19490020845
19490027314
19490034394
19490041230
19490048494
19490055940
19490064912
19490071931
19490078095
19490085115
19490092317
19490100434
19490106050
19490115388
19490124238
19490130036
19490138764
19490144563
19490152802
19490162080
19490168794
19490176850
19490183015
19490190400
19490197602
19490205109
19490209504
19490220307
19490226533
19490238190
19490244172
19490252717
19490258515
19490267060
19490274384
19490282258
19490288727
19490298432
19490307282
19490313813
19490323334
19490331574
19490340363
19490347809
19490356049
19490364106
19490370697
19490379486
19490387848
19490394684
19490403778
19490411957
19490419830
19490425873
19490435944
19490442658
19490451630
19490460297
19490469330
19490478973
19490488373
19490494598
19490504730
19490511261
19490520538
19490529877
19490534881
19490543365
19490549896
19490556305
19490561920
19490568023
19490573822
19490581817
19490588104
19490594757
19490601104
19490607025
19490613006
19490618133
19490625640
19490633758
19490643280
19490648529
19490655792
19490662506
19490669158
19490675018
19490680633
19490686492
19490691863
19490699554
19490705474
19490711334
19490717559
19490723296
19490731475
19490736663
19490743133
19490749664
19490755828
19490761199
19490766875
19490772063
19490781036
19490787444
19490793426
19490800201
19490805328
19490811492
19490818023
19490824187
19490829619
19490835174
19490840911
19490846770
19490851104
19490857329
19490864043
19490870086
19490876800
19490881926
19490887786
19490893462
19490898040
19490905181
19490910186
19490917327
19490922454
19490928923
19490933867
19490941497
19490948210
19490953459
19490960845
19490966094
19490973723
19490979705
19490985259
19490990691
19490998076
19491002959
19491010893
19491016264
19491021636
19491028166
19491034697
19491040923
19491048308
19491054167
19491060027
19491067839
19491074736
19491081023
19491088652
19491095061
19491101713
19491107451
19491115324
19491121001
19491128996
19491134794
19491141264
19491149138
19491155974
19491162321
19491168730
19491175871
19491181913
19491189055
19491194304
19491202238
19491208891
19491214323
19491221403
19491227385
19491234587
19491241484
19491246855
19491252897
19491260160
19491267179
19491273344
19491280546
19491287443
19491293852
19491301359
19491308012
19491312834
19491320402
19491325834
19491332548
19491338957
19491346708
19491353666
19491359220
19491366056
19491373380
19491382352
19491387785
19491393644
19491400480
19491406583
19491412870
19491420560
19491425138
19491432828
19491439420
19491444791
19491451810
19491457975
19491464872
19491472318
19491479459
19491485685
19491493314
19491499784
19491506192
19491513395
19491520292
19491526517
19491532193
19491539640
19491545865
19491552640
19491559476
19491565824
19491575528
19491586087
19491595242
19491604093
19491612760
19491621365
19491630582
19491641141
19491649747
19491658597
19491668607
19491678677
19491685941
19491697842
19491706021
19491718594
19491725369
19491732937
19491739956
19491746609
19491755093
19491762478
19491770352
19491776211
19491784207
19491791043
19491796536
19491804593
19491811917
19491818447
19491825467
19491830960
19491839260
19491845852
19491852505
19491860073
19491865689
19491873074
19491879360
19491886624
19491894314
19491899746
19491906460
19491915920
19491922573
19491928066
19491936855
19491940823
19491952602
19491961086
19491971767
19491980556
19491986477
19491996609
19492005825
19492012539
19492016079
19492025600
19492031582
19492039333
19492044521
19492052151
19492056545
19492064113
19492068996
19492076931
19492081630
19492089199
19492094692
19492102016
19492108425
19492116726
19492122829
19492129970
19492137172
19492143642
19492151088
19492157924
19492165248
19492171413
19492177944
19492184352
19492191799
19492198024
19492205837
19492214809
19492221828
19492228114
19492234767
19492241298
19492248439
19492254298
19492259975
19492266994
19492273402
19492278834
19492284938
19492290614
19492296046
19492302821
19492308498
19492315211
19492320155
19492326930
19492334193
19492339564
19492347011
19492352687
19492360560
19492368129
19492375026
19492380397
19492388759
19492395594
19492402736
19492408717
19492415370
19492422328
19492428859
19492434474
19492440699
19492446864
19492453211
19492460292
19492467677
19492472682
19492479701
19492488368
19492494715
19492500269
19492507899
19492513270
19492520106
19492525172
19492532008
19492537074
19492544398
19492549891
19492556055
19492561671
19492568690
19492574244
19492579310
19492586756
19492593043
19492598231
19492604639
19492611475
19492617213
19492624109
19492628382
19492635157
19492641627
19492648035
19492654932
19492661463
19492666956
19492671351
19492679529
19492685450
19492691248
19492697413
19492703272
19492708887
19492716516
19492723291
19492728601
19492735559
19492740930
19492747583
19492754541
19492759302
19492766077
19492772791
19492777918
19492787073
19492793176
19492798792
19492804102
19492811243
19492816980
19492824793
19492831567
19492837854
19492844690
19492852502
19492858911
19492864709
19492871057
19492878564
19492885583
19492891992
19492897912
19492902551
19492910791
19492916772
19492923852
19492929529
19492937524
19492943567
19492951928
19492956933
19492965234
19492974695
19492981042
19492987939
19492994104
19493001916
19493009179
19493016565
19493023400
19493030419
19493036279
19493044091
19493049707
19493057336
19493062707
19493070642
19493076135
19493084008
19493091332
19493096642
19493104455
19493111474
19493118493
19493125512
19493132897
19493140160
19493145837
19493151574
19493158593
19493164147
19493170617
19493178612
19493184594
19493192406
19493197350
19493204735
19493211510
19493218041
19493223290
19493232140
19493238366
19493244591
19493250756
19493257348
19493262780
19493269799
19493277977
19493284752
19493291161
19493297936
19493302880
19493310570
19493315697
19493322777
19493328759
19493336327
19493341576
19493348656
19493355248
19493362999
19493369164
19493377770
19493384484
19493392113
19493398949
19493404930
19493411583
19493420006
19493427513
19493434898
19493441429
19493449730
19493456383
19493464256
19493470482
19493478050
19493485008
19493493492
19493498924
19493506615
19493514366
19493520836
19493526634
19493533348
19493540428
19493547203
19493554222
19493560325
19493565941
19493574608
19493581016
19493589805
19493597129
19493604271
19493612388
19493618858
19493626854
19493633873
19493642112
19493651268
19493659690
19493666221
19493675132
19493681053
19493688926
19493694602
19493703941
19493710166
19493718467
19493724265
19493733299
19493739219
19493747764
19493755943
19493763572
19493770408
19493777976
19493784934
19493792197
19493801230
19493807822
19493813743
19493823386
19493830161
19493838401
19493844382
19493852622
19493858787
19493866477
19493875327
19493881919
19493890952
19493896811
19493904685
19493912864
19493920676
19493926718
19493934348
19493941855
19493949301
19493956015
19493962912
19493969992
19493977439
19493984030
19493993308
19493999289
19494004782
19494011862
19494017478
19494023581
19494029807
19494037253
19494043173
19494050192
19494057516
19494064658
19494070944
19494077475
19494084982
19494092367
19494097067
19494102377
19494108969
19494117392
19494123434
19494129538
19494135946
19494143393
19494150717
19494157187
19494163046
19494169088
19494177939
19494183676
19494190939
19494196310
19494203085
19494209738
19494215902
19494223593
19494229635
19494235495
19494241964
19494247763
19494254537
19494261495
19494269308
19494275045
19494280416
19494288534
19494291830
19494299093
19494305441
19494312460
19494317892
19494323568
19494330404
19494335714
19494341451
19494348775
19494354757
19494360616
19494367513
19494371969
19494378072
19494384542
19494390218
19494397787
19494401998
19494407491
19494413412
19494419576
19494425374
19494430379
19494438192
19494444112
19494450338
19494457784
19494463094
19494470784
19494476033
19494482991
19494489583
19494495137
19494501180
19494506856
19494513143
19494519429
19494524617
19494531575
19494537618
19494543843
19494549520
19494557149
19494563130
19494568807
19494573873
19494582173
19494587666
19494595052
19494601094
19494607198
19494612508
19494619771
19494625203
19494633504
19494640279
19494645406
19494652669
19494657735
19494664754
19494669698
19494677632
19494682637
19494689595
19494694661
19494701680
19494708150
19494714375
19494719502
19494726338
19494733662
19494740132
19494745320
19494751973
19494759175
19494765645
19494771748
19494778645
19494784199
19494790608
19494796711
19494804585
19494810261
19494816731
19494822651
19494830036
19494840412
19494848225
19494855427
19494863789
19494870808
19494875935
19494885029
19494890095
19494897480
19494902790
19494912556
19494918903
19494925129
19494931965
19494940266
19494946064
19494953815
19494958820
19494966572
19494973835
19494979633
19494985065
19494993488
19494999531
19495006428
19495011921
19495019245
19495026569
19495031269
19495037555
19495046039
19495052570
19495058979
19495065204
19495071979
19495078388
19495084613
19495093647
19495099140
19495106342
19495111469
19495118793
19495125263
19495130695
19495137470
19495145404
19495149860
19495157489
19495163410
19495171161
19495177875
19495185626
19495192462
19495200336
19495207233
19495215350
19495220477
19495228473
19495235309
19495242572
19495247272
19495256061
19495264606
19495272540
19495280048
19495285602
19495294147
19495300250
19495306964
19495315753
19495322772
19495331073
19495337359
19495343768
19495350665
19495359332
19495366107
19495375750
19495383197
19495390094
19495396014
19495403949
19495410784
19495417742
19495424884
19495434771
19495441851
19495448260
19495454302
19495463091
19495468585
19495476092
19495484454
19495493182
19495500201
19495508074
19495511614
19495521380
19495529803
19495536883
19495544390
19495552691
19495560198
19495568011
19495575152
19495582537
19495588885
19495596819
19495604937
19495612932
19495620928
19495626482
19495631975
19495641863
19495645647
19495655291
19495660662
19495669817
19495678057
19495685869
19495691423
19495699236
19495706255
19495712969
19495718462
19495728655
19495734453
19495742449
19495749101
19495755266
19495761492
19495767595
19495774492
19495781389
19495787248
19495794328
19495799944
19495805010
19495811723
19495816911
19495822649
19495830156
19495837053
19495841508
19495848100
19495854021
19495860063
19495866106
19495873186
19495878191
19495885515
19495891984
19495897539
19495903642
19495909196
19495915300
19495921342
19495927263
19495934831
19495939836
19495947404
19495953386
19495959062
19495966874
19495974138
19495978654
19495984758
19495991227
19495995378
19496002458
19496007280
19496012895
19496019364
19496024736
19496030961
19496035722
19496042131
19496047013
19496051713
19496059831
19496065385
19496071366
19496076798
19496082231
19496087907
19496094438
19496102067
19496107133
19496114091
19496119767
19496124955
19496136063
19496150162
19496163285
19496172745
19496180802
19496190385
19496198746
19496207474
19496217057
19496226945
19496233658
19496240128
19496246415
19496253312
19496257645
19496265091
19496270707
19496276627
19496283219
19496289566
19496296341
19496302323
19496307938
19496316056
19496321915
19496328812
19496335160
19496342179
19496348404
19496356278
19496362503
19496368363
19496374344
19496379837
19496385086
19496392044
19496397293
19496404190
19496409866
19496417618
19496422195
19496429398
19496436234
19496441238
19496448685
19496453751
19496461746
19496467361
19496474747
19496479751
19496487869
19496493545
19496500137
19496505569
19496513077
19496518326
19496526199
19496533035
19496539627
19496546402
19496552871
19496560012
19496566360
19496571853
19496578018
19496583877
19496589920
19496596450
19496602676
19496608169
19496615127
19496622634
19496628860
19496634414
19496642654
19496648147
19496655166
19496662979
19496671096
19496675369
19496682449
19496687881
19496694900
19496701431
19496706313
19496712478
19496719619
19496724319
19496731460
19496738601
19496744033
19496750503
19496758132
19496765456
19496770827
19496777968
19496785354
19496793471
19496801467
19496807631
19496815749
19496824294
19496831984
19496839492
19496846145
19496853103
19496858168
19496866347
19496872451
19496880446
19496888198
19496893325
19496901320
19496906386
19496913588
19496921401
19496927931
19496933730
19496940138
19496945265
19496954482
19496960646
19496967177
19496972975
19496981825
19496988417
19496995375
19497003005
19497009963
19497016798
19497023695
19497030898
19497038161
19497044325
19497051161
19497058546
19497065504
19497071364
19497079664
19497087843
19497095717
19497101881
19497110304
19497115736
19497123854
19497131178
19497136000
19497145399
19497152235
19497161085
19497166761
19497174879
19497182692
19497192579
19497199232
19497207655
19497214552
19497225477
19497232740
19497238233
19497246534
19497252577
19497259168
19497267469
19497273023
19497283277
19497291822
19497298048
19497308180
19497314710
19497324476
19497333265
19497341810
19497345960
19497357557
19497365980
19497373609
19497378065
19497388318
19497397657
19497405836
19497412549
19497421644
19497429944
19497434583
19497443921
19497452649
19497459913
19497466626
19497476148
19497483106
19497491712
19497497266
19497505078
19497512525
19497518689
19497524427
19497533155
19497538526
19497545728
19497551953
19497559583
19497565198
19497572888
19497580090
19497585339
19497591809
19497599133
19497604993
19497612134
19497619458
19497625867
19497632092
19497638135
19497644665
19497650586
19497657117
19497664624
19497671094
19497677014
19497685071
19497690198
19497695996
19497701367
19497707776
19497713452
19497719433
19497725537
19497733227
19497739087
19497745739
19497750988
19497758007
19497765210
19497771862
19497778332
19497784558
19497790844
19497797680
19497804028
19497810986
19497816479
19497822766
19497830273
19497836804
19497844311
19497849804
19497854870
19497861767
19497867687
19497874035
19497879162
19497885388
19497890759
19497896801
19497901562
19497908032
19497914867
19497920727
19497925304
19497933239
19497939098
19497944653
19497952038
19497957714
19497965221
19497970592
19497975902
19497981884
19497989391
19497995189
19498003124
19498009228
19498015758
19498021312
19498027721
19498033703
19498039928
19498047496
19498053356
19498057750
19498065563
19498070507
19498078075
19498084117
19498091991
19498098033
19498105358
19498112865
19498120555
19498126171
19498133312
19498139842
19498149425
19498156017
19498165111
19498170360
19498179027
19498187694
19498193858
19498201244
19498209789
19498216319
19498223338
19498229198
19498237437
19498243724
19498250621
19498258433
19498263438
19498271251
19498277659
19498285472
19498292796
19498300426
19498306956
19498312327
19498319529
19498325267
19498334300
19498341990
19498349681
19498357554
19498364451
19498370555
19498377574
19498385997
19498392283
19498399607
19498406077
19498413401
19498419017
19498426524
19498434153
19498441599
19498448496
19498456065
19498461802
19498469431
19498476023
19498481028
19498488718
19498495493
19498501353
19498507395
19498515513
19498520213
19498529124
19498535715
19498543040
19498549815
19498555552
19498563364
19498569712
19498578867
19498584971
19498590220
19498598459
19498606821
19498613840
19498619639
19498629587
19498636484
19498641977
19498650888
19498656443
19498665171
19498671457
19498678720
19498686533
19498693979
19498700815
19498707102
19498714304
19498721323
19498729746
19498735544
19498744760
19498751657
19498760996
19498767404
19498774362
19498785715
19498791086
19498802622
19498808664
19498816660
19498824350
19498832590
19498838266
19498847482
19498854806
19498861459
19498871835
19498879648
19498887765
19498894235
19498904733
19498911142
19498917856
19498927255
19498934457
19498943002
19498952340
19498960397
19498967111
19498975717
19498984079
19498992562
19499000497
19499007516
19499014657
19499020761
19499027719
19499034921
19499043038
19499050363
19499059640
19499065988
19499072884
19499079781
19499088448
19499094857
19499103463
19499110421
19499119820
19499126900
19499134164
19499142464
19499150765
19499158028
19499164986
19499172188
19499180184
19499188790
19499196175
19499204720
19499210030
19499218453
19499226815
19499232369
19499239510
19499244576
19499253060
19499258065
19499264107
19499271492
19499277901
19499285042
19499291512
19499297127
19499303780
19499309517
19499315132
19499322579
19499329903
19499336678
19499342537
19499347359
19499355354
19499360298
19499367439
19499372383
19499381233
19499386787
19499393135
19499400215
19499405281
19499411812
19499418343
19499424385
19499431465
19499438179
19499444221
19499451973
19499457283
19499465828
19499473091
19499478767
19499484566
19499490242
19499497139
19499502510
19499511238
19499518562
19499524543
19499531318
19499537239
19499542976
19499550850
19499559517
19499566475
19499571479
19499579109
19499585578
19499592720
19499601081
19499609260
19499614814
19499621345
19499626472
19499632636
19499639228
19499644782
19499650031
19499656684
19499663093
19499668647
19499675971
19499682197
19499689582
19499694709
19499701545
19499707771
19499713386
19499719245
19499726386
19499732368
19499739265
19499745368
19499752082
19499756782
19499764167
19499769599
19499779487
19499785102
19499793708
19499799750
19499805793
19499811042
19499817145
19499826423
19499833808
19499840400
19499846381
19499854071
19499859259
19499866767
19499872016
19499879767
19499886359
19499891425
19499898566
19499905158
19499910102
19499917304
19499922187
19499930060
19499936591
19499943732
19499950263
19499955512
19499961981
19499968939
19499975775
19499983283
19499990363
19499997076
19500005133
19500012396
19500019965
19500027106
19500034918
19500042425
19500049872
19500056769
19500064276
19500071173
19500077154
19500083136
19500089728
19500097296
19500103766
19500109686
19500117987
19500124823
19500131353
19500138067
19500147223
19500152472
19500160528
19500167364
19500173834
19500180914
19500188970
19500195623
19500203375
19500209844
19500215277
19500222723
19500228155
19500235174
19500242864
19500249639
19500255926
19500262396
19500268499
19500274969
19500281255
19500287725
19500294256
