15122234480
15122240644
15122246138
15122251264
15122256758
15122260969
15122266767
15122271894
15122277754
15122284101
15122288801
15122293928
15122299543
15122306013
15122311872
15122315778
15122322675
15122329023
15122335310
15122341291
15122346967
15122353010
15122359663
15122364973
15122371320
15122377912
15122383466
15122390668
15122396711
15122403669
15122409284
15122416608
15122421308
15122426008
15122432783
15122439008
15122445844
15122452131
15122458295
15122464948
15122470990
15122477948
15122484418
15122488996
15122498334
15122506086
15122513105
15122521222
15122526899
15122536420
15122544599
15122548322
15122557050
15122563031
15122569257
15122575360
15122580304
15122588178
15122591596
15122598737
15122604230
15122610211
15122616498
15122622907
15122628888
15122634930
15122640912
15122646039
15122652142
15122657147
15122662885
15122668072
15122676984
15122680829
15122687421
15122692609
15122699994
15122703839
15122711590
15122715253
15122723981
15122727643
15122737103
15122743573
15122750348
15122754254
15122761883
15122768902
15122774762
15122779705
15122785687
15122791180
15122797284
15122803143
15122807782
15122815045
15122819928
15122826092
15122832379
15122839581
15122844464
15122851605
15122859295
15122867535
15122873883
15122879925
15122885174
15122893841
15122901470
15122908611
15122915753
15122923809
15122930950
15122933086
15122943157
15122951641
15122957561
15122965191
15122969402
15122978496
15122985454
15122993511
15123005413
15123013714
15123024761
15123032696
15123039776
15123045330
15123052715
15123059795
15123066387
15123073162
15123079204
15123084758
15123093242
15123098247
15123108196
15123115947
15123122783
15123129558
15123137065
15123144512
15123151958
15123157634
15123162883
15123169170
15123174358
15123180400
15123185588
15123191936
15123197124
15123204204
15123209819
15123216899
15123222759
15123228862
15123235210
15123240276
15123245952
15123253398
15123261028
15123265910
15123271587
15123278850
15123282634
15123290385
15123296855
15123303630
15123310771
15123317241
15123323100
15123330363
15123335795
15123341044
15123345134
15123354533
15123358989
15123369792
15123374125
15123384013
15123388285
15123396403
15123402201
15123409709
15123416728
15123424479
15123431193
15123436381
15123442118
15123449137
15123453227
15123461955
15123468547
15123475932
15123482218
15123490092
15123496928
15123505534
15123512492
15123520731
15123527750
15123536234
15123543070
15123551859
15123558329
15123565714
15123572123
15123580118
15123586161
15123595621
15123601237
15123609171
15123617167
15123624491
15123630594
15123640848
15123647257
15123657694
15123664164
15123672037
15123681009
15123688761
15123697428
15123704935
15123712809
15123720194
15123727213
15123733011
15123740030
15123746988
15123751993
15123756876
15123760904
15123764200
15123772745
15123778909
15123786539
15123793375
15123799234
15123802469
15123808511
15123813638
15123819193
15123823831
15123829569
15123834695
15123840250
15123845438
15123851236
15123860574
15123866128
15123871316
15123876993
15123882242
15123887857
15123894754
15123898843
15123904397
15123909097
15123914041
15123919961
15123924112
15123928628
15123933023
15123939554
15123944009
15123951577
15123956399
15123962869
15123967752
15123973367
15123978677
15123980752
15123989114
15123995828
15124002114
15124007363
15124011819
15124017923
15124022683
15124026040
15124035623
15124040689
15124052957
15124057962
15124069192
15124076638
15124082498
15124088845
15124097085
15124103616
15124115151
15124122109
15124129556
15124135598
15124144448
15124153359
15124159524
15124165383
15124176064
15124182473
15124191506
15124198098
15124206277
15124214028
15124216653
15124228005
15124233254
15124244484
15124252968
15124259499
15124267373
15124275185
15124279824
15124288613
15124295693
15124306008
15124314003
15124323769
15124332924
15124342140
15124351113
15124360329
15124369179
15124378334
15124386696
15124394692
15124402870
15124412331
15124418739
15124427406
15124435280
15124442177
15124448891
15124455971
15124464943
15124472877
15124481911
15124489296
15124497719
15124507057
15124514747
15124522499
15124533241
15124538978
15124547462
15124558204
15124565223
15124570411
15124579200
15124584205
15124592811
15124599586
15124606666
15124615028
15124620033
15124629127
15124634376
15124642616
15124650489
15124656959
15124665748
15124673561
15124679542
15124689369
15124696388
15124703285
15124711341
15124718787
15124724586
15124733375
15124739356
15124748878
15124754676
15124762733
15124770911
15124778602
15124784461
15124793799
15124799781
15124807838
15124815467
15124823279
15124831519
15124838782
15124844520
15124853431
15124861670
15124868934
15124874854
15124883277
15124888770
15124896704
15124904273
15124914344
15124920325
15124928870
15124936377
15124942115
15124949805
15124958289
15124964209
15124972937
15124980506
15124988135
15124995581
15125001990
15125009741
15125016333
15125024085
15125032874
15125040747
15125048560
15125056311
15125062414
15125070532
15125077734
15125086157
15125097204
15125104285
15125112707
15125121802
15125127661
15125135840
15125143896
15125151342
15125158850
15125166479
15125172644
15125178564
15125187780
15125193701
15125200170
15125206091
15125215795
15125220251
15125229467
15125236669
15125243872
15125248205
15125257604
15125265661
15125273107
15125279943
15125287328
15125294775
15125302038
15125308386
15125317236
15125326574
15125332433
15125341161
15125349523
15125356115
15125364416
15125372228
15125378332
15125388830
15125395055
15125402929
15125407140
15125414586
15125418432
15125425390
15125428808
15125436620
15125440160
15125446264
15125451696
15125457860
15125461217
15125469274
15125474950
15125481603
15125487828
15125492650
15125498876
15125504247
15125509923
15125514562
15125521398
15125526342
15125532445
15125538060
15125543126
15125549535
15125554601
15125560399
15125562840
15125571752
15125577489
15125583104
15125588353
15125594640
15125599584
15125605870
15125612035
15125618749
15125623631
15125629918
15125633214
15125640477
15125644078
15125651646
15125656773
15125664159
15125667943
15125674412
15125679722
15125685765
15125691014
15125699864
15125708531
15125716649
15125724400
15125733555
15125741917
15125751256
15125758702
15125766514
15125772862
15125785740
15125793248
15125801121
15125807591
15125816380
15125822789
15125829136
15125835057
15125843479
15125848240
15125858677
15125863316
15125873753
15125878086
15125887669
15125895420
15125902439
15125910862
15125918064
15125924961
15125930393
15125938877
15125944370
15125953953
15125959751
15125968479
15125976536
15125982761
15125991123
15125998264
15126004307
15126013035
15126019748
15126027256
15126034031
15126043064
15126049595
15126057468
15126064060
15126077121
15126083286
15126095859
15126105625
15126115085
15126124851
15126134006
15126143466
15126152316
15126159580
15126167331
15126173862
15126180576
15126186984
15126196750
15126204868
15126213290
15126220554
15126228305
15126235141
15126242404
15126249789
15126256869
15126264011
15126271335
15126279391
15126285800
15126293246
15126300693
15126307223
15126315036
15126321261
15126330172
15126334628
15126345248
15126353488
15126362765
15126368380
15126376864
15126382968
15126391757
15126400546
15126408053
15126415377
15126422030
15126432406
15126442599
15126449435
15126458773
15126467562
15126475497
15126481539
15126490206
15126496249
15126506136
15126510470
15126520724
15126527560
15126534335
15126540011
15126546725
15126555575
15126563021
15126568575
15126575533
15126583895
15126589998
15126597506
15126603792
15126612948
15126620150
15126627169
15126633761
15126640658
15126647616
15126654512
15126663912
15126674593
15126684175
15126692720
15126702059
15126712679
15126720186
15126727571
15126734529
15126740267
15126748384
15126752474
15126761812
15126769441
15126776216
15126783785
15126791292
15126798433
15126805574
15126812532
15126819795
15126826692
15126833833
15126842989
15126850984
15126858125
15126863985
15126871980
15126880037
15126887178
15126895601
15126902925
15126910921
15126916414
15126925020
15126930513
15126939119
15126946870
15126955720
15126961946
15126968965
15126975190
15126985505
15126993257
15127001435
15127007722
15127014375
15127021882
15127025910
15127032441
15127037507
15127042634
15127048249
15127053803
15127057282
15127064973
15127068696
15127074983
15127078523
15127084382
15127090180
15127094270
15127102204
15127108979
15127115998
15127121064
15127127717
15127134675
15127140351
15127145844
15127152741
15127158723
15127164033
15127169648
15127173859
15127180451
15127185578
15127191620
15127196015
15127201264
15127206025
15127210785
15127217988
15127222138
15127227814
15127231110
15127236786
15127239777
15127246430
15127249543
15127258149
15127266205
15127274018
15127282990
15127289154
15127297821
15127304474
15127315522
15127320648
15127329071
15127336151
15127344513
15127349274
15127359345
15127364105
15127376251
15127381195
15127389984
15127394379
15127403778
15127408722
15127417999
15127424957
15127432770
15127439972
15127445831
15127451935
15127459076
15127465851
15127471832
15127479706
15127488373
15127494049
15127500091
15127508697
15127516571
15127524139
15127531830
15127538055
15127546234
15127551910
15127560455
15127565948
15127573944
15127579437
15127591766
15127598602
15127606353
15127612701
15127620941
15127627166
15127634674
15127640960
15127651824
15127656951
15127666351
15127670867
15127681182
15127685943
15127696441
15127704559
15127712615
15127719451
15127726958
15127733245
15127741302
15127750274
15127760161
15127768951
15127776885
15127787810
15127793426
15127805388
15127814483
15127823089
15127831084
15127838836
15127847747
15127855132
15127862578
15127870024
15127876982
15127884002
15127891265
15127897490
15127904387
15127911956
15127917449
15127925078
15127930571
15127939421
15127943816
15127952422
15127961150
15127967192
15127975066
15127980437
15127989775
15127997221
15128004057
15128011992
15128018095
15128025786
15128033110
15128038969
15128048247
15128053007
15128061613
15128068205
15128075224
15128083586
15128089750
15128098234
15128105986
15128113981
15128121611
15128127958
15128136076
15128142912
15128150053
15128160368
15128166777
15128175077
15128183622
15128191740
15128198454
15128205168
15128213957
15128222257
15128229643
15128236234
15128242399
15128249906
15128256376
15128265592
15128270719
15128281217
15128288969
15128296171
15128302702
15128310453
15128315275
15128324979
15128329801
15128340726
15128349027
15128357572
15128364225
15128372159
15128378812
15128384977
15128398466
15128406034
15128413114
15128423124
15128432340
15128441983
15128450223
15128458402
15128467008
15128475125
15128485013
15128495816
15128503507
15128514554
15128524503
15128531217
15128537686
15128547879
15128555814
15128563199
15128570279
15128576322
15128581387
15128585904
15128591336
15128595731
15128602689
15128607694
15128613065
15128617947
15128624539
15128629727
15128634793
15128639859
15128646146
15128649869
15128658230
15128662137
15128670865
15128674466
15128681119
15128685086
15128694913
15128700162
15128706753
15128712369
15128717007
15128723416
15128727810
15128731411
15128739468
15128745877
15128752591
15128756192
15128764126
15128769314
15128774014
15128780239
15128786221
15128791043
15128796902
15128803189
15128807888
15128813992
15128818753
15128822354
15128830227
15128835415
15128841885
15128849026
15128857144
15128864224
15128872036
15128879604
15128887905
15128898647
15128906277
15128915127
15128923794
15128931667
15128939907
15128946499
15128954983
15128964199
15128972622
15128981899
15128988064
15128993068
15129003994
15129009548
15129018825
15129027004
15129034816
15129042202
15129049892
15129056545
15129064357
15129072780
15129080410
15129088039
15129096767
15129104702
15129112453
15129119533
15129127223
15129134426
15129143031
15129153041
15129163356
15129172389
15129180446
15129188319
15129195094
15129205653
15129212978
15129223109
15129227809
15129237208
15129243556
15129251186
15129257716
15129266261
15129273036
15129284633
15129289515
15129298732
15129306056
15129313807
15129321254
15129329738
15129334987
15129345485
15129350367
15129360499
15129368190
15129375941
15129383631
15129389186
15129396083
15129407008
15129413478
15129421168
15129428492
15129436061
15129440516
15129451014
15129455958
15129467555
15129476038
15129483790
15129492823
15129498805
15129504054
15129514613
15129523157
15129531031
15129537928
15129545862
15129553919
15129561854
15129567652
15129575098
15129585291
15129591761
15129600916
15129606714
15129614405
15129622095
15129628504
15129636316
15129645838
15129653040
15129660975
15129669031
15129677210
15129685816
15129693811
15129700403
15129705347
15129717676
15129725977
15129734155
15129741785
15129750269
15129753137
15129766260
15129775659
15129783899
15129790613
15129799341
15129805994
15129815454
15129823389
15129832422
15129840539
15129849267
15129857019
15129863672
15129870813
15129879663
15129887292
15129895715
15129902917
15129910669
15129919885
15129928064
15129935022
15129944787
15129954919
15129963403
15129970483
15129980981
15129988427
15129998559
15130005944
15130016748
15130023461
15130032922
15130041345
15130048364
15130056725
15130063989
15130071191
15130080773
15130087609
15130096398
15130103356
15130112634
15130119836
15130127709
15130134850
15130141381
15130147790
15130157494
15130162255
15130174157
15130182335
15130189477
15130196984
15130204247
15130210656
15130217797
15130226159
15130234520
15130241906
15130247399
15130255822
15130263817
15130271080
15130277916
15130286156
15130289635
15130298851
15130304100
15130310631
15130314415
15130322106
15130325402
15130333214
15130338890
15130343651
15130347374
15130354576
15130358482
15130366112
15130369957
15130376061
15130380211
15130386742
15130391624
15130397301
15130400536
15130407616
15130410912
15130419029
15130422508
15130429039
15130434227
15130439049
15130443870
15130450645
15130456383
15130462303
15130467735
15130474205
15130479027
15130484642
15130489952
15130495933
15130500267
15130508323
15130512779
15130518882
15130524009
15130527794
15130535057
15130541160
15130545494
15130550682
15130558189
15130565635
15130573021
15130581260
15130589134
15130595481
15130605674
15130613182
15130625450
15130632713
15130641685
15130651573
15130659568
15130668662
15130676841
15130686057
15130695823
15130702476
15130708579
15130719443
15130724326
15130734641
15130744163
15130750388
15130757529
15130766929
15130774314
15130782798
15130789756
15130797568
15130807639
15130814597
15130821372
15130831748
15130838462
15130848044
15130855246
15130860129
15130871115
15130876181
15130887229
15130892356
15130901694
15130909384
15130915793
15130922568
15130930197
15130938620
15130944846
15130953757
15130961081
15130967795
15130976645
15130985129
15130992392
15131000998
15131007651
15131016196
15131021384
15131030661
15131038046
15131048300
15131053549
15131063498
15131071188
15131079062
15131085592
15131093710
15131102865
15131109457
15131118002
15131123068
15131133566
15131141623
15131148092
15131155539
15131165853
15131173239
15131181295
15131188497
15131196432
15131202841
15131211996
15131220358
15131228048
15131236410
15131244100
15131251119
15131261556
15131270406
15131280355
15131292928
15131298605
15131310934
15131316671
15131330099
15131336080
15131351583
15131358358
15131371358
15131382650
15131398702
15131410726
15131419698
15131426107
15131439046
15131445333
15131458699
15131470174
15131480184
15131489583
15131498250
15131507649
15131519979
15131531270
15131542623
15131553121
15131562581
15131571797
15131581990
15131590596
15131600179
15131610432
15131620381
15131629964
15131639058
15131648396
15131657551
15131666646
15131676777
15131681965
15131694111
15131699727
15131713093
15131722676
15131731892
15131740498
15131750080
15131761006
15131768391
15131778340
15131788166
15131799824
15131808003
15131820332
15131828449
15131840534
15131850239
15131861530
15131870380
15131882465
15131892048
15131902668
15131912434
15131922016
15131934345
15131945759
15131955341
15131964374
15131976764
15131987873
15131997638
15132009052
15132017963
15132029804
15132042438
15132053302
15132061969
15132074298
15132082843
15132094623
15132103351
15132114887
15132127460
15132135517
15132146808
15132158710
15132169818
15132179828
15132188617
15132200397
15132208942
15132221637
15132231341
15132241168
15132255694
15132264850
15132271747
15132278399
15132285602
15132292926
15132303180
15132310809
15132319903
15132326739
15132334674
15132341510
15132349261
15132355914
15132363787
15132372088
15132379901
15132388262
15132395892
15132403155
15132410784
15132416033
15132430865
15132440447
15132449236
15132456072
15132465777
15132475420
15132483111
15132493121
15132501299
15132508440
15132517474
15132526812
15132535052
15132541704
15132549761
15132559527
15132566179
15132575579
15132581926
15132590288
15132597551
15132607256
15132616106
15132624224
15132633135
15132643328
15132654558
15132662188
15132674578
15132685991
15132695940
15132708025
15132717790
15132727007
15132734575
15132748308
15132757707
15132764482
15132773027
15132777788
15132786394
15132792436
15132798723
15132805925
15132811967
15132820024
15132825090
15132832048
15132837175
15132844743
15132851823
15132857683
15132864396
15132870500
15132877885
15132883012
15132890275
15132898576
15132904863
15132911454
15132918962
15132924211
15132930009
15132935929
15132941240
15132950822
15132957780
15132962236
15132969865
15132974321
15132982011
15132987016
15132995500
15132999345
15133007279
15133014237
15133020463
15133025468
15133032182
15133040543
15133045854
15133052567
15133058427
15133067094
15133071305
15133079911
15133088456
15133095109
15133102067
15133110734
15133120988
15133126908
15133139481
15133148270
15133156815
15133163956
15133171586
15133178361
15133186234
15133190384
15133199540
15133206070
15133213395
15133220780
15133227311
15133235062
15133238663
15133248490
15133254410
15133261856
15133269120
15133276261
15133283646
15133291947
15133298233
15133308365
15133315262
15133322281
15133330032
15133336319
15133345474
15133351395
15133359696
15133368118
15133376053
15133382278
15133390091
15133398148
15133403641
15133413284
15133420242
15133428177
15133435562
15133443680
15133453506
15133460708
15133468033
15133476516
15133481460
15133490494
15133497268
15133506851
15133513931
15133519241
15133527359
15133535720
15133542923
15133550064
15133559402
15133564224
15133574844
15133583572
15133589370
15133599441
15133604202
15133614944
15133622451
15133628372
15133637161
15133643203
15133652602
15133658401
15133668411
15133675307
15133685195
15133691970
15133700393
15133706802
15133714797
15133724197
15133732253
15133739699
15133746352
15133754531
15133762893
15133770095
15133775710
15133789809
15133797072
15133806411
15133814284
15133823989
15133832473
15133842116
15133850783
15133857558
15133867263
15133874404
15133881789
15133890517
15133898696
15133906081
15133913893
15133919875
15133926161
15133932082
15133938674
15133943739
15133950270
15133955458
15133962111
15133966872
15133973219
15133976942
15133983107
15133987685
15133993727
15133997816
15134004652
15134010573
15134017653
15134023634
15134028578
15134033888
15134039381
15134045485
15134052504
15134057814
15134064711
15134070814
15134078993
15134085219
15134092848
15134099196
15134104323
15134109510
15134117811
15134124891
15134132215
15134137770
15134144117
15134148817
15134156568
15134161024
15134168043
15134173841
15134179823
15134184522
15134188063
15134196424
15134200208
15134207960
15134214491
15134219984
15134226576
15134236158
15134243238
15134252027
15134257093
15134269056
15134276991
15134285719
15134292860
15134301221
15134308729
15134314649
15134323255
15134331495
15134338453
15134346021
15134352369
15134361158
15134368970
15134376783
15134386243
15134393934
15134400281
15134409436
15134417188
15134425061
15134434217
15134440503
15134449109
15134455762
15134465406
15134470899
15134482801
15134487866
15134498853
15134507520
15134517346
15134527173
15134536084
15134542859
15134552319
15134558667
15134567395
15134575330
15134581677
15134589856
15134596875
15134604932
15134609631
15134619397
15134622143
15134634167
15134639233
15134649670
15134654370
15134663220
15134671094
15134679272
15134687817
15134694104
15134702954
15134711682
15134720410
15134724987
15134735730
15134740612
15134750927
15134759899
15134766247
15134774243
15134780346
15134789807
15134799145
15134807568
15134815502
15134822399
15134830944
15134837902
15134848095
15134857372
15134865917
15134873241
15134879772
15134889538
15134897716
15134905895
15134912426
15134920605
15134928173
15134937267
15134944958
15134951793
15134959240
15134965648
15134975475
15134982799
15134992260
15135000377
15135009105
15135015514
15135023754
15135033886
15135041515
15135050365
15135058177
15135064464
15135073558
15135082653
15135093456
15135098216
15135109813
15135115123
15135125743
15135129039
15135142711
15135149303
15135155345
15135164073
15135171397
15135178966
15135185008
15135192760
15135204295
15135212657
15135222850
15135230296
15135249339
15135260692
15135272960
15135280101
15135289012
15135296763
15135303355
15135312327
15135319407
15135329661
15135335704
15135345958
15135354197
15135362742
15135368968
15135376536
15135386485
15135393443
15135401255
15135407420
15135416331
15135423045
15135430247
15135436839
15135447154
15135453867
15135461497
15135467966
15135476694
15135483164
15135493601
15135501353
15135510996
15135518748
15135527537
15135533762
15135543101
15135550974
15135557871
15135562205
15135567515
15135572519
15135576365
15135581919
15135586741
15135591684
15135596018
15135601572
15135605906
15135610361
15135615305
15135619516
15135626047
15135631296
15135638315
15135643137
15135649118
15135653879
15135659861
15135665415
15135670847
15135678781
15135682993
15135687815
15135694101
15135699472
15135705637
15135711130
15135716074
15135720957
15135725412
15135730417
15135738046
15135741831
15135747446
15135752023
15135757578
15135761911
15135765878
15135770334
15135776498
15135779794
15135785410
15135789560
15135794931
15135799203
15135803781
15135808176
15135815744
15135822702
15135830636
15135842782
15135852304
15135863595
15135873056
15135884530
15135890634
15135902597
15135911264
15135922189
15135930856
15135940011
15135945321
15135954660
15135962228
15135968392
15135976266
15135983651
15135989999
15135998178
15136008004
15136016610
15136026193
15136034188
15136040536
15136056161
15136065011
15136072396
15136082833
15136088387
15136097787
15136105111
15136112740
15136120309
15136129159
15136136361
15136146248
15136152535
15136160714
15136167550
15136175301
15136183846
15136190316
15136198739
15136204049
15136213814
15136219612
15136229134
15136234200
15136243538
15136250313
15136258919
15136266609
15136275093
15136281380
15136290596
15136297310
15136305550
15136314034
15136320931
15136327339
15136336372
15136343453
15136351753
15136358101
15136365303
15136373116
15136380318
15136388679
15136395637
15136405037
15136411384
15136420479
15136427315
15136435921
15136442207
15136450264
15136458992
15136466926
15136475593
15136483528
15136492134
15136498176
15136507759
15136513069
15136522590
15136529914
15136540351
15136547737
15136554267
15136563606
15136571479
15136578071
15136587470
15136593940
15136602729
15136611579
15136619758
15136626289
15136634712
15136643684
15136648566
15136657600
15136665351
15136675849
15136686652
15136694526
15136701606
15136713203
15136720649
15136731452
15136738410
15136749701
15136759040
15136766730
15136775092
15136781318
15136790046
15136795173
15136806525
15136811774
15136821906
15136830634
15136837958
15136845221
15136853278
15136860236
15136869208
15136876288
15136885138
15136893683
15136900824
15136909918
15136915045
15136925238
15136930365
15136940619
15136948065
15136956671
15136963934
15136972418
15136979254
15136987555
15136996039
15137004401
15137011359
15137020758
15137029425
15137035650
15137044195
15137052374
15137059393
15137066717
15137075262
15137084601
15137092047
15137098822
15137108953
15137115362
15137123785
15137133245
15137141607
15137150152
15137157598
15137166326
15137171697
15137180914
15137188421
15137197759
15137205023
15137213751
15137221685
15137230779
15137237371
15137246099
15137253179
15137262090
15137270574
15137277715
15137284795
15137294317
15137300786
15137308050
15137313970
15137319280
15137324773
15137331121
15137336675
15137343938
15137349248
15137354802
15137361333
15137365850
15137373662
15137380498
15137385076
15137393804
15137400090
15137406194
15137411565
15137417058
15137421697
15137427251
15137432561
15137439031
15137445623
15137449895
15137455876
15137460271
15137465642
15137475469
15137479680
15137487615
15137491948
15137500188
15137503728
15137511479
15137517278
15137524236
15137529790
15137535466
15137539739
15137547185
15137549809
15137556828
15137561406
15137566289
15137570744
15137576421
15137581975
15137586308
15137592107
15137598027
15137601323
15137611577
15137616276
15137625310
15137632268
15137641179
15137648076
15137655400
15137661320
15137669804
15137675908
15137685002
15137693791
15137701420
15137707585
15137716008
15137724064
15137729618
15137737309
15137745610
15137752323
15137757450
15137768925
15137774113
15137785099
15137790409
15137801457
15137808415
15137816471
15137824284
15137833134
15137839359
15137848087
15137856510
15137862614
15137871159
15137877628
15137886845
15137895389
15137904362
15137912418
15137918949
15137926700
15137936527
15137941593
15137951603
15137958988
15137968021
15137974796
15137983402
15137992984
15137999454
15138007694
15138014957
15138023685
15138033206
15138039737
15138048770
15138055728
15138062869
15138072452
15138079776
15138087894
15138094425
15138103885
15138110416
15138119632
15138128421
15138136539
15138143069
15138151920
15138158755
15138169070
15138175662
15138184085
15138193240
15138198428
15138208255
15138215579
15138223697
15138230044
15138241580
15138249270
15138257083
15138267398
15138274966
15138284488
15138292422
15138301638
15138311099
15138318850
15138329776
15138338381
15138346255
15138353274
15138358279
15138371829
15138380801
15138389285
15138397463
15138405459
15138412722
15138421328
15138429079
15138435427
15138445071
15138454287
15138459475
15138468630
15138475832
15138485415
15138493960
15138501101
15138507754
15138519839
15138524843
15138537844
15138545351
15138552736
15138560244
15138568544
15138575319
15138584658
15138591738
15138601625
15138609194
15138616945
15138623354
15138633730
15138640932
15138649965
15138656435
15138665712
15138672426
15138680544
15138689455
15138696657
15138704653
15138711977
15138720949
15138729494
15138736940
15138746095
15138753908
15138759523
15138766969
15138775758
15138784120
15138790285
15138797426
15138806581
15138813234
15138821901
15138831788
15138839845
15138847169
15138855348
15138862611
15138871888
15138879396
15138886171
15138895570
15138902589
15138909608
15138917421
15138925782
15138935060
15138942079
15138949708
15138958253
15138967286
15138973756
15138981690
15138990663
15138999207
15139005921
15139010865
15139022096
15139030396
15139038819
15139045960
15139054749
15139063294
15139070679
15139080140
15139089661
15139094910
15139102723
15139109498
15139114136
15139121216
15139126282
15139130555
15139137635
15139143372
15139148438
15139153321
15139158326
15139162659
15139167664
15139173157
15139177796
15139183106
15139189454
15139194214
15139198548
15139204895
15139209900
15139216004
15139220948
15139227417
15139233399
15139238892
15139244324
15139249878
15139256653
15139262146
15139266785
15139273804
15139280640
15139286621
15139291565
15139297180
15139301819
15139307495
15139313294
15139319885
15139324280
15139331177
15139336060
15139342163
15139346558
15139350159
15139358398
15139361755
15139371033
15139377747
15139384766
15139394165
15139400696
15139406921
15139415893
15139424133
15139433594
15139440552
15139449890
15139456299
15139465515
15139472534
15139480652
15139488220
15139495544
15139504272
15139512024
15139519653
15139526367
15139536865
15139543640
15139552429
15139558959
15139568969
15139575927
15139585143
15139592223
15139601135
15139607726
15139614806
15139623901
15139631347
15139639343
15139648498
15139654662
15139663634
15139671813
15139678222
15139687133
15139696166
15139702392
15139711181
15139719909
15139726928
15139734313
15139742858
15139751220
15139761168
15139768493
15139776915
15139787413
15139795714
15139803649
15139812316
15139822875
15139830382
15139840575
15139850707
15139861083
15139871214
15139879088
15139887328
15139893981
15139902586
15139911864
15139920958
15139927428
15139936827
15139943236
15139952452
15139961180
15139963988
15139975523
15139984373
15139993284
15139998595
15140009459
15140014281
15140025206
15140032469
15140043577
15140048948
15140059507
15140064695
15140077208
15140082945
15140094786
15140102171
15140111998
15140121092
15140130735
15140135984
15140146543
15140152281
15140162046
15140169920
15140179197
15140185728
15140195127
15140201963
15140212705
15140219236
15140227964
15140236570
15140244016
15140250791
15140260862
15140269224
15140277708
15140286863
15140294919
15140301572
15140309568
15140317502
15140322324
15140333371
15140337949
15140347837
15140352536
15140362607
15140370542
15140377378
15140383970
15140393796
15140400388
15140408078
15140415342
15140423337
15140430234
15140438962
15140445066
15140455258
15140461118
15140470395
15140476193
15140483945
15140492246
15140499570
15140507443
15140515256
15140523129
15140530820
15140538144
15140543027
15140555478
15140558408
15140569699
15140579648
15140586789
15140591794
15140603512
15140608761
15140620602
15140630490
15140639767
15140649655
15140659054
15140668698
15140676083
15140685849
15140694638
15140702511
15140711972
15140720578
15140727230
15140735592
15140744198
15140749325
15140760067
15140767513
15140776302
15140783383
15140792355
15140800045
15140808529
15140814816
15140824581
15140831173
15140839535
15140848263
15140857113
15140863522
15140871456
15140878780
15140883602
15140888546
15140894222
15140898495
15140905636
15140911312
15140915951
15140921505
15140927120
15140931209
15140936764
15140941280
15140946224
15140953975
15140960262
15140965023
15140971553
15140976497
15140981563
15140988521
15140991756
15141000911
15141004146
15141011104
15141016170
15141023006
15141026851
15141033321
15141039058
15141044368
15141049678
15141055904
15141061641
15141067745
15141073726
15141079341
15141085750
15141091365
15141097591
15141103023
15141108577
15141114314
15141120601
15141127071
15141132381
15141138362
15141145015
15141149837
15141156184
15141161006
15141167415
15141171199
15141180354
15141188960
15141198298
15141206111
15141216853
15141222468
15141232905
15141240046
15141248042
15141254573
15141265437
15141271846
15141279353
15141288508
15141295832
15141304377
15141310359
15141320979
15141326045
15141335810
15141344599
15141353694
15141361567
15141369990
15141380488
15141387629
15141398982
15141409419
15141417536
15141426814
15141436091
15141443720
15141450373
15141460749
15141467646
15141475642
15141484064
15141493220
15141499628
15141508722
15141515375
15141524408
15141530817
15141535944
15141548212
15141553156
15141564631
15141569941
15141583735
15141589167
15141600214
15141607355
15141616632
15141623773
15141631891
15141639154
15141647638
15141653620
15141661554
15141670709
15141679804
15141686212
15141696283
15141702570
15141710443
15141716425
15141725031
15141731622
15141741144
15141749261
15141758112
15141765924
15141772943
15141780755
15141787652
15141794671
15141801568
15141812189
15141817560
15141825860
15141832940
15141840631
15141847345
15141855951
15141863214
15141874994
15141882135
15141889337
15141898126
15141905511
15141911492
15141919488
15141925897
15141936822
15141943414
15141950982
15141956902
15141965997
15141972466
15141981744
15141987664
15141992730
15142004083
15142009271
15142019769
15142028191
15142034600
15142039056
15142049798
15142057732
15142064324
15142071587
15142080865
15142087884
15142096062
15142103142
15142111199
15142118584
15142126885
15142134026
15142142754
15142149346
15142157219
15142168084
15142177788
15142184868
15142194512
15142202385
15142211479
15142219841
15142227410
15142235832
15142244988
15142252129
15142261162
15142266228
15142277397
15142285088
15142294121
15142301445
15142308891
15142316216
15142326408
15142333733
15142342766
15142349846
15142357719
15142365288
15142374016
15142381401
15142390312
15142397209
15142406364
15142413688
15142421135
15142431022
15142439262
15142447502
15142456962
15142463310
15142472953
15142479972
15142488456
15142495170
15142504692
15142511344
15142519218
15142527702
15142535453
15142544181
15142552238
15142558952
15142568351
15142575126
15142583854
15142590934
15142599845
15142606864
15142612113
15142623405
15142628287
15142639030
15142644340
15142653251
15142656852
15142663627
15142668632
15142675407
15142680533
15142686210
15142690604
15142697440
15142703483
15142705863
15142714713
15142719840
15142724296
15142729728
15142736258
15142739921
15142747855
15142752738
15142758414
15142765189
15142769706
15142774283
15142781302
15142786002
15142791434
15142797354
15142800894
15142808768
15142812735
15142819754
15142824698
15142829581
15142836844
15142842154
15142848441
15142853140
15142857901
15142865103
15142869315
15142875357
15142881583
15142886343
15142892996
15142900076
15142905203
15142913321
15142920157
15142925467
15142932730
15142936697
15142946829
15142951834
15142964346
15142969351
15142979910
15142985220
15142995169
15143002615
15143011770
15143019034
15143026297
15143033011
15143041739
15143050222
15143058401
15143064199
15143074820
15143081961
15143091116
15143099356
15143106192
15143114797
15143124319
15143131033
15143135916
15143148062
15143152639
15143162832
15143169424
15143177908
15143184560
15143192678
15143199880
15143209646
15143217214
15143225210
15143234060
15143240530
15143248952
15143254995
15143262807
15143273488
15143280446
15143288320
15143294179
15143303213
15143309438
15143317678
15143323659
15143328908
15143341665
15143349904
15143356191
15143360769
15143371022
15143378774
15143385793
15143392690
15143403127
15143408315
15143416799
15143423757
15143432607
15143439199
15143447499
15143454152
15143463979
15143471181
15143479909
15143486134
15143494740
15143500722
15143508656
15143516713
15143524037
15143532277
15143538869
15143546803
15143553273
15143561146
15143565846
15143576344
15143581349
15143593556
15143598988
15143608815
15143616200
15143623219
15143629811
15143638661
15143645619
15143654713
15143661732
15143669545
15143675770
15143684254
15143692921
15143704457
15143712574
15143724293
15143732289
15143742420
15143748097
15143760365
15143771656
15143778980
15143788502
15143797230
15143805897
15143812916
15143817677
15143829639
15143837635
15143844776
15143850330
15143861561
15143868214
15143877125
15143882252
15143893299
15143901539
15143908252
15143918323
15143925281
15143933887
15143940540
15143947864
15143957569
15143966358
15143974903
15143980152
15143992481
15143997608
15144008106
15144016345
15144022937
15144030689
15144039478
15144046802
15144056323
15144063709
15144071704
15144077991
15144086292
15144094836
15144103931
15144110278
15144120044
15144126514
15144135486
15144142078
15144149829
15144158496
15144165576
15144173999
15144181079
15144191455
15144197741
15144206286
15144215381
15144223010
15144231494
15144239123
15144246142
15144255664
15144262133
15144269458
15144277941
15144285693
15144292773
15144302600
15144309436
15144318591
15144327807
15144334582
15144344225
15144350878
15144359973
15144366442
15144375964
15144382861
15144392138
15144398669
15144405810
15144414965
15144420641
15144425524
15144431750
15144437548
15144441943
15144449267
15144453905
15144459521
15144465197
15144470751
15144476977
15144480639
15144487780
15144492052
15144498217
15144503466
15144510851
15144518053
15144524645
15144532396
15144539049
15144544481
15144553270
15144558397
15144566149
15144570971
15144576891
15144583055
15144587999
15144592150
15144599413
15144604174
15144610399
15144614366
15144619860
15144625048
15144630907
15144635668
15144643297
15144649400
15144655016
15144659471
15144665331
15144670885
15144676439
15144680711
15144686449
15144694872
15144698228
15144704454
15144708910
15144714647
15144721300
15144727708
15144736375
15144745653
15144752916
15144761644
15144768785
15144777696
15144785142
15144794786
15144801988
15144810838
15144817979
15144826402
15144833421
15144842576
15144849656
15144856858
15144862779
15144873521
15144880601
15144889451
15144896653
15144904954
15144912461
15144920762
15144930345
15144938767
15144948228
15144956101
15144963365
15144970750
15144980210
15144987656
15144994492
15145005418
15145012498
15145020066
15145029282
15145038621
15145046555
15145054856
15145064133
15145074021
15145081467
15145086899
15145098435
15145103501
15145116379
15145125107
15145132248
15145143540
15145150254
15145159043
15145167160
15145174485
15145182663
15145190415
15145200302
15145207443
15145215683
15145222153
15145231491
15145237900
15145246811
15145253586
15145263840
15145273605
15145283127
15145292831
15145301193
15145307846
15145317734
15145327316
15145336716
15145343185
15145351547
15145360397
15145368271
15145377731
15145384933
15145392746
15145399399
15145409103
15145415451
15145425216
15145433761
15145441635
15145448959
15145457382
15145466232
15145475021
15145482040
15145491195
15145500473
15145506088
15145516097
15145523422
15145531295
15145537826
15145548507
15145555099
15145565475
15145571945
15145581283
15145588058
15145595809
15145604476
15145609725
15145619674
15145630050
15145636764
15145644088
15145652572
15145660995
15145670333
15145677169
15145685714
15145695174
15145702865
15145710128
15145718490
15145725020
15145734298
15145742720
15145745711
15145757613
15145766158
15145774520
15145781172
15145789473
15145796614
15145804732
15145812300
15145821822
15145828841
15145836348
15145845686
15145854231
15145860945
15145871687
15145878401
15145886763
15145895186
15145903426
15145909773
15145918562
15145925093
15145934859
15145941695
15145949690
15145957869
15145962935
15145974776
15145979963
15145989546
15145996931
15146006392
15146014204
15146023787
15146031538
15146040449
15146047834
15146057417
15146063887
15146074079
15146080915
15146090376
15146096907
15146106428
15146113996
15146125227
15146132185
15146141889
15146150190
15146161543
15146168623
15146179914
15146186994
15146199323
15146205976
15146215375
15146221784
15146227094
15146237470
15146241865
15146249433
15146254255
15146260908
15146266035
15146271955
15146277692
15146282026
15146287824
15146293378
15146298200
15146305158
15146311200
15146316999
15146322065
15146325361
15146333417
15146336896
15146345807
15146349469
15146355939
15146361371
15146366559
15146372419
15146377607
15146382062
15146387555
15146392560
15146399030
15146403546
15146409101
15146415448
15146420941
15146426862
15146430829
15146438519
15146442059
15146449506
15146453473
15146460553
15146465497
15146470197
15146477033
15146481549
15146487408
15146492047
15146498578
15146504437
15146508893
15146512311
15146520306
15146526593
15146532086
15146539410
15146548932
15146556622
15146564252
15146570721
15146579632
15146586163
15146595807
15146604413
15146611676
15146620465
15146627423
15146636029
15146641339
15146652203
15146657513
15146668560
15146676678
15146684979
15146692730
15146698956
15146708172
15146715130
15146721661
15146732281
15146739178
15146747296
15146755779
15146762188
15146771160
15146776043
15146786663
15146795025
15146801800
15146809368
15146818951
15146826458
15146834515
15146841411
15146851055
15146858379
15146870952
15146878399
15146887615
15146896404
15146904705
15146914043
15146922039
15146931194
15146940349
15146949321
15146954326
15146964458
15146969829
15146981182
15146988445
15146997234
15147004863
15147015788
15147023479
15147030925
15147037456
15147046123
15147055278
15147062480
15147071635
15147079875
15147088481
15147097148
15147103557
15147108684
15147120891
15147126018
15147136699
15147141887
15147152873
15147160625
15147168498
15147175639
15147183391
15147190104
15147199504
15147208049
15147215007
15147223735
15147232585
15147239116
15147244181
15147256144
15147261332
15147272563
15147277812
15147288737
15147293925
15147305216
15147310649
15147320353
15147327494
15147336955
15147344340
15147353800
15147361247
15147368998
15147375956
15147383952
15147392191
15147400126
15147408488
15147417277
15147424174
15147429117
15147440104
15147449320
15147456217
15147463785
15147471659
15147478739
15147489054
15147496256
15147504618
15147511515
15147518534
15147527018
15147533793
15147542337
15147549723
15147558756
15147567240
15147573160
15147581583
15147587870
15147597086
15147603006
15147608194
15147620157
15147625101
15147635416
15147643839
15147650308
15147654703
15147666177
15147671304
15147682657
15147691324
15147699503
15147704813
15147717020
15147723367
15147734781
15147742959
15147752359
15147761331
15147769754
15147779764
15147786661
15147795389
15147801797
15147813455
15147820962
15147828775
15147836343
15147843362
15147850137
15147858865
15147867471
15147870462
15147883584
15147892190
15147898660
15147907327
15147914468
15147923867
15147933206
15147942666
15147951638
15147960549
15147967385
15147976235
15147984048
15147990334
15147998879
15148006692
15148013467
15148022317
15148028664
15148030984
15148039284
15148043191
15148050820
15148053322
15148063210
15148069131
15148073037
15148078591
15148084084
15148088723
15148093667
15148099831
15148104287
15148107949
15148115517
15148119179
15148126809
15148130471
15148137734
15148141396
15148150368
15148154030
15148161110
15148166298
15148171425
15148176369
15148182472
15148188454
15148193886
15148199623
15148204994
15148210915
15148215981
15148222023
15148227944
15148232582
15148238320
15148244972
15148249855
15148255104
15148261879
15148267433
15148271950
15148277748
15148282814
15148289528
15148294472
15148297890
15148306190
15148309547
15148317970
15148325539
15148333534
15148340614
15148348305
15148358070
15148365089
15148371620
15148381691
15148388466
15148398658
15148406105
15148411842
15148424293
15148429908
15148442665
15148447486
15148459999
15148467201
15148476478
15148483680
15148494789
15148502052
15148509254
15148518775
15148526588
15148533302
15148541602
15148550025
15148557227
15148565772
15148572425
15148581275
15148586524
15148597694
15148603126
15148612037
15148621497
15148629005
15148635474
15148643775
15148650184
15148659583
15148668250
15148675574
15148684119
15148691504
15148700171
15148705420
15148715369
15148723059
15148731849
15148739112
15148747168
15148757056
15148765662
15148773108
15148781653
15148788062
15148796729
15148803198
15148812049
15148818701
15148827673
15148836157
15148841284
15148851111
15148859778
15148866675
15148873938
15148882056
15148888708
15148899878
15148906470
15148914038
15148923132
15148930578
15148937170
15148942114
15148954321
15148959753
15148970678
15148977881
15148986364
15148993628
15149002295
15149009070
15149018347
15149024939
15149036596
15149043920
15149051489
15149058569
15149066015
15149074682
15149081945
15149091040
15149096105
15149107092
15149115942
15149123022
15149131506
15149140295
15149145361
15149154211
15149161901
15149171911
15149178381
15149188085
15149194738
15149204198
15149210607
15149218603
15149227331
15149235448
15149243993
15149250280
15149260167
15149265783
15149278478
15149284337
15149296056
15149303869
15149314367
15149321813
15149331212
15149338536
15149347631
15149353856
15149361302
15149369176
15149377233
15149385045
15149391637
15149400243
15149407323
15149415257
15149423192
15149430943
15149438573
15149444493
15149452855
15149458836
15149465611
15149475255
15149479893
15149489537
15149496129
15149504185
15149510838
15149520604
15149528721
15149536778
15149543370
15149551365
15149558079
15149569127
15149575596
15149585606
15149594395
15149600987
15149609471
15149618199
15149624852
15149632237
15149643528
15149648533
15149659703
15149665623
15149676609
15149683933
15149691868
15149698460
15149707615
15149714146
15149723240
15149731846
15149739048
15149747715
15149754551
15149763645
15149768833
15149779087
15149784275
15149794834
15149802097
15149809666
15149818882
15149825474
15149832432
15149837803
15149842319
15149849277
15149853916
15149857395
15149864963
15149868503
15149876865
15149883396
15149887974
15149893589
15149899082
15149904026
15149910373
15149915256
15149921909
15149926548
15149933139
15149937595
15149944797
15149949741
15149954746
15149960788
15149964145
15149971958
15149978122
15149982761
15149988132
15149993503
15149998508
15150004428
15150011936
15150019504
15150025729
15150033115
15150039584
15150045261
15150050937
15150058383
15150064243
15150069736
15150075900
15150082187
15150086826
15150091708
15150097995
15150103244
15150107333
15150112521
15150118442
15150124240
15150132602
15150139133
15150147067
15150155063
15150160678
15150169467
15150175204
15150184359
15150191989
15150199130
15150206698
15150213839
15150222018
15150228427
15150236239
15150238864
15150253024
15150260775
15150268954
15150273532
15150283114
15150287814
15150298739
15150303561
15150314303
15150322726
15150330782
15150338107
15150344210
15150351107
15150360445
15150367403
15150376986
15150384066
15150392123
15150398531
15150407137
15150415560
15150421419
15150429171
15150438326
15150446810
15150454195
15150462557
15150469332
15150477083
15150484346
15150490877
15150500887
15150509859
15150517488
15150525972
15150532442
15150540804
15150545626
15150555574
15150560335
15150571627
15150576937
15150587068
15150594087
15150600862
15150606783
15150614961
15150623995
15150632845
15150640108
15150648531
15150654573
15150663728
15150669649
15150677461
15150685335
15150693269
15150701448
15150704500
15150715303
15150723482
15150731721
15150739046
15150745027
15150753877
15150762117
15150767732
15150779390
15150782808
15150796113
15150806062
15150815767
15150824189
15150834504
15150842134
15150851533
15150860200
15150869233
15150876863
15150883698
15150893708
15150900605
15150909699
15150916840
15150926118
15150932832
15150942414
15150949128
15150957612
15150964143
15150971467
15150980256
15150987763
15150997285
15151002656
15151011628
15151019074
15151028107
15151035859
15151044587
15151052033
15151060395
15151068635
15151077729
15151084931
15151093598
15151100922
15151109711
15151116547
15151126740
15151133515
15151142182
15151149140
15151159577
15151165924
15151175263
15151181183
15151185822
15151197907
15151200470
15151212311
15151217255
15151229035
15151237030
15151243073
15151247650
15151257965
15151262482
15151274750
15151279633
15151292694
15151298004
15151307709
15151312836
15151322967
15151329498
15151337616
15151344330
15151354095
15151361236
15151369110
15151375152
15151383697
15151392120
15151399444
15151406097
15151414947
15151423736
15151431549
15151439483
15151447113
15151455230
15151461273
15151469207
15151474639
15151485931
15151494964
15151501251
15151508697
15151516631
15151524017
15151530731
15151537627
15151547881
15151555267
15151562713
15151567107
15151573394
15151577911
15151584808
15151590850
15151598601
15151603973
15151612212
15151615935
15151624114
15151628325
15151636504
15151640655
15151649016
15151654510
15151660369
15151662505
15151670745
15151675506
15151681060
15151684478
15151692412
15151694671
15151703887
15151709563
15151714263
15151720488
15151726104
15151728118
15151737883
15151743926
15151748931
15151752471
15151759917
15151763701
15151770964
15151773284
15151782683
15151787688
15151793303
15151795378
15151803862
15151807646
15151815276
15151819609
15151828520
15151833281
15151839262
15151842986
15151850676
15151855559
15151866484
15151872099
15151881926
15151889067
15151898344
15151906706
15151914213
15151920866
15151927946
15151937346
15151943999
15151953154
15151959440
15151968901
15151975920
15151983122
15151992399
15152001921
15152010099
15152017179
15152027128
15152035429
15152045134
15152052091
15152058378
15152069242
15152078825
15152086881
15152092191
15152101652
15152109464
15152118376
15152125639
15152132414
15152139494
15152150846
15152157255
15152164823
15152173490
15152181486
15152189847
15152192777
15152205045
15152210111
15152221586
15152229886
15152236600
15152243863
15152253019
15152260587
15152266935
15152275480
15152282804
15152291898
15152300748
15152307523
15152313443
15152326139
15152331266
15152344205
15152349637
15152361234
15152370938
15152380521
15152389554
15152397977
15152405850
15152412991
15152421231
15152429715
15152434842
15152445218
15152452420
15152460233
15152469205
15152475613
15152485013
15152493069
15152502225
15152510647
15152517483
15152526394
15152532864
15152541470
15152550320
15152558621
15152565396
15152574307
15152581997
15152589688
15152595669
15152605252
15152611477
15152620022
15152628323
15152634549
15152642361
15152650051
15152658352
15152663052
15152672329
15152679287
15152689358
15152694546
15152703396
15152709988
15152717495
15152726528
15152733669
15152739529
15152749538
15152755459
15152764187
15152770596
15152779507
15152785549
15152793056
15152801479
15152806789
15152816738
15152821499
15152831325
15152839077
15152845302
15152852016
15152859462
15152868129
15152877468
15152884792
15152891811
15152897670
15152907375
15152913967
15152921596
15152929287
15152938686
15152944484
15152953212
15152959316
15152969020
15152981105
15152988490
15152999294
15153006862
15153015956
15153023036
15153029994
15153039516
15153046413
15153055507
15153063197
15153073085
15153080165
15153089625
15153096461
15153104091
15153113917
15153120448
15153129603
15153141078
15153148768
15153157863
15153168055
15153176478
15153184169
15153192469
15153203395
15153212428
15153219325
15153228419
15153235621
15153243495
15153252528
15153261134
15153267665
15153278346
15153285731
15153293971
15153303492
15153310267
15153319239
15153324488
15153328639
15153337733
15153342188
15153347376
15153352991
15153358851
15153364100
15153368861
15153373560
15153375391
15153383143
15153388331
15153393641
15153398340
15153404078
15153407130
15153413660
15153416651
15153425745
15153429407
15153437098
15153440088
15153447352
15153450525
15153457178
15153462427
15153469263
15153472925
15153479700
15153484095
15153489161
15153493860
15153499903
15153503992
15153511255
15153515528
15153523035
15153527613
15153533350
15153537439
15153543054
15153548548
15153554712
15153560388
15153565454
15153571192
15153576868
15153582239
15153586633
15153592432
15153596033
15153606348
15153611353
15153621790
15153629358
15153637415
15153644678
15153650537
15153657129
15153668115
15153675256
15153683008
15153691797
15153699304
15153705286
15153712671
15153721094
15153729761
15153736352
15153745508
15153751428
15153756982
15153767602
15153774987
15153780786
15153789941
15153798974
15153804101
15153815698
15153826440
15153836389
15153844140
15153854760
15153862695
15153872766
15153881555
15153892175
15153899438
15153907067
15153917260
15153923486
15153932824
15153941308
15153948449
15153956933
15153965783
15153972558
15153977563
15153989587
15153994897
15154004113
15154011986
15154021508
15154028588
15154037438
15154044518
15154053429
15154061120
15154070275
15154077660
15154085473
15154094017
15154100487
15154108849
15154114769
15154122704
15154133202
15154139550
15154147789
15154156273
15154163964
15154169945
15154174523
15154184593
15154189537
15154201012
15154210533
15154216820
15154225060
15154232872
15154237450
15154246666
15154253990
15154263145
15154270409
15154278953
15154285728
15154294212
15154300865
15154309593
15154316429
15154325767
15154333092
15154339744
15154349449
15154355980
15154362205
15154370994
15154376793
15154387779
15154394127
15154402244
15154410484
15154417076
15154424827
15154433067
15154439537
15154448814
15154457359
15154464866
15154473228
15154481040
15154487144
15154495445
15154501975
15154509361
15154519065
15154527488
15154534385
15154541526
15154549705
15154556358
15154563255
15154572288
15154581809
15154588950
15154596213
15154604880
15154611289
15154618979
15154625937
15154635642
15154646628
15154653830
15154663840
15154672629
15154682700
15154689597
15154700644
15154706260
15154718650
15154727500
15154736716
15154742148
15154753989
15154762351
15154771201
15154779685
15154788230
15154791159
15154803244
15154808127
15154819540
15154828146
15154834433
15154841940
15154853293
15154862021
15154868430
15154875510
15154885580
15154892905
15154899985
15154909323
15154918112
15154925314
15154933310
15154939657
15154948324
15154954367
15154963339
15154969626
15154978598
15154986776
15154994528
15155002340
15155008932
15155016928
15155021688
15155031698
15155036642
15155047689
15155055685
15155061605
15155067831
15155073751
15155076010
15155084249
15155091879
15155097921
15155099874
15155108419
15155110250
15155120016
15155123617
15155130575
15155134237
15155144491
15155148092
15155154806
15155159139
15155164327
15155169393
15155174703
15155180440
15155185628
15155191610
15155195821
15155201436
15155206685
15155210897
15155217000
15155221029
15155227376
15155233297
15155237752
15155243062
15155247823
15155253499
15155257772
15155262899
15155266073
15155273397
15155277059
15155284017
15155289449
15155294515
15155298787
15155304586
15155309041
15155315816
15155320699
15155326680
15155333028
15155345357
15155351583
15155363790
15155369710
15155379964
15155385030
15155398335
15155404927
15155416463
15155421529
15155431966
15155437337
15155450032
15155455220
15155464314
15155471394
15155480305
15155487019
15155495320
15155505086
15155514180
15155521809
15155530110
15155536336
15155544880
15155551167
15155562153
15155571736
15155581440
15155588459
15155598347
15155608662
15155616413
15155626545
15155635823
15155642781
15155654011
15155661518
15155670857
15155677448
15155687519
15155695576
15155703938
15155711079
15155720173
15155726643
15155736103
15155742695
15155752216
15155759235
15155766560
15155775471
15155784809
15155791401
15155796406
15155808124
15155816608
15155824054
15155829609
15155841816
15155850727
15155859333
15155867145
15155873554
15155881794
15155890705
15155896747
15155907550
15155912494
15155924274
15155931476
15155940326
15155947772
15155955585
15155962177
15155970355
15155978839
15155986591
15155995685
15156003864
15156012164
15156017352
15156028705
15156034320
15156045489
15156050677
15156061298
15156066424
15156075641
15156085101
15156092425
15156098956
15156107440
15156116412
15156125812
15156134845
15156141559
15156150226
15156157489
15156165973
15156171283
15156183734
15156193560
15156204119
15156212725
15156222308
15156232928
15156241839
15156251483
15156259417
15156270403
15156276812
15156286822
15156293475
15156300616
15156309710
15156317645
15156326373
15156333758
15156342364
15156350054
15156357928
15156364214
15156374041
15156380694
15156388018
15156396807
15156401995
15156413103
15156418169
15156429155
15156436419
15156445452
15156452532
15156460283
15156467241
15156476641
15156482927
15156493120
15156499529
15156507830
15156516680
15156524309
15156532793
15156539446
15156550554
15156556658
15156571367
15156577715
15156590105
15156596269
15156609819
15156618852
15156626054
15156632524
15156640215
15156647722
15156655778
15156663408
15156670488
15156678361
15156685136
15156692827
15156699907
15156706621
15156714372
15156722368
15156729326
15156737565
15156745378
15156753129
15156761491
15156767656
15156777177
15156781694
15156790116
15156796586
15156807084
15156813371
15156820390
15156824662
15156833879
15156842057
15156847978
15156853227
15156860185
15156863725
15156869706
15156875138
15156881608
15156886002
15156890824
15156895280
15156902665
15156907670
15156913468
15156917741
15156922868
15156928178
15156933244
15156939042
15156946122
15156952164
15156956315
15156962113
15156968583
15156976090
15156982316
15156986832
15156994706
15157000138
15157006852
15157014359
15157020829
15157025956
15157031510
15157037552
15157045060
15157048417
15157054093
15157058548
15157064225
15157068680
15157074784
15157078690
15157084671
15157088883
15157094376
15157099625
15157105240
15157109940
15157115250
15157119278
15157125565
15157131119
15157136063
15157141739
15157146927
15157151627
15157157242
15157161209
15157167557
15157173782
15157179031
15157183060
15157188675
15157193863
15157197891
15157203079
15157209061
15157216385
15157222794
15157227798
15157234207
15157238235
15157243668
15157249405
15157256363
15157261185
15157268875
15157273270
15157278396
15157284195
15157289444
15157294021
15157297317
15157305862
15157312027
15157316665
15157321792
15157327041
15157330276
15157337356
15157341507
15157349136
15157356033
15157362014
15157367569
15157371536
15157376663
15157381851
15157386795
15157392532
15157396133
15157404190
15157407241
15157414199
15157418655
15157424514
15157430007
15157435378
15157440872
15157447158
15157452163
15157458633
15157463394
15157469253
15157473708
15157480850
15157487624
15157493240
15157497390
15157503310
15157509109
15157513870
15157520644
15157528579
15157534805
15157542373
15157547256
15157555068
15157559951
15157563125
15157572951
15157580764
15157586440
15157592544
15157598403
15157603896
15157608474
15157614943
15157620437
15157626662
15157631240
15157637343
15157642043
15157647780
15157652419
15157658095
15157664565
15157672194
15157676223
15157683120
15157688002
15157692458
15157696486
15157702834
15157706740
15157716445
15157718947
15157727553
15157730971
15157738051
15157743056
15157749037
15157754469
15157761611
15157767226
15157772963
15157777968
15157783217
15157787856
15157794692
15157799208
15157804701
15157811110
15157817946
15157822401
15157828566
15157832960
15157838515
15157844557
15157848402
15157857191
15157861464
15157868117
15157873122
15157879347
15157884901
15157890272
15157894789
15157902540
15157907484
15157913222
15157920302
15157925917
15157930372
15157933790
15157941176
15157944899
15157953016
15157957045
15157964369
15157969252
15157975172
15157980909
15157987013
15157992384
15158001722
15158010145
15158016493
15158022840
15158027418
15158037428
15158044691
15158050489
15158057447
15158063307
15158078565
15158085401
15158092176
15158099012
15158107923
15158115308
15158120741
15158131239
15158138563
15158150037
15158157606
15158160841
15158172071
15158179029
15158188001
15158197156
15158203199
15158215467
15158224866
15158233289
15158240674
15158248792
15158257093
15158265271
15158272229
15158277661
15158288221
15158294995
15158304578
15158309766
15158316419
15158321973
15158326917
15158331677
15158338269
15158344068
15158351392
15158356336
15158361890
15158366712
15158373120
15158377820
15158383984
15158388623
15158394055
15158401624
15158405652
15158413281
15158418103
15158422864
15158429456
15158434155
15158440381
15158447766
15158452649
15158458752
15158464673
15158469861
15158475903
15158481396
15158487195
15158493298
15158499829
15158505017
15158510937
15158515088
15158521985
15158525586
15158531567
15158538586
15158546154
15158552075
15158558361
15158563427
15158568432
15158573132
15158579541
15158584057
15158587780
15158596020
15158599804
15158607678
15158614086
15158618542
15158623486
15158629467
15158634960
15158643017
15158646923
15158654125
15158659130
15158664929
15158669811
15158675976
15158680309
15158686535
15158691357
15158698132
15158703747
15158707409
15158715832
15158722363
15158727367
15158733532
15158740246
15158745861
15158751354
15158757091
15158763988
15158770336
15158776745
15158781444
15158785534
15158794872
15158798595
15158807079
15158812938
15158818126
15158823192
15158830150
15158837230
15158844066
15158852245
15158859020
15158866039
15158873973
15158878978
15158885509
15158893444
15158901927
15158907421
15158914867
15158919322
15158925975
15158930431
15158933544
15158942272
15158946117
15158954296
15158959667
15158965038
15158969920
15158975658
15158981273
15158986644
15158992931
15158999645
15159004649
15159011790
15159017528
15159025890
15159030162
15159039378
15159043590
15159049693
15159055431
15159060618
15159065440
15159071116
15159077525
15159082896
15159087901
15159094920
15159099681
15159106517
15159110972
15159117320
15159123118
