14814685890
14814694252
14814701026
14814708168
14814716041
14814724220
14814731910
14814739051
14814746070
14814753761
14814762061
14814769141
14814778114
14814785865
14814793983
14814800269
14814807594
14814814185
14814822547
14814827735
14814836341
14814843909
14814850257
14814858375
14814865882
14814872962
14814879004
14814889747
14814897986
14814905005
14814912024
14814921729
14814929725
14814937415
14814944983
14814951758
14814960913
14814967139
14814974341
14814981971
14814989539
14814997412
14815005408
14815011145
14815017981
14815025916
14815034766
14815042639
14815047400
14815057776
14815066443
14815074744
14815080237
14815086157
14815093359
14815100500
14815105749
14815112769
14815118140
14815125159
14815130591
14815137549
14815142859
14815150732
14815157934
14815163000
14815170202
14815177344
14815183203
14815189306
14815195288
14815201819
14815209326
14815215796
14815221716
14815226965
14815234228
14815239294
14815247046
14815254797
14815260534
14815267065
14815272863
14815279211
14815286901
14815293371
14815300573
14815306188
14815313207
14815319433
14815325964
14815333837
14815340490
14815347021
14815354528
14815360815
14815366674
14815372900
14815379247
14815384557
14815390722
14815395849
14815404028
14815409826
14815418615
14815424657
14815431310
14815437719
14815444311
14815452306
14815459325
14815464696
14815471105
14815477147
14815483434
14815490087
14815496618
14815502172
14815508764
14815516393
14815523412
14815530370
14815537572
14815543554
14815549413
14815557164
14815565038
14815571996
14815579076
14815586400
14815592015
14815598363
14815607274
14815613805
14815620885
14815627294
14815633885
14815642430
14815648778
14815655797
14815664098
14815669103
14815675938
14815683324
14815689305
14815696263
14815703404
14815711461
14815717747
14815724827
14815733739
14815740880
14815748326
14815753697
14815761387
14815769261
14815775242
14815782750
14815788670
14815797581
14815804722
14815809300
14815815648
14815822850
14815831761
14815837925
14815845372
14815851658
14815859166
14815865818
14815874180
14815881565
14815889012
14815897557
14815904209
14815914402
14815920933
14815924839
14815936985
14815945896
14815951023
14815958103
14815966160
14815974827
14815981663
14815991489
14815998753
14816006687
14816014622
14816021824
14816028660
14816036716
14816044163
14816051182
14816057957
14816067173
14816075046
14816082004
14816089634
14816094639
14816104404
14816110080
14816119358
14816126133
14816133335
14816140842
14816148166
14816155918
14816161350
14816169956
14816178195
14816187961
14816195896
14816202793
14816210849
14816219028
14816227146
14816234470
14816241916
14816248569
14816256198
14816265109
14816271823
14816279453
14816287265
14816294650
14816301852
14816308932
14816318149
14816324557
14816331454
14816339023
14816346774
14816357333
14816362277
14816370639
14816380343
14816384677
14816389621
14816395114
14816400729
14816407687
14816413546
14816419162
14816425814
14816431186
14816438266
14816443637
14816451815
14816456759
14816462863
14816467868
14816472995
14816479342
14816484103
14816491000
14816497531
14816502719
14816507540
14816512911
14816519076
14816523837
14816527255
14816534945
14816539156
14816546481
14816551058
14816556735
14816562472
14816566378
14816572787
14816576937
14816583956
14816587557
14816592867
14816599093
14816604769
14816609652
14816615023
14816620882
14816627474
14816636019
14816642061
14816648348
14816654940
14816658846
14816669710
14816681246
14816688082
14816695101
14816705111
14816711458
14816718294
14816726046
14816735201
14816743502
14816751986
14816761812
14816767183
14816774752
14816783113
14816790560
14816795015
14816802461
14816811800
14816819856
14816826082
14816833284
14816839571
14816846407
14816854585
14816860750
14816869722
14816875764
14816881990
14816890474
14816898897
14816904268
14816909883
14816918611
14816927461
14816934907
14816940828
14816947908
14816953523
14816959871
14816969087
14816977144
14816983735
14816989839
14816998201
14817003328
14817011750
14817016511
14817026826
14817033845
14817041291
14817046968
14817054902
14817061189
14817069062
14817078157
14817084870
14817090913
14817099885
14817107453
14817115144
14817122041
14817130280
14817137299
14817144990
14817151215
14817159638
14817164887
14817173493
14817181184
14817190339
14817198518
14817205964
14817214204
14817220490
14817227997
14817235688
14817244660
14817251008
14817258271
14817265656
14817274628
14817279877
14817286469
14817295136
14817303009
14817311127
14817317536
14817325837
14817333100
14817341401
14817348053
14817356659
14817363373
14817370209
14817378327
14817384369
14817392365
14817399628
14817408356
14817415375
14817423493
14817431732
14817438751
14817446198
14817454498
14817460968
14817467987
14817475616
14817483551
14817492279
14817500824
14817508087
14817515106
14817524139
14817531280
14817539032
14817545746
14817554535
14817558990
14817568451
14817574554
14817583709
14817590545
14817597381
14817604400
14817612213
14817622223
14817626861
14817634674
14817641937
14817650360
14817658294
14817664886
14817674041
14817680023
14817686126
14817694976
14817702056
14817709258
14817716400
14817724578
14817732879
14817740386
14817747833
14817754241
14817762298
14817768646
14817776641
14817785247
14817791656
14817800140
14817806487
14817813628
14817822600
14817828704
14817836700
14817844756
14817850249
14817858184
14817864654
14817875701
14817882476
14817891448
14817898711
14817904509
14817911467
14817919036
14817926726
14817935149
14817942900
14817950835
14817957366
14817964385
14817973723
14817980071
14817987517
14817994048
14818002410
14818011015
14818018645
14818024626
14818033354
14818040434
14818048186
14818055693
14818064482
14818076567
14818084502
14818089384
14818097990
14818103545
14818109465
14818117094
14818123442
14818128630
14818135039
14818141081
14818146086
14818151701
14818156584
14818160917
14818170683
14818175688
14818182707
14818191679
14818196806
14818202543
14818210173
14818214811
14818219572
14818225126
14818229338
14818236357
14818240812
14818247343
14818253019
14818260954
14818266813
14818272184
14818277555
14818281217
14818287382
14818291654
14818296842
14818300993
14818307279
14818312956
14818318815
14818323087
14818329313
14818333097
14818338651
14818344267
14818350187
14818355863
14818360197
14818366239
14818372587
14818379484
14818386015
14818394376
14818400846
14818404264
14818413297
14818420866
14818427213
14818434049
14818440580
14818449308
14818455045
14818463529
14818470670
14818476285
14818483548
14818489347
14818502103
14818510709
14818518094
14818524137
14818530912
14818536344
14818542752
14818551541
14818558805
14818564481
14818574369
14818580411
14818588834
14818596219
14818600430
14818608243
14818614896
14818621976
14818629178
14818636929
14818644437
14818650601
14818658109
14818664761
14818672269
14818678799
14818686063
14818694607
14818699124
14818708401
14818714322
14818725430
14818734341
14818742703
14818750332
14818758938
14818767849
14818774563
14818782864
14818791592
14818799283
14818807522
14818815213
14818822476
14818829922
14818836209
14818844754
14818850552
14818861050
14818870632
14818878872
14818883572
14818893337
14818901394
14818908962
14818913601
14818923306
14818932400
14818941372
14818947353
14818957363
14818963467
14818972561
14818978542
14818985134
14818993008
14818999905
14819007290
14819013882
14819020901
14819026638
14819035488
14819042019
14819048672
14819055202
14819062160
14819069851
14819077175
14819084560
14819089809
14819096523
14819104763
14819111354
14819117702
14819123317
14819130214
14819136135
14819144680
14819149623
14819158046
14819164882
14819173366
14819178615
14819186672
14819194972
14819202968
14819211879
14819218410
14819224269
14819232631
14819238307
14819245754
14819254176
14819262050
14819269557
14819277309
14819283351
14819291713
14819298671
14819307155
14819314357
14819322414
14819328700
14819336818
14819344813
14819353053
14819359767
14819368617
14819375880
14819381495
14819388759
14819397853
14819405726
14819411952
14819419947
14819425990
14819432460
14819439967
14819450099
14819456385
14819464564
14819472560
14819479579
14819487086
14819493495
14819501734
14819507227
14819515040
14819521693
14819529505
14819536280
14819543543
14819549342
14819557887
14819565699
14819574610
14819582545
14819591578
14819595972
14819608057
14819615076
14819620325
14819630274
14819636011
14819641993
14819650538
14819657252
14819665491
14819671351
14819679407
14819685755
14819692530
14819701746
14819706873
14819713892
14819717798
14819722437
14819727564
14819732935
14819739832
14819744593
14819749903
14819755213
14819760095
14819766199
14819773035
14819779932
14819785913
14819790308
14819795679
14819800928
14819805567
14819810816
14819817224
14819823511
14819829431
14819835291
14819840906
14819845117
14819850916
14819856470
14819861292
14819867151
14819872461
14819878809
14819883936
14819889917
14819894922
14819900537
14819907617
14819913171
14819918054
14819923791
14819928918
14819933984
14819938989
14819944726
14819950403
14819955774
14819960962
14819967065
14819972436
14819980127
14819986535
14819992883
14820003686
14820010644
14820016931
14820025842
14820032312
14820041467
14820047937
14820055688
14820063134
14820068383
14820079492
14820085229
14820093896
14820100610
14820108361
14820116113
14820122094
14820128503
14820137048
14820143517
14820151269
14820160973
14820166039
14820173425
14820182153
14820190148
14820195702
14820203454
14820212487
14820218651
14820227257
14820233361
14820239586
14820248620
14820256188
14820265282
14820271752
14820279076
14820287072
14820292870
14820301354
14820308190
14820316430
14820326012
14820334313
14820340721
14820349022
14820357506
14820363915
14820370568
14820377953
14820386009
14820394615
14820401817
14820408898
14820416832
14820425438
14820432579
14820437889
14820448875
14820456139
14820463829
14820471764
14820477684
14820484947
14820494163
14820501121
14820508873
14820515709
14820520408
14820529198
14820536644
14820544517
14820549949
14820557762
14820566368
14820575218
14820580589
14820588218
14820592308
14820603721
14820611534
14820616661
14820624473
14820630882
14820640220
14820647727
14820655052
14820661888
14820668907
14820675743
14820684410
14820690757
14820699302
14820705650
14820714073
14820722007
14820729759
14820736778
14820742149
14820749595
14820758079
14820765342
14820771934
14820781638
14820787254
14820795798
14820805076
14820812461
14820818137
14820826133
14820833823
14820841636
14820850181
14820856467
14820865439
14820871299
14820880210
14820885459
14820893332
14820901694
14820909446
14820920066
14820927085
14820935874
14820942588
14820951438
14820961753
14820969565
14820978110
14820984274
14820993857
14821002158
14821007834
14821018332
14821026267
14821034567
14821042807
14821050558
14821056723
14821064780
14821074911
14821083884
14821089560
14821099325
14821106589
14821115011
14821121420
14821129172
14821136557
14821141928
14821152792
14821157797
14821165182
14821174093
14821181234
14821188498
14821196310
14821203634
14821211203
14821217245
14821225241
14821231649
14821240011
14821247579
14821252706
14821261923
14821267599
14821275595
14821284872
14821291952
14821299337
14821306783
14821312948
14821321188
14821328451
14821337179
14821345174
14821351766
14821359518
14821368429
14821375265
14821382833
14821389364
14821398763
14821402364
14821409505
14821414388
14821427450
14821433187
14821438314
14821442647
14821447774
14821454671
14821460225
14821465474
14821470601
14821475362
14821480184
14821485189
14821490987
14821496297
14821501790
14821508504
14821512899
14821518331
14821525106
14821529866
14821534932
14821541585
14821549214
14821554280
14821559835
14821565328
14821571675
14821575765
14821581624
14821588338
14821595967
14821599629
14821606404
14821611409
14821617085
14821622029
14821627339
14821633870
14821639424
14821644673
14821652180
14821657429
14821664876
14821669942
14821676106
14821682881
14821688801
14821697468
14821703572
14821708577
14821717488
14821723225
14821730183
14821739277
14821745869
14821751362
14821760212
14821765889
14821775410
14821780415
14821789692
14821797810
14821805134
14821812153
14821820088
14821829121
14821835591
14821844929
14821849446
14821858723
14821865437
14821872944
14821877033
14821886616
14821893879
14821901508
14821907978
14821915058
14821923664
14821929890
14821936726
14821944599
14821952656
14821958576
14821968708
14821976643
14821983662
14821990070
14821998859
14822005878
14822011860
14822019428
14822028339
14822036823
14822044758
14822050861
14822057209
14822067463
14822072956
14822080768
14822089435
14822094501
14822102497
14822111286
14822118976
14822126667
14822131183
14822141620
14822148883
14822156574
14822163166
14822172382
14822179218
14822186664
14822193744
14822202045
14822209979
14822216083
14822224811
14822233051
14822240985
14822245136
14822255328
14822264484
14822270587
14822276691
14822285724
14822291644
14822300860
14822308978
14822316485
14822323810
14822330646
14822338336
14822346515
14822354144
14822363055
14822370685
14822377459
14822383563
14822392047
14822400286
14822406573
14822414508
14822421832
14822430499
14822436724
14822442950
14822452960
14822457965
14822468279
14822473528
14822484149
14822491534
14822499163
14822507525
14822515765
14822523394
14822530718
14822539141
14822545062
14822554644
14822563067
14822567828
14822578265
14822584429
14822591509
14822599749
14822606829
14822614947
14822623553
14822631060
14822637652
14822646135
14822653582
14822661882
14822668718
14822674700
14822685198
14822692278
14822698565
14822707720
14822714006
14822722002
14822729570
14822737993
14822745623
14822753252
14822761431
14822770525
14822777544
14822783342
14822793413
14822800432
14822806719
14822816972
14822825761
14822832780
14822840715
14822848039
14822856218
14822863115
14822870439
14822877763
14822885942
14822895097
14822900773
14822910112
14822917070
14822923845
14822930192
14822938188
14822946245
14822954057
14822961564
14822969621
14822976213
14822983537
14822989640
14822997087
14823006364
14823014115
14823020341
14823027421
14823036393
14823041825
14823050553
14823057633
14823065263
14823073197
14823081376
14823090226
14823097306
14823104081
14823109757
14823115067
14823120561
14823127091
14823132340
14823136796
14823143327
14823147294
14823153092
14823157548
14823162247
14823170304
14823175248
14823180314
14823185075
14823191239
14823197465
14823201310
14823208451
14823213883
14823219132
14823224137
14823228531
14823234940
14823243363
14823248307
14823256424
14823263627
14823269974
14823274125
14823280960
14823286637
14823291153
14823296219
14823300553
14823307267
14823312149
14823317032
14823321549
14823328507
14823333939
14823339066
14823344071
14823348831
14823353714
14823358719
14823363907
14823369034
14823373490
14823381668
14823389053
14823396195
14823404923
14823412003
14823420242
14823427506
14823434830
14823442703
14823451981
14823459183
14823466568
14823475113
14823481277
14823489944
14823495682
14823504593
14823512588
14823520340
14823527603
14823534805
14823541946
14823553177
14823564590
14823575332
14823581619
14823589065
14823595657
14823601821
14823610061
14823617019
14823624038
14823631118
14823639541
14823645706
14823653823
14823660476
14823666885
14823674270
14823681655
14823690994
14823699416
14823705093
14823710403
14823719192
14823728164
14823735427
14823742019
14823749526
14823756850
14823764053
14823771133
14823778152
14823785903
14823794448
14823801467
14823810988
14823816543
14823825759
14823831435
14823840896
14823848952
14823857253
14823864760
14823873610
14823879470
14823886855
14823896010
14823903334
14823911574
14823917800
14823926467
14823934035
14823942214
14823950514
14823956862
14823967177
14823973464
14823982436
14823990309
14823999587
14824005263
14824014601
14824020827
14824030348
14824036086
14824046584
14824052809
14824061598
14824070448
14824077101
14824084547
14824093153
14824101759
14824109877
14824117689
14824124769
14824133986
14824141554
14824149611
14824156202
14824163893
14824171156
14824179274
14824187696
14824195326
14824203688
14824210951
14824217787
14824225660
14824232984
14824242140
14824247755
14824256910
14824264173
14824271314
14824278211
14824285475
14824292860
14824299696
14824306654
14824314405
14824322340
14824328687
14824333570
14824341627
14824351148
14824359266
14824366346
14824374219
14824381483
14824387403
14824394239
14824402845
14824411756
14824418531
14824423841
14824431531
14824440015
14824448316
14824454786
14824462537
14824467969
14824476270
14824486280
14824493116
14824501111
14824506604
14824514478
14824522779
14824531201
14824539502
14824546460
14824555921
14824563367
14824572156
14824579175
14824587415
14824594678
14824603345
14824612378
14824620496
14824627332
14824637219
14824643567
14824653638
14824660596
14824668896
14824675671
14824683484
14824691785
14824700207
14824707226
14824714917
14824721753
14824729687
14824734082
14824743969
14824750012
14824754834
14824762097
14824767956
14824774426
14824780651
14824786145
14824790966
14824799206
14824805371
14824810681
14824815808
14824821118
14824825268
14824832958
14824837780
14824842846
14824848034
14824855663
14824860363
14824865307
14824871227
14824876476
14824881970
14824887585
14824893444
14824899365
14824902355
14824909802
14824914135
14824923107
14824929760
14824937267
14824944958
14824950756
14824957470
14824962902
14824967968
14824971752
14824976574
14824980480
14824985302
14824990002
14824993786
14825000133
14825005138
14825009167
14825012951
14825018200
14825023937
14825030285
14825037243
14825043346
14825049083
14825052746
14825062511
14825069103
14825075451
14825081554
14825088390
14825096386
14825102306
14825108776
14825115367
14825121532
14825126781
14825132946
14825141796
14825148815
14825155223
14825163890
14825169872
14825177562
14825183238
14825191295
14825199718
14825205089
14825215099
14825221873
14825229076
14825235545
14825242320
14825248668
14825256724
14825263744
14825270213
14825277721
14825284190
14825290416
14825299937
14825307567
14825315196
14825324107
14825333629
14825344249
14825352916
14825360728
14825367991
14825374949
14825381053
14825388926
14825393931
14825400889
14825407664
14825414195
14825421275
14825429209
14825434947
14825440745
14825450999
14825456492
14825465220
14825472666
14825480479
14825486460
14825492442
14825498667
14825504649
14825510874
14825517710
14825527781
14825533213
14825541392
14825548594
14825556223
14825562144
14825568064
14825577341
14825583140
14825592234
14825599985
14825607187
14825613535
14825621348
14825629709
14825636240
14825643564
14825650583
14825659006
14825665293
14825672312
14825678354
14825687448
14825694529
14825701670
14825707773
14825716806
14825723642
14825731333
14825737985
14825745249
14825751596
14825758737
14825768198
14825773935
14825780344
14825793771
14825799997
14825808542
14825816049
14825824289
14825831674
14825838266
14825846139
14825853952
14825858957
14825866769
14825873727
14825880807
14825891000
14825899911
14825907052
14825914132
14825921579
14825927072
14825937021
14825945382
14825953561
14825960397
14825967721
14825974923
14825982248
14825989999
14825997323
14826005380
14826012948
14826019235
14826026986
14826034066
14826040963
14826050607
14826057748
14826066781
14826077645
14826085458
14826093575
14826100533
14826107308
14826115121
14826122750
14826130135
14826138314
14826146065
14826154732
14826160226
14826168343
14826176156
14826182381
14826192086
14826201607
14826209237
14826215157
14826226632
14826235604
14826242867
14826248604
14826256905
14826263009
14826273446
14826280770
14826287911
14826294625
14826301644
14826309517
14826316597
14826326546
14826332894
14826339485
14826347908
14826353340
14826361946
14826372566
14826378121
14826383431
14826388741
14826395454
14826399910
14826405220
14826410408
14826418526
14826425728
14826432259
14826437996
14826442512
14826449470
14826455635
14826461372
14826466560
14826472786
14826479256
14826483284
14826488350
14826494453
14826499275
14826504646
14826510994
14826517891
14826523018
14826527717
14826532722
14826539009
14826543892
14826548896
14826554817
14826560188
14826564521
14826571907
14826576240
14826581306
14826586067
14826591011
14826597419
14826604621
14826609443
14826614570
14826619758
14826624946
14826629463
14826635261
14826641120
14826648628
14826654548
14826663215
14826670905
14826678108
14826683845
14826692939
14826699043
14826708198
14826715766
14826723151
14826730659
14826739753
14826746650
14826754890
14826764899
14826773688
14826779731
14826789313
14826795722
14826803412
14826810309
14826817389
14826827216
14826834479
14826840278
14826849738
14826854743
14826864142
14826871466
14826879157
14826887580
14826895514
14826903327
14826912543
14826918463
14826926825
14826934516
14826939215
14826949713
14826958258
14826964057
14826973090
14826979132
14826987250
14826995123
14827004706
14827012030
14827019232
14827026617
14827035284
14827042853
14827051947
14827059210
14827066107
14827073309
14827081000
14827088385
14827098700
14827106634
14827114203
14827122259
14827130255
14827136786
14827144476
14827152166
14827159430
14827166693
14827172491
14827180304
14827187994
14827195990
14827203070
14827211920
14827218084
14827224859
14827233953
14827241583
14827248907
14827258978
14827268499
14827275884
14827284063
14827291631
14827300665
14827309454
14827316351
14827323614
14827330877
14827338872
14827345830
14827352239
14827360601
14827367498
14827375921
14827383184
14827391118
14827397710
14827405401
14827413396
14827422124
14827430425
14827437871
14827444341
14827452092
14827459111
14827466985
14827474065
14827482061
14827488164
14827497075
14827503423
14827511540
14827518743
14827527776
14827536382
14827544377
14827552556
14827559453
14827567449
14827575078
14827581303
14827589299
14827598210
14827606267
14827615300
14827623418
14827631291
14827638554
14827645512
14827652287
14827659733
14827667302
14827672978
14827682072
14827689091
14827696660
14827703373
14827709721
14827716740
14827724980
14827732121
14827739506
14827747014
14827754582
14827761784
14827770512
14827777958
14827786625
14827793644
14827801823
14827808354
14827815800
14827822270
14827830082
14827838383
14827846562
14827857426
14827864933
14827870365
14827878361
14827884953
14827892460
14827900639
14827907719
14827912052
14827923161
14827930241
14827937687
14827944584
14827952274
14827956791
14827966068
14827975712
14827981144
14827988773
14827997806
14828004093
14828008426
14828014164
14828021122
14828025760
14828032596
14828039493
14828045780
14828050113
14828057560
14828062564
14828066166
14828073124
14828080326
14828085269
14828090457
14828094547
14828101688
14828106021
14828111331
14828116275
14828121524
14828126346
14828132450
14828136661
14828143009
14828147952
14828151676
14828157474
14828162967
14828168948
14828174136
14828179935
14828185794
14828191348
14828198245
14828204349
14828211795
14828218692
14828224368
14828229129
14828235294
14828241641
14828247684
14828253665
14828260318
14828265811
14828272647
14828277713
14828282352
14828289004
14828295840
14828304263
14828310428
14828318789
14828324527
14828333438
14828339663
14828346194
14828353518
14828361392
14828368533
14828375918
14828384463
14828394168
14828402102
14828409060
14828417056
14828424136
14828432376
14828439150
14828446353
14828453555
14828460635
14828467898
14828474734
14828481204
14828488589
14828495608
14828503298
14828510073
14828517031
14828524294
14828527895
14828536990
14828542849
14828553042
14828558840
14828566103
14828571963
14828581118
14828586367
14828593203
14828600283
14828611208
14828616884
14828622988
14828630983
14828638674
14828644411
14828652895
14828660646
14828670534
14828677004
14828683840
14828693056
14828699343
14828707704
14828712709
14828722719
14828731325
14828738588
14828744753
14828759279
14828765199
14828774416
14828780275
14828789796
14828797975
14828804933
14828812379
14828818849
14828828188
14828834230
14828842775
14828854494
14828862611
14828869447
14828878663
14828884584
14828891664
14828900636
14828909120
14828917726
14828925966
14828933168
14828940553
14828949891
14828958741
14828966737
14828974488
14828982240
14828988893
14828996278
14829004212
14829012452
14829019776
14829028810
14829038758
14829046143
14829053407
14829061219
14829069093
14829076539
14829084229
14829091615
14829099122
14829106629
14829114686
14829122742
14829129212
14829137391
14829147462
14829155335
14829163087
14829170472
14829177735
14829184998
14829190980
14829198426
14829206421
14829213624
14829221253
14829228394
14829234864
14829241639
14829249085
14829256653
14829263916
14829272339
14829279969
14829288575
14829296692
14829304505
14829311829
14829319580
14829325867
14829333374
14829340027
14829348389
14829355469
14829364075
14829370056
14829379273
14829388001
14829396790
14829404236
14829412598
14829419311
14829427185
14829433716
14829440857
14829449097
14829456421
14829463013
14829469604
14829475342
14829484680
14829491577
14829501220
14829510742
14829519287
14829524902
14829533081
14829540100
14829547607
14829553344
14829560363
14829566589
14829574646
14829582763
14829590087
14829597167
14829604858
14829613464
14829621093
14829626220
14829636657
14829644531
14829650695
14829657958
14829664001
14829670471
14829677245
14829682128
14829688049
14829694030
14829701720
14829707641
14829713378
14829719237
14829725768
14829731261
14829735290
14829741820
14829746825
14829753417
14829760070
14829765868
14829770385
14829774474
14829781066
14829786254
14829792296
14829798095
14829801757
14829807250
14829813353
14829820556
14829824279
14829830626
14829835326
14829840087
14829845214
14829850463
14829854979
14829861266
14829867308
14829873168
14829878661
14829884154
14829890074
14829895262
14829900511
14829906066
14829910765
14829917906
14829922850
14829929015
14829934203
14829940001
14829946288
14829953856
14829961668
14829969847
14829977416
14829985899
14829992918
14829999449
14830006346
14830014769
14830022642
14830029906
14830036192
14830046324
14830051390
14830061033
14830065916
14830075438
14830083555
14830090941
14830098631
14830106505
14830112547
14830120421
14830129454
14830135740
14830142332
14830149900
14830158689
14830165708
14830172300
14830179686
14830189085
14830194273
14830204405
14830210752
14830217893
14830224058
14830232115
14830241331
14830248716
14830255369
14830263364
14830271482
14830277219
14830286070
14830292539
14830299192
14830308714
14830314817
14830321958
14830329710
14830337949
14830345029
14830352842
14830362058
14830367307
14830377317
14830385190
14830393369
14830401487
14830409543
14830418515
14830427060
14830431455
14830442014
14830446286
14830457578
14830463987
14830472898
14830480527
14830489804
14830497922
14830506528
14830514157
14830519345
14830529294
14830534604
14830541928
14830545773
14830556577
14830566342
14830573972
14830580746
14830586972
14830595517
14830600217
14830609189
14830615231
14830625607
14830633176
14830639828
14830647885
14830654599
14830661008
14830668576
14830677548
14830685177
14830692563
14830699826
14830704220
14830717709
14830724545
14830732480
14830738217
14830745602
14830753109
14830764340
14830770809
14830778012
14830787472
14830793026
14830801632
14830806332
14830816158
14830828488
14830835873
14830844113
14830850948
14830858456
14830865780
14830872494
14830880123
14830888241
14830895626
14830902706
14830910824
14830917232
14830924618
14830933102
14830941036
14830948482
14830956234
14830962581
14830971004
14830977169
14830984737
14830993343
14830999141
14831006344
14831014400
14831023616
14831030758
14831037471
14831044490
14831051815
14831058834
14831066219
14831075984
14831083736
14831090328
14831098445
14831107356
14831113582
14831122798
14831130733
14831138179
14831146541
14831153621
14831161922
14831169856
14831178096
14831186824
14831193477
14831205135
14831213740
14831221553
14831230037
14831234492
14831244380
14831251338
14831260921
14831268489
14831277888
14831284968
14831294612
14831301509
14831308711
14831315730
14831323054
14831331721
14831341182
14831348140
14831356501
14831362849
14831371455
14831376277
14831382075
14831387934
14831394221
14831401911
14831407527
14831411555
14831417536
14831422541
14831428034
14831434016
14831439387
14831444697
14831448969
14831455561
14831464411
14831470881
14831476374
14831483027
14831488215
14831495478
14831501093
14831504267
14831512080
14831518244
14831524592
14831530512
14831535090
14831539728
14831544733
14831550287
14831556452
14831562006
14831569208
14831573359
14831579401
14831584772
14831590326
14831595026
14831602900
14831606012
14831614679
14831618158
14831624933
14831630060
14831636164
14831642023
14831647638
14831653803
14831663385
14831671747
14831678217
14831685541
14831694269
14831701288
14831707819
14831716059
14831725336
14831733576
14831740350
14831748285
14831756830
14831764581
14831768366
14831776483
14831784113
14831794794
14831803278
14831811212
14831817132
14831825250
14831832330
14831838678
14831846429
14831856561
14831864190
14831872064
14831880304
14831887628
14831895196
14831902765
14831910882
14831919061
14831926995
14831934442
14831942193
14831948846
14831956536
14831963006
14831970941
14831979425
14831987481
14831993890
14832001336
14832010369
14832016900
14832023614
14832032342
14832039910
14832047540
14832054925
14832062676
14832069390
14832076226
14832084100
14832090325
14832097771
14832107171
14832115044
14832121941
14832129327
14832136101
14832143365
14832149651
14832158806
14832165215
14832172722
14832181817
14832187493
14832196404
14832204033
14832210686
14832218377
14832225274
14832233330
14832243218
14832249077
14832256401
14832263420
14832271172
14832278740
14832285942
14832295952
14832303704
14832309014
14832316704
14832322746
14832331535
14832337395
14832346977
14832353752
14832359978
14832369438
14832375664
14832384758
14832390739
14832397575
14832405815
14832413505
14832422722
14832430351
14832435844
14832443840
14832451713
14832459465
14832465751
14832477653
14832485344
14832493278
14832500724
14832508903
14832517692
14832525016
14832529899
14832540641
14832549491
14832557548
14832566032
14832572624
14832579887
14832590080
14832594718
14832604667
14832611564
14832618400
14832625907
14832637016
14832643729
14832652641
14832659293
14832667228
14832675101
14832685172
14832692252
14832701713
14832708915
14832718742
14832725394
14832733512
14832741752
14832753043
14832757865
14832767631
14832776603
14832782401
14832790824
14832798026
14832805961
14832814750
14832821402
14832828910
14832835318
14832843497
14832849967
14832859549
14832864005
14832876395
14832884940
14832892569
14832900443
14832906180
14832911917
14832920462
14832929801
14832937247
14832944510
14832952078
14832959219
14832967581
14832973807
14832981314
14832988272
14832997305
14833006338
14833014334
14833018240
14833028433
14833038138
14833048025
14833055472
14833064749
14833071646
14833077139
14833081717
14833086844
14833092398
14833097525
14833105520
14833110220
14833116201
14833121511
14833125845
14833131460
14833137320
14833142691
14833148550
14833153677
14833160147
14833164358
14833170706
14833175527
14833181814
14833187918
14833195974
14833201284
14833206838
14833211538
14833216909
14833221731
14833227468
14833235159
14833246511
14833252187
14833260061
14833265432
14833272207
14833279043
14833284780
14833289175
14833296682
14833301504
14833307485
14833313283
14833319570
14833325674
14833333303
14833342580
14833349233
14833353444
14833363088
14833369985
14833375417
14833385183
14833393300
14833400930
14833409597
14833419423
14833426686
14833433889
14833442067
14833449941
14833457753
14833465871
14833474355
14833482350
14833486806
14833497548
14833504384
14833512258
14833521779
14833526845
14833536366
14833542958
14833550465
14833559438
14833567311
14833574513
14833582509
14833589467
14833598073
14833607533
14833615224
14833622243
14833629384
14833636769
14833643971
14833651234
14833659291
14833667164
14833672352
14833682484
14833689442
14833698781
14833705738
14833713307
14833721241
14833729359
14833737599
14833745533
14833752003
14833760426
14833768788
14833776661
14833780873
14833791310
14833799366
14833808888
14833814747
14833823841
14833830006
14833837574
14833844349
14833851490
14833860951
14833868458
14833875904
14833883594
14833890247
14833898243
14833905628
14833912464
14833919788
14833928028
14833936024
14833942615
14833950794
14833957752
14833965259
14833971058
14833980274
14833989429
14833997242
14834003711
14834009998
14834018970
14834024952
14834033557
14834040638
14834048145
14834056324
14834064746
14834072742
14834080188
14834086597
14834094043
14834102771
14834110156
14834117664
14834125476
14834133045
14834139392
14834151843
14834162708
14834171619
14834184741
14834196643
14834208057
14834219165
14834229236
14834239184
14834259814
14834269519
14834278979
14834288806
14834300280
14834308398
14834319812
14834332629
14834341174
14834349902
14834356921
14834366503
14834376574
14834385790
14834395434
14834405016
14834413744
14834424670
14834434496
14834444384
14834452441
14834461596
14834470690
14834482348
14834491869
14834501391
14834513415
14834522875
14834536730
14834545092
14834557482
14834567614
14834578173
14834590441
14834601061
14834609972
14834623217
14834630602
14834644274
14834655687
14834665209
14834675951
14834685228
14834699388
14834708544
14834718919
14834731676
14834742235
14834750902
14834761766
14834771593
14834785081
14834795213
14834804552
14834817674
14834827257
14834840501
14834848680
14834859361
14834871751
14834882066
14834892930
14834906358
14834918077
14834928025
14834937669
14834950059
14834960313
14834969956
14834981065
14834990952
14835005235
14835014329
14835024644
14835029954
14835042283
14835052781
14835061326
14835068711
14835078538
14835086533
14835095689
14835104539
14835113755
14835124680
14835138901
14835146714
14835156846
14835165452
14835174363
14835182663
14835190232
14835198410
14835205857
14835217453
14835225266
14835233994
14835241379
14835248581
14835256211
14835263535
14835270981
14835279038
14835287522
14835295883
14835304978
14835313461
14835321945
14835329636
14835339035
14835345993
14835355087
14835361801
14835371262
14835379257
14835386154
14835395187
14835405929
14835416611
14835426620
14835437851
14835446640
14835457748
14835467453
14835475937
14835484848
14835495224
14835502975
14835513107
14835523666
14835534225
14835543502
14835553695
14835562789
14835572677
14835581405
14835590438
14835599166
14835609420
14835619796
14835629195
14835635726
14835644332
14835648910
14835655990
14835662887
14835668807
14835676925
14835683272
14835688644
14835696029
14835702437
14835709151
14835714950
14835722213
14835729232
14835736739
14835742660
14835749312
14835754928
14835760543
14835767684
14835774032
14835781478
14835787764
14835793074
14835798934
14835805526
14835812789
14835818831
14835827010
14835832259
14835840682
14835848860
14835855757
14835864180
14835872115
14835880965
14835888045
14835895857
14835903243
14835908980
14835917281
14835922835
14835931624
14835938460
14835947493
14835952620
14835961653
14835967268
14835975996
14835981673
14835990828
14835997786
14836005965
14836012312
14836018538
14836025374
14836033369
14836040388
14836049116
14836055708
14836065657
14836072981
14836080000
14836089338
14836095808
14836105268
14836112837
14836119734
14836128218
14836134931
14836143171
14836149763
14836157392
14836164167
14836173139
14836179853
14836188886
14836195722
14836203352
14836212019
14836218733
14836225752
14836233625
14836241926
14836247480
14836255598
14836262678
14836271711
14836278852
14836286054
14836294721
14836303876
14836310895
14836317792
14836325544
14836334638
14836342206
14836349531
14836358930
14836366620
14836374860
14836382673
14836391706
14836402814
14836410810
14836418927
14836429181
14836439618
14836447309
14836454694
14836462995
14836471112
14836478864
14836483930
14836494611
14836502057
14836510175
14836518475
14836526898
14836535626
14836543805
14836548199
14836557965
14836564679
14836574261
14836581952
14836590436
14836598920
14836607281
14836612347
14836622906
14836629559
14836637799
14836647564
14836654950
14836663006
14836671490
14836678814
14836685345
14836693524
14836702740
14836710858
14836715191
14836725811
14836732586
14836742596
14836749127
14836757794
14836765118
14836773785
14836781353
14836787396
14836797222
14836804913
14836809490
14836817303
14836822979
14836828472
14836834148
14836838421
14836843975
14836849285
14836855144
14836860699
14836865948
14836871136
14836876812
14836882549
14836888470
14836893658
14836899456
14836904705
14836911419
14836915447
14836922039
14836927044
14836933086
14836937481
14836945476
14836950298
14836956279
14836963054
14836968059
14836975139
14836981060
14836987224
14836993267
14836998516
14837005962
14837010784
14837017070
14837024395
14837029827
14837035503
14837041484
14837045635
14837053508
14837059917
14837064983
14837071147
14837076702
14837081340
14837086528
14837096538
14837104839
14837110393
14837120647
14837126628
14837136455
14837144817
14837150798
14837157390
14837168559
14837175639
14837183513
14837189189
14837197795
14837204082
14837211589
14837218547
14837229289
14837236674
14837244365
14837251079
14837257426
14837266520
14837272197
14837279948
14837288493
14837296794
14837304423
14837311808
14837318888
14837327189
14837334574
14837342509
14837350444
14837358378
14837365336
14837372904
14837378947
14837385600
14837394816
14837401957
14837409220
14837418070
14837425517
14837433878
14837440897
14837449198
14837456278
14837462565
14837471842
14837480570
14837488016
14837495402
14837502909
14837508463
14837515848
14837523905
14837531901
14837541788
14837549540
14837557108
14837565348
14837572977
14837580362
14837587198
14837592020
14837602518
14837610697
14837617044
14837626993
14837635660
14837640787
14837647684
14837656290
14837663431
14837670938
14837679971
14837685648
14837694193
14837701334
14837708414
14837715250
14837722513
14837732767
14837740030
14837745401
14837753275
14837762003
14837769327
14837773172
14837782693
14837792764
14837799112
14837806497
14837813882
14837819742
14837828836
14837836954
14837844217
14837851297
14837859842
14837866067
14837873697
14837882669
14837888101
14837897012
14837904397
14837911599
14837918740
14837928445
14837934426
14837942422
14837949380
14837956643
14837963906
14837971841
14837980691
14837988503
14837996072
14838004556
14838013589
14838021767
14838028603
14838035928
14838043130
14838051614
14838059426
14838064187
14838074074
14838078957
14838089394
14838096474
14838106484
14838115273
14838121743
14838131630
14838137917
14838144936
14838153908
14838160622
14838168740
14838177285
14838184853
14838191201
14838201760
14838207558
14838217629
14838224831
14838231789
14838241982
14838249550
14838255409
14838264687
14838269692
14838278847
14838285011
14838292763
14838302162
14838309914
14838316811
14838324196
14838330910
14838338966
14838344887
14838355202
14838364479
14838373024
14838381691
14838388405
14838397194
14838405311
14838412025
14838420448
14838427528
14838438453
14838445167
14838452430
14838459572
14838467567
14838475197
14838484352
14838491737
14838499183
14838508400
14838515235
14838520179
14838526405
14838531532
14838539039
14838545997
14838553199
14838557594
14838562538
14838567481
14838573707
14838577552
14838584632
14838590553
14838595435
14838601234
14838607398
14838612891
14838617835
14838622840
14838628822
14838635780
14838640907
14838645606
14838651954
14838656348
14838662818
14838668006
14838673560
14838679237
14838684669
14838689429
14838694617
14838699500
14838705848
14838711341
14838716590
14838721900
14838727271
14838733069
14838738013
14838745398
14838749732
14838756507
14838761329
14838766272
14838772620
14838782019
14838793738
14838801612
14838810096
14838816687
14838827307
14838834265
14838842078
14838849036
14838856787
14838868140
14838882300
14838890723
14838897192
14838905798
14838914649
14838922400
14838930518
14838940771
14838948523
14838956152
14838962195
14838970496
14838977637
14838984167
14838991797
14839004187
14839013586
14839021582
14839028418
14839036902
14839043738
14839049597
14839057837
14839064306
14839070837
14839077612
14839085424
14839093115
14839098974
14839106482
14839114660
14839122473
14839128637
14839138891
14839145605
14839153173
14839159704
14839167333
14839175146
14839182470
14839188574
14839194555
14839201513
14839209203
14839216711
14839224279
14839232153
14839240270
14839248510
14839254491
14839262487
14839269689
14839276769
14839284337
14839291418
14839298986
14839307287
14839314672
14839321325
14839329198
14839336522
14839343664
14839353734
14839361791
14839367528
14839376928
14839384313
14839391881
14839398839
14839405858
14839415136
14839422643
14839428624
14839436620
14839443639
14839451146
14839459386
14839466344
14839474095
14839481908
14839489354
14839496434
14839502660
14839510106
14839518163
14839525487
14839533727
14839542210
14839549840
14839558018
14839565709
14839573827
14839581517
14839589451
14839598607
14839605992
14839612095
14839619786
14839626866
14839634129
14839641209
14839648655
14839657078
14839665135
14839673253
14839680149
14839686497
14839695652
14839701512
14839709019
14839718479
14839725621
14839733006
14839740269
14839748936
14839755955
14839763279
14839770115
14839778294
14839785618
14839793430
14839799900
14839806614
14839814304
14839823948
14839831272
14839840244
14839850193
14839860691
14839866733
14839874363
14839880588
14839888584
14839898533
14839907017
14839915806
14839923923
14839929844
14839937595
14839946079
14839954014
14839962131
14839969211
14839976474
14839983615
14839991611
14840000217
14840008335
14840016574
14840026096
14840032688
14840041355
14840049777
14840055759
14840063877
14840071689
14840079074
14840086643
14840093540
14840100925
14840107883
14840117343
14840125034
14840132663
14840140231
14840147128
14840151401
14840160129
14840165622
14840169772
14840176669
14840182651
14840187655
14840194125
14840198825
14840203952
14840210483
14840215671
14840221042
14840226352
14840233676
14840238437
14840247043
14840252169
14840258883
14840263522
14840271701
14840277621
14840283969
14840288424
14840295687
14840299899
14840305270
14840311618
14840318820
14840323092
14840330844
14840335055
14840342379
14840348361
14840354403
14840359652
14840365817
14840370760
14840375887
14840381442
14840386752
14840392733
14840399691
14840403964
14840410860
14840415743
14840426608
14840435091
14840441073
14840450777
14840460116
14840467196
14840474642
14840484591
14840491244
14840501314
14840509005
14840518587
14840524325
14840533236
14840540072
14840547152
14840554537
14840561861
14840569857
14840577608
14840584566
14840592623
14840601412
14840609713
14840617769
14840625826
14840634676
14840642610
14840649141
14840658968
14840665560
14840673616
14840682100
14840690157
14840697542
14840705476
14840715059
14840722566
14840730501
14840738008
14840745393
14840753267
14840760164
14840768770
14840779329
14840785493
14840794527
14840802400
14840810884
14840816560
14840825044
14840832612
14840843293
14840851228
14840858369
14840866060
14840872163
14840879731
14840888887
14840896882
14840906953
14840913545
14840922517
14840930757
14840937654
14840945771
14840952241
14840961762
14840968049
14840976716
14840984651
14840994782
14841002046
14841012116
14841018830
14841026643
14841037873
14841045869
14841052338
14841059907
14841068635
14841076813
14841082978
14841090363
14841100373
14841110077
14841115754
14841123566
14841132050
14841139374
14841145478
14841154633
14841161957
14841171601
14841177704
14841186554
14841194733
14841202118
14841208039
14841214508
14841225922
14841236115
14841244843
14841252289
14841258515
14841265900
14841271637
14841279389
14841289154
14841296906
14841303436
14841312103
14841318024
14841326508
14841332428
14841340301
14841349823
14841359589
14841366730
14841374359
14841380463
14841387237
14841396026
14841404449
14841411102
14841421051
14841427276
14841436676
14841442901
14841450714
14841459991
14841467559
14841474395
14841483490
14841489898
14841499542
14841505523
14841514556
14841520355
14841528106
14841535308
14841546966
14841551422
14841561614
14841567413
14841575469
14841583526
14841591522
14841599029
14841611724
14841619415
14841627105
14841634612
14841640288
14841648223
14841655547
14841661773
14841672454
14841678863
14841689422
14841693755
14841703948
14841712432
14841719878
14841729094
14841738982
14841746489
14841754180
14841760894
14841768645
14841776763
14841784514
14841789214
14841801177
14841805693
14841815215
14841821318
14841830351
14841834441
14841840483
14841845610
14841852385
14841858916
14841865935
14841871306
14841877837
14841883269
14841888579
14841894011
14841900664
14841905364
14841911467
14841917815
14841922209
14841929472
14841935637
14841941313
14841946379
14841953154
14841957854
14841964201
14841969572
14841975065
14841980376
14841985441
14841992338
14841998381
14842003630
14842009123
14842014189
14842021452
14842028410
14842033232
14842039885
14842043852
14842050444
14842056303
14842062162
14842070097
14842076323
14842081816
14842087553
14842093168
14842098417
14842105131
14842115019
14842123564
14842131132
14842139311
14842146574
14842154753
14842161222
14842167997
14842178251
14842185209
14842195524
14842202238
14842212064
14842219755
14842227323
14842236234
14842244291
14842252775
14842263029
14842270841
14842278409
14842286222
14842293790
14842302030
14842310209
14842318754
14842327482
14842335599
14842343045
14842349698
14842357206
14842365384
14842373136
14842381192
14842389066
14842397611
14842405423
14842411954
14842419339
14842427274
14842434842
14842442838
14842451322
14842460294
14842468228
14842475308
14842482999
14842491238
14842498746
14842507169
14842515408
14842522794
14842530301
14842538846
14842547147
14842555081
14842563504
14842571133
14842581326
14842588284
14842595730
14842603665
14842611355
14842617581
14842625149
14842635037
14842642788
14842649075
14842657315
14842665676
14842673123
14842680874
14842685513
14842694668
14842704922
14842712612
14842720120
14842727322
14842735684
14842742275
14842751858
14842757778
14842766506
14842774929
14842782253
14842790127
14842797634
14842803738
14842810513
14842819912
14842830105
14842838467
14842844082
14842852810
14842860256
14842865993
14842874660
14842882717
14842891262
14842899746
14842907741
14842911953
14842922573
14842931179
14842936245
14842945827
14842954372
14842961147
14842967861
14842975063
14842982387
14842992275
14842998195
14843007778
14843014553
14843021633
14843029567
14843036708
14843044948
14843052760
14843061244
14843071315
14843078761
14843086696
14843094936
14843102565
14843109584
14843117152
14843124416
14843132655
14843141383
14843148341
14843153651
14843163356
14843168788
14843177333
14843185695
14843194118
14843204005
14843212489
14843219508
14843227382
14843235560
14843243495
14843251063
14843257533
14843267909
14843274195
14843282313
14843290248
14843298121
14843306178
14843313319
14843321620
14843330042
14843338770
14843345973
14843354090
14843360621
14843369044
14843375636
14843384608
14843391383
14843401087
14843407374
14843414698
14843422572
14843431666
14843438929
14843446680
14843455103
14843463221
14843470545
14843479151
14843488611
14843495264
14843504358
14843510889
14843520716
14843526087
14843532618
14843538599
14843541102
14843548914
14843553064
14843559473
14843567591
14843573877
14843577906
14843583826
14843589502
14843593592
14843598841
14843604578
14843612329
14843618067
14843624842
14843630640
14843636377
14843639368
14843647791
14843654077
14843659937
14843664819
14843672022
14843677271
14843682947
14843688196
14843693567
14843700769
14843708582
14843713525
14843720300
14843725122
14843731348
14843736902
14843742883
14843749109
14843755090
14843761560
14843768152
14843773645
14843776941
14843784021
14843790613
14843796411
14843802881
14843811181
14843817651
14843825891
14843832361
14843840478
14843848657
14843858056
14843865869
14843873742
14843883508
14843890466
14843899804
14843905725
14843914208
14843924096
14843931542
14843939660
14843948022
14843954369
14843964379
14843973779
14843982140
14843991052
14843999841
14844006432
14844016442
14844023034
14844030358
14844039269
14844045739
14844056054
14844063378
14844071129
14844080224
14844087731
14844094689
14844102868
14844109398
14844119896
14844127282
14844135277
14844142479
14844149804
14844158532
14844166344
14844173424
14844179833
14844189110
14844196617
14844202660
14844211632
14844217552
14844225243
14844231957
14844239830
14844246910
14844254906
14844263939
14844270653
14844279442
14844285179
14844293785
14844300804
14844308128
14844315514
14844324852
14844330711
14844338951
14844345848
14844353233
14844362877
14844368919
14844377647
14844385643
14844393150
14844400841
14844408165
14844415611
14844421531
14844429771
14844438072
14844445213
14844451133
14844459495
14844465477
14844472801
14844481651
14844488365
14844497764
14844504722
14844514488
14844522178
14844528343
14844535240
14844544822
14844554893
14844562949
14844572959
14844580039
14844590232
14844596824
14844605613
14844611533
14844618186
14844627463
14844635093
14844642051
14844650046
14844657615
14844666160
14844675254
14844681357
14844691184
14844698813
14844705954
14844714133
14844723166
14844728659
14844737693
14844745322
14844753196
14844761924
14844769187
14844777121
14844786277
14844793723
14844800742
14844807700
14844814414
14844824484
14844833640
14844841208
14844848349
14844855063
14844862204
14844869650
14844877036
14844886679
14844896506
14844902365
14844909811
14844917929
14844925619
14844933310
14844940756
14844948080
14844957846
14844963400
14844971640
14844978903
14844990317
14844998373
14845006308
14845014731
14845022543
14845029318
14845036764
14845045370
14845053244
14845059530
14845066854
14845074911
14845083456
14845091391
14845096334
14845105368
14845111044
14845119467
14845126058
14845135702
14845143942
14845151022
14845159139
14845166219
14845172750
14845180074
14845188741
14845194784
14845203756
14845212240
14845222677
14845233785
14845239095
14845244588
14845253622
14845257101
14845264791
14845270589
14845275960
14845280599
14845286153
14845293172
14845299032
14845304586
14845310933
14845316671
14845324239
14845331075
14845336934
14845344014
14845349446
14845355733
14845361837
14845367513
14845373433
14845380452
14845385335
14845391927
14845398030
14845405538
14845411580
14845418294
14845423238
14845428487
14845435079
14845440206
14845446065
14845451497
14845460713
14845467244
14845472981
14845481892
14845487752
14845493184
14845501485
14845508748
14845514363
14845521565
14845526143
14845531941
14845539571
14845548848
14845555867
14845565083
14845571309
14845580952
14845586934
14845595967
14845601887
14845609395
14845619038
14845626057
14845636189
14845643757
14845650166
14845655903
14845664509
14845671345
14845680500
14845689411
14845695759
14845703083
14845709736
14845716755
14845725483
14845732624
14845742329
14845749348
14845758686
14845765522
14845772297
14845779194
14845788044
14845794819
14845804462
14845811481
14845820820
14845827534
14845836262
14845842853
14845849995
14845857929
14845865009
14845874347
14845881672
14845887592
14845897358
14845905109
14845912494
14845918964
14845929706
14845940204
14845947956
14845954303
14845962543
14845971027
14845978778
14845985614
14845993244
14846001361
14846009479
14846017291
14846025348
14846033527
14846041889
14846051105
14846058490
14846067035
14846074847
14846082355
14846089740
14846096820
14846104510
14846111285
14846118732
14846128436
14846136493
14846143878
14846151446
14846158710
14846164691
14846173236
14846180743
14846190509
14846198199
14846204364
14846212115
14846219928
14846227374
14846233844
14846242327
14846252948
14846261615
14846265704
14846275836
14846283648
14846291339
14846298663
14846306353
14846315386
14846323382
14846331317
14846338885
14846346697
14846354571
14846360674
14846369769
14846376910
14846385760
14846392107
14846401324
14846410174
14846418413
14846430498
14846438494
14846447100
14846453020
14846458880
14846469561
14846477068
14846485247
14846494219
14846498858
14846510210
14846517901
14846524187
14846531206
14846538164
14846546526
14846555254
14846561541
14846568560
14846576982
14846586199
14846591936
14846601091
14846608293
14846615373
14846622087
14846629411
14846638262
14846646013
14846653154
14846660661
14846668840
14846674455
14846680376
14846689165
14846695757
14846706499
14846714372
14846722185
14846727922
14846733964
14846742692
14846750017
14846757158
14846764177
14846773393
14846781206
14846788286
14846793779
14846803361
14846809282
14846816972
14846825334
14846833696
14846841935
14846850053
14846857255
14846863114
14846871415
14846878678
14846884965
14846893998
14846900468
14846909196
14846914994
14846922746
14846929948
14846937455
14846946916
14846951798
14846958390
14846962968
14846969437
14846974442
14846979142
14846984147
14846989335
14846994523
14847002518
14847007706
14847013139
14847019669
14847026383
14847033341
14847041154
14847047135
14847052018
14847059342
14847063675
14847070817
14847075577
14847081376
14847086991
14847094010
14847099198
14847105240
14847111161
14847114884
14847120682
14847125687
14847130509
14847136856
14847142289
14847148636
14847154068
14847158707
14847164078
14847170243
14847176102
14847180619
14847186844
14847192520
14847197952
14847202591
14847208573
14847214249
14847220291
14847223892
14847231949
14847237381
14847246842
14847255570
14847262894
14847268753
14847274918
14847284561
14847291946
14847301346
14847308487
14847315201
14847323013
14847329727
14847337234
14847344620
14847352493
14847360489
14847367386
14847375198
14847382828
14847390152
14847396743
14847404678
14847415176
14847423416
14847427200
14847437820
14847443801
14847450576
14847459732
14847465286
14847474502
14847482009
14847489822
14847500442
14847507095
14847517532
14847521865
14847534438
14847539321
14847553603
14847561721
14847569961
14847579055
14847588638
14847596572
14847606460
14847614516
14847621841
14847628982
14847635757
14847644179
14847651259
14847656753
14847666274
14847676406
14847683791
14847690200
14847697646
14847704482
14847711806
14847721511
14847727309
14847736831
14847745559
14847754103
14847762160
14847771559
14847781508
14847790053
14847798476
14847806410
14847814528
14847822402
14847830641
14847838759
14847846327
14847853285
14847859450
14847868727
14847876784
14847883253
14847892470
14847900221
14847907606
14847913405
14847920363
14847929396
14847936537
14847943861
14847957289
14847963392
14847969862
14847979139
14847986952
14847994215
14848005568
14848012159
14848019606
14848026503
14848032972
14848040602
14848048353
14848055860
14848065199
14848073377
14848080458
14848087965
14848096144
14848103529
14848110731
14848118604
14848126173
14848133985
14848140272
14848148756
14848154615
14848162550
14848169447
14848176710
14848185804
14848194776
14848201124
14848208875
14848217847
14848223768
14848232435
14848239881
14848247327
14848254712
14848262220
14848270093
14848276868
14848282667
14848290662
14848299024
14848306592
14848314588
14848322461
14848328382
14848337293
14848344983
14848350049
14848359204
14848364759
14848373853
14848380994
14848388379
14848397107
14848404370
14848411817
14848418530
14848423779
14848433911
14848441724
14848449658
14848456555
14848464673
14848471570
14848481580
14848488843
14848496106
14848504712
14848510388
14848519421
14848525342
14848533703
14848542004
14848548169
14848556958
14848564099
14848574658
14848581311
14848588452
14848597241
14848602917
14848611889
14848619091
14848626538
14848636914
14848644238
14848652294
14848659008
14848666027
14848670788
14848675305
14848680981
14848689465
14848694409
14848698620
14848704357
14848708386
14848714184
14848718151
14848723705
14848730358
14848736462
14848741467
14848746594
14848753185
14848756786
14848762096
14848767773
14848775036
14848780407
14848786083
14848792980
14848797802
14848802868
14848809887
14848815685
14848820568
14848826794
14848830883
14848836864
14848840954
14848847057
14848853771
14848859508
14848865734
14848870678
14848875255
14848881481
14848887096
14848894420
14848900768
14848907116
14848912914
14848918041
14848924572
14848929882
14848934642
14848940746
14848947704
14848955455
14848961681
14848966686
14848971263
14848976757
14848981700
14848987804
14848996410
14849001720
14849007030
14849013316
14849017284
14849023876
14849029552
14849036144
14849043468
14849050792
14849056529
14849063731
14849068004
14849075023
14849080516
14849086742
14849093639
14849100719
14849106151
14849113353
14849118907
14849125499
14849130870
14849137950
14849144176
14849151011
14849159251
14849166270
14849171946
14849177745
14849183848
14849189525
14849196055
14849200633
14849207408
14849211680
14849217540
14849222972
14849229930
14849235911
14849241099
14849247081
14849253001
14849257518
14849263316
14849267710
14849273936
14849278636
14849283702
14849290354
14849295542
14849301646
14849306895
14849311656
14849316233
14849321543
14849326548
14849332774
14849339671
14849343699
14849350230
14849354441
14849360484
14849365611
14849371104
14849377634
14849385142
14849389475
14849394968
14849399912
14849405955
14849411570
14849417002
14849420176
14849427927
14849433237
14849439524
14849444529
14849450144
14849457041
14849461802
14849466929
14849475046
14849480295
14849484446
14849491892
14849496470
14849501780
14849507639
14849513376
14849519236
14849525278
14849530893
14849536509
14849542307
14849546335
14849550791
14849557016
14849565134
14849570627
14849577646
14849584055
14849588083
14849594248
14849598825
14849603891
14849609201
14849616342
14849622141
14849627390
14849632700
14849638071
14849644235
14849651254
14849656870
14849663217
14849668466
14849671518
14849678659
14849684518
14849690012
14849696725
14849703317
14849711130
14849716928
14849723764
14849730112
14849734811
14849742319
14849748239
14849757150
14849762460
14849769357
14849773752
14849779062
14849784677
14849790780
14849796029
14849803903
14849809823
14849814523
14849821725
14849826852
14849835885
14849841806
14849847299
14849854867
14849860604
14849865792
14849871285
14849877633
14849883798
14849888436
14849893929
14849901559
14849907296
14849913217
14849919198
14849924569
14849932443
14849938180
14849945260
14849950692
14849956063
14849963082
14849969186
14849974007
14849980355
14849987008
14849993844
14849999581
14850006539
14850012032
14850018380
14850024056
14850030343
14850037850
14850043954
14850050484
14850057747
14850062996
14850066964
14850073861
14850078255
14850083992
14850090462
14850094368
14850101326
14850107308
14850113350
14850118782
14850121773
14850128609
14850133553
14850140633
14850145211
14850151924
14850158699
14850163948
14850168404
14850174996
14850178963
14850184273
14850191475
14850197090
14850203316
14850208748
14850214241
14850220284
14850224617
14850229866
14850235176
14850242806
14850248726
14850254036
14850259102
14850263985
14850268990
14850274544
14850281563
14850288948
14850296577
14850303718
14850310860
14850321419
14850326057
14850337410
14850347297
14850359077
14850368477
14850375862
14850382087
14850393928
14850404060
14850409065
14850418953
14850427925
14850434578
14850443611
14850451789
14850461189
14850469062
14850481147
14850486701
14850496833
14850504646
14850509834
14850518440
14850522285
14850533027
14850540046
14850546088
14850553840
14850559882
14850568305
14850576789
14850585090
14850591621
14850596198
14850605048
14850611579
14850620673
14850626777
14850635261
14850639716
14850651008
14850657844
14850663398
14850671943
14850680671
14850686774
14850693427
14850700629
14850708564
14850715827
14850721625
14850728461
14850734137
14850744635
14850750800
14850757086
14850765631
14850770514
14850778693
14850787970
14850795844
14850801215
14850809638
14850813849
14850823615
14850830328
14850836737
14850845465
14850854742
14850860724
14850867072
14850875555
14850882880
14850888678
14850896551
14850904059
14850908636
14850916205
14850924017
14850932135
14850938544
14850947577
14850955572
14850961676
14850967474
14850973517
14850983465
14850991339
14850999273
14851004889
14851012518
14851016729
14851023626
14851033270
14851040289
14851048223
14851055181
14851062750
14851070196
14851075872
14851082037
14851090154
