15276594680
15276599746
15276604812
15276609146
15276613784
15276618545
15276623489
15276628494
15276633438
15276637832
15276642837
15276647842
15276652297
15276657791
15276663406
15276668655
15276673232
15276678542
15276685928
15276691665
15276696121
15276701309
15276706680
15276710830
15276715774
15276721084
15276726150
15276730605
15276735610
15276740127
15276744949
15276749282
15276755019
15276759231
15276764907
15276769179
15276773452
15276778457
15276782973
15276787673
15276792556
15276803359
15276808303
15276812270
15276815871
15276822646
15276826735
15276830153
15276834243
15276838576
15276842605
15276846450
15276850051
15276854079
15276859450
15276863479
15276867507
15276872145
15276877761
15276882216
15276886855
15276891982
15276898085
15276904189
15276911513
15276915480
15276924269
15276930617
15276936232
15276942275
15276949782
15276954726
15276961440
15276967482
15276974135
15276980238
15276985793
15276991530
15276998366
15277003005
15277013625
15277019484
15277025526
15277034377
15277040541
15277048109
15277054274
15277061171
15277067091
15277074354
15277080946
15277085951
15277092482
15277098524
15277105849
15277111525
15277118117
15277125013
15277131727
15277138441
15277145826
15277151320
15277158766
15277165175
15277171034
15277178480
15277183851
15277191359
15277200758
15277207167
15277214796
15277220228
15277230177
15277235426
15277242384
15277249464
15277255750
15277265577
15277274000
15277277479
15277285169
15277290052
15277296705
15277304212
15277309705
15277315382
15277320814
15277326795
15277334180
15277339613
15277347547
15277353345
15277359388
15277366285
15277372877
15277376600
15277384839
15277393201
15277400525
15277408094
15277413770
15277419629
15277428174
15277433851
15277442457
15277447950
15277456189
15277462415
15277471143
15277475904
15277483716
15277488538
15277495984
15277499463
15277510511
15277516858
15277527112
15277534558
15277540296
15277548963
15277557385
15277564710
15277572400
15277580823
15277586926
15277596448
15277602124
15277609509
15277617200
15277624463
15277630566
15277636853
15277645215
15277651074
15277659558
15277665662
15277672681
15277676587
15277687085
15277693371
15277704114
15277710583
15277718091
15277726880
15277733349
15277740246
15277749096
15277755261
15277762158
15277769299
15277775769
15277783642
15277789929
15277795727
15277805127
15277811962
15277818554
15277825695
15277832836
15277839550
15277846997
15277852612
15277860241
15277866711
15277876537
15277884472
15277893871
15277900585
15277910046
15277916637
15277927441
15277935070
15277958324
15277968700
15277976879
15277986461
15277992504
15277998241
15278002453
15278008434
15278014477
15278019481
15278023998
15278028820
15278033458
15278037121
15278042980
15278046947
15278052379
15278056530
15278062023
15278065929
15278072948
15278077465
15278084056
15278088146
15278094677
15278100292
15278106945
15278110668
15278115795
15278121471
15278125865
15278131298
15278136119
15278141918
15278147411
15278153209
15278158641
15278163829
15278169994
15278176708
15278182872
15278189281
15278196544
15278201793
15278209483
15278216197
15278223277
15278231090
15278239696
15278243907
15278254527
15278258739
15278267894
15278276561
15278282542
15278291759
15278300609
15278308238
15278317027
15278323802
15278332652
15278339000
15278346507
15278356517
15278362132
15278372630
15278379893
15278390086
15278397044
15278404368
15278411998
15278419566
15278427806
15278436473
15278441111
15278452952
15278461009
15278468455
15278474925
15278484446
15278490733
15278498850
15278505137
15278515208
15278521738
15278530833
15278537669
15278546458
15278554697
15278563120
15278571787
15278578196
15278587046
15278594797
15278603342
15278610483
15278617075
15278622751
15278630747
15278637949
15278645334
15278653208
15278659861
15278666513
15278671640
15278680490
15278686411
15278694529
15278699655
15278708322
15278713755
15278723520
15278729441
15278737314
15278743662
15278751291
15278758249
15278766428
15278772592
15278781931
15278789682
15278799265
15278805490
15278814829
15278822336
15278829050
15278836679
15278843454
15278849374
15278862253
15278869638
15278877084
15278884653
15278891366
15278899240
15278906076
15278912301
15278922006
15278928598
15278938852
15278946176
15278954416
15278960397
15278968576
15278976999
15278983773
15278991769
15278999093
15279006784
15279013497
15279021920
15279028756
15279037423
15279043832
15279053658
15279060616
15279067452
15279075082
15279083688
15279088693
15279097604
15279106332
15279113534
15279121468
15279128182
15279132027
15279143563
15279147469
15279158517
15279164437
15279174142
15279197762
15279206002
15279214974
15279225716
15279234993
15279242135
15279248360
15279254586
15279262459
15279269783
15279277047
15279283944
15279291329
15279298775
15279307137
15279314766
15279323067
15279331368
15279341927
15279351387
15279360970
15279370979
15279378548
15279385079
15279391975
15279397408
15279406502
15279412117
15279422798
15279429085
15279437263
15279440926
15279451118
15279458015
15279464180
15279471992
15279480476
15279484443
15279494880
15279502937
15279509651
15279513130
15279524055
15279527595
15279537727
15279544197
15279549934
15279557197
15279563911
15279571357
15279579231
15279585578
15279593574
15279601264
15279608284
15279612922
15279621467
15279627448
15279635627
15279639900
15279647041
15279650825
15279656867
15279661323
15279668159
15279672614
15279679633
15279685676
15279691474
15279696784
15279701667
15279704414
15279713447
15279716376
15279723579
15279728400
15279735603
15279739204
15279746772
15279751960
15279759162
15279763862
15279769660
15279776496
15279782661
15279788947
15279796088
15279801276
15279806098
15279812140
15279817023
15279823859
15279827826
15279834479
15279838508
15279845343
15279850592
15279856391
15279859198
15279867987
15279871100
15279879218
15279884589
15279889899
15279895758
15279900702
15279907172
15279912970
15279918341
15279924384
15279929877
15279939581
15279946845
15279954413
15279961798
15279966254
15279976569
15279983832
15279994513
15280003729
15280013007
15280019537
15280028693
15280036200
15280047369
15280056769
15280063727
15280070624
15280081488
15280088629
15280093268
15280106207
15280113348
15280121100
15280127935
15280137579
15280143988
15280157110
15280161444
15280171331
15280177801
15280188116
15280195013
15280202948
15280212103
15280220342
15280229498
15280236151
15280244573
15280250860
15280260992
15280268743
15280276739
15280284368
15280292242
15280298711
15280308111
15280317022
15280325567
15280331976
15280341192
15280348333
15280356817
15280365362
15280371709
15280381292
15280388555
15280396184
15280404546
15280411992
15280418523
15280429937
15280438848
15280446416
15280452947
15280461309
15280469487
15280478154
15280487188
15280495732
15280502324
15280511602
15280520268
15280528508
15280535100
15280544377
15280551763
15280560307
15280568669
15280574956
15280583684
15280590642
15280598271
15280606206
15280615910
15280624455
15280633794
15280638127
15280649907
15280656010
15280664555
15280668522
15280680485
15280688054
15280695439
15280704106
15280711613
15280719426
15280729130
15280733403
15280746647
15280754643
15280762394
15280771550
15280779484
15280788456
15280796147
15280804081
15280813969
15280822453
15280829960
15280834599
15280846440
15280854496
15280861881
15280868290
15280879826
15280889164
15280899845
15280903690
15280914738
15280921757
15280928898
15280938785
15280947941
15280955936
15280962223
15280971134
15280978031
15280986088
15280994938
15281000797
15281010318
15281019169
15281027164
15281033390
15281041385
15281050052
15281057865
15281065189
15281073368
15281079837
15281088871
15281096805
15281104984
15281112369
15281119998
15281126529
15281134769
15281142948
15281150638
15281157840
15281165592
15281172427
15281180057
15281188602
15281195194
15281204227
15281213016
15281221255
15281229983
15281236880
15281245792
15281255008
15281264102
15281272769
15281280459
15281288882
15281296634
15281304385
15281310916
15281319217
15281328067
15281337161
15281345340
15281354007
15281360720
15281369815
15281378604
15281387393
15281394717
15281404055
15281412234
15281419253
15281426028
15281432803
15281437869
15281445498
15281452639
15281458254
15281464541
15281470034
15281473147
15281481814
15281486575
15281494143
15281499148
15281505862
15281511233
15281517214
15281522951
15281528445
15281534609
15281540530
15281544985
15281553286
15281558230
15281565249
15281569887
15281577273
15281580568
15281588503
15281593569
15281600893
15281604006
15281611635
15281616701
15281627077
15281633547
15281641481
15281645205
15281652773
15281657045
15281665956
15281670656
15281678591
15281681826
15281689699
15281696474
15281701967
15281707277
15281713808
15281718386
15281726808
15281732546
15281741640
15281749880
15281758913
15281765566
15281775270
15281782533
15281790285
15281799257
15281806886
15281815858
15281825014
15281831483
15281840883
15281850343
15281857057
15281864747
15281874330
15281883851
15281890260
15281899110
15281906495
15281914796
15281924440
15281932985
15281942140
15281949342
15281959047
15281967408
15281977723
15281985658
15281994386
15282001893
15282010743
15282019654
15282028443
15282035218
15282043946
15282052247
15282060792
15282067933
15282077943
15282086549
15282093079
15282100220
15282109742
15282116334
15282125855
15282135133
15282143983
15282154114
15282160828
15282170594
15282177186
15282185914
15282194397
15282203003
15282210633
15282222535
15282228943
15282238892
15282245545
15282254517
15282263062
15282270142
15282280579
15282286438
15282296204
15282303650
15282313355
15282320313
15282329956
15282336548
15282346131
15282353516
15282362732
15282371948
15282379883
15282387268
15282396912
15282403809
15282413391
15282424560
15282434509
15282441711
15282450256
15282457947
15282467041
15282475097
15282484436
15282492431
15282502502
15282508423
15282517578
15282526855
15282533508
15282542724
15282551452
15282559753
15282566162
15282575317
15282583862
15282590576
15282600158
15282606323
15282615844
15282622253
15282631957
15282640075
15282650573
15282657714
15282666259
15282672485
15282681640
15282688110
15282697265
15282705505
15282713500
15282721679
15282729797
15282737670
15282746459
15282755492
15282763549
15282771056
15282779906
15282787902
15282796630
15282804076
15282813475
15282822814
15282830870
15282838439
15282846251
15282852843
15282861266
15282868895
15282877562
15282886717
15282893004
15282901793
15282910582
15282918822
15282927794
15282936705
15282943114
15282953856
15282961485
15282971129
15282979369
15282986876
15282994810
15283004576
15283013426
15283020933
15283029356
15283036864
15283045470
15283052916
15283061156
15283071348
15283080382
15283089903
15283097838
15283107298
15283114134
15283122862
15283131041
15283140257
15283151731
15283158323
15283167356
15283176207
15283183409
15283192198
15283202024
15283207762
15283213926
15283219297
15283225767
15283230039
15283237669
15283243345
15283251524
15283255857
15283264646
15283268186
15283278013
15283284666
15283290586
15283297239
15283302671
15283306882
15283313474
15283318479
15283323606
15283329465
15283334470
15283340208
15283346677
15283352354
15283358030
15283363584
15283367978
15283373655
15283379819
15283386289
15283391660
15283397519
15283404661
15283410276
15283416501
15283420285
15283427060
15283431272
15283438657
15283443418
15283450376
15283454221
15283461240
15283467893
15283473508
15283480100
15283485959
15283493344
15283499021
15283508908
15283517514
15283525937
15283535336
15283541684
15283551328
15283555661
15283568051
15283572263
15283582516
15283591428
15283598996
15283605588
15283617490
15283626218
15283633847
15283642758
15283650387
15283657345
15283665768
15283672909
15283683774
15283691098
15283699765
15283706723
15283717892
15283724484
15283734433
15283741024
15283749691
15283759274
15283768551
15283774716
15283785031
15283792965
15283802670
15283810482
15283820309
15283827877
15283837093
15283843685
15283853451
15283859615
15283869564
15283876949
15283886898
15283896725
15283912655
15283925167
15283932613
15283942196
15283950863
15283959774
15283969356
15283981930
15283988460
15283998470
15284008846
15284016414
15284027401
15284035335
15284043087
15284049495
15284059505
15284066280
15284075496
15284084529
15284092037
15284100521
15284107356
15284114925
15284123409
15284129817
15284138118
15284147823
15284155025
15284163020
15284170650
15284178645
15284185725
15284194026
15284201533
15284208552
15284216304
15284224422
15284231746
15284237300
15284243159
15284251155
15284259456
15284268977
15284275691
15284283442
15284291987
15284299678
15284307856
15284316096
15284330195
15284338191
15284344172
15284352961
15284358760
15284368342
15284375605
15284384455
15284389582
15284400935
15284408869
15284414912
15284423823
15284432917
15284437739
15284447749
15284460017
15284468134
15284476557
15284483210
15284494074
15284498041
15284508845
15284516230
15284526057
15284533808
15284540583
15284546869
15284556696
15284562922
15284571283
15284577326
15284586176
15284596613
15284604181
15284612360
15284621088
15284629511
15284635126
15284645136
15284651606
15284659967
15284669001
15284674921
15284683222
15284691034
15284697382
15284707392
15284713434
15284722833
15284728632
15284737482
15284744745
15284753168
15284763055
15284770197
15284779535
15284786859
15284795648
15284803705
15284810052
15284820123
15284828058
15284835260
15284842462
15284851129
15284857232
15284866937
15284873041
15284882928
15284889398
15284896661
15284904779
15284911615
15284919427
15284928033
15284934503
15284943048
15284950860
15284957025
15284961846
15284967218
15284974176
15284979302
15284984368
15284990350
15284995843
15285001092
15285006463
15285009881
15285016778
15285021050
15285028253
15285031304
15285038201
15285042718
15285049432
15285054314
15285060113
15285064751
15285072503
15285077447
15285082879
15285089104
15285094842
15285100152
15285106499
15285110833
15285117181
15285121636
15285126946
15285133721
15285138482
15285145318
15285150445
15285157281
15285158745
15285167656
15285172295
15285177788
15285180535
15285187127
15285194085
15285199639
15285205803
15285211297
15285216607
15285221795
15285226677
15285233635
15285239373
15285247673
15285254143
15285264031
15285271050
15285279656
15285286125
15285294670
15285302971
15285312615
15285319634
15285328911
15285336540
15285345390
15285352898
15285357292
15285368217
15285375603
15285386833
15285393669
15285401970
15285410942
15285419670
15285426689
15285434440
15285442253
15285449516
15285461906
15285470024
15285479118
15285487175
15285494377
15285498344
15285512626
15285518852
15285528129
15285535392
15285544975
15285551750
15285558647
15285567558
15285574577
15285578788
15285589225
15285595146
15285604484
15285610587
15285619560
15285625663
15285634940
15285646354
15285653495
15285659354
15285668449
15285674491
15285683524
15285690116
15285699454
15285705863
15285714774
15285722648
15285728995
15285737418
15285744498
15285751822
15285759025
15285768912
15285778312
15285785270
15285793631
15285801810
15285809806
15285817374
15285823966
15285835685
15285842643
15285852835
15285859488
15285868094
15285877310
15285884696
15285891226
15285899771
15285909720
15285917044
15285927908
15285935172
15285942618
15285951529
15285959647
15285963919
15285974722
15285981436
15285991934
15285998587
15286008047
15286016836
15286023733
15286032278
15286041250
15286051016
15286060721
15286069143
15286076956
15286086233
15286092581
15286102469
15286109732
15286119680
15286128225
15286136282
15286144583
15286152395
15286159048
15286167227
15286176443
15286185354
15286194326
15286201528
15286210134
15286218374
15286225454
15286234304
15286240896
15286249929
15286258840
15286268728
15286276296
15286284231
15286292409
15286298940
15286308340
15286316579
15286326162
15286334157
15286343007
15286349355
15286358755
15286366323
15286375295
15286383107
15286391103
15286397146
15286406179
15286412832
15286419728
15286428640
15286435476
15286442250
15286449758
15286459218
15286466664
15286475331
15286479360
15286490285
15286494374
15286506215
15286510488
15286520802
15286531117
15286538258
15286544118
15286553151
15286559071
15286568044
15286574330
15286583241
15286591359
15286599416
15286608144
15286615834
15286622121
15286631276
15286638417
15286648488
15286655202
15286662770
15286672413
15286680104
15286688344
15286695912
15286704396
15286714405
15286722218
15286728871
15286737965
15286746510
15286754383
15286761097
15286769337
15286773915
15286780567
15286785877
15286789967
15286797169
15286802601
15286808094
15286814137
15286819508
15286824635
15286832447
15286838612
15286844410
15286849110
15286855885
15286861500
15286867847
15286872547
15286879322
15286885059
15286891895
15286897144
15286903492
15286909717
15286915089
15286920338
15286925770
15286932484
15286938831
15286945362
15286950001
15286956959
15286962330
15286968494
15286974476
15286979419
15286986133
15286991565
15286998645
15287002552
15287009937
15287014026
15287021900
15287027393
15287033741
15287037769
15287049610
15287056385
15287061145
15287067493
15287073963
15287080005
15287088489
15287094226
15287103259
15287109180
15287118701
15287126758
15287133777
15287141834
15287148669
15287155811
15287164233
15287168445
15287179614
15287183826
15287193896
15287200122
15287208606
15287216540
15287224292
15287230151
15287239001
15287247363
15287255359
15287263537
15287270007
15287278064
15287286792
15287294543
15287302111
15287309924
15287317492
15287323413
15287330981
15287339587
15287345507
15287354724
15287363513
15287372424
15287378222
15287387744
15287395678
15287405078
15287413317
15287422656
15287426562
15287439135
15287443102
15287452868
15287461535
15287468615
15287477770
15287488695
15287493029
15287504687
15287513170
15287521166
15287528246
15287535814
15287544542
15287553576
15287560717
15287569018
15287577684
15287585863
15287593187
15287599596
15287609484
15287618578
15287626085
15287634630
15287641954
15287649034
15287660021
15287666551
15287675463
15287685106
15287691454
15287700670
15287709337
15287715929
15287724413
15287733690
15287739427
15287749315
15287757310
15287766832
15287774156
15287782274
15287789842
15287797716
15287804857
15287813890
15287824327
15287834154
15287841417
15287850755
15287859361
15287866258
15287876695
15287885911
15287896470
15287904466
15287910936
15287918016
15287928086
15287937242
15287943223
15287952134
15287958970
15287967210
15287976365
15287982347
15287991807
15287998826
15288005662
15288014329
15288021287
15288028794
15288037156
15288043748
15288053086
15288059129
15288068406
15288074387
15288084275
15288091355
15288099961
15288106003
15288115830
15288121995
15288131821
15288138047
15288146287
15288154465
15288162644
15288171128
15288179001
15288185044
15288192734
15288200669
15288208969
15288216233
15288224472
15288234177
15288240586
15288251267
15288257797
15288266648
15288273911
15288280808
15288286972
15288297165
15288301804
15288311691
15288318344
15288328720
15288337265
15288343796
15288352707
15288362045
15288370895
15288377975
15288384567
15288392563
15288402695
15288410568
15288418136
15288426620
15288434799
15288442184
15288450485
15288457626
15288466476
15288475509
15288482650
15288491684
15288499984
15288506576
15288514572
15288524459
15288531845
15288539352
15288546615
15288557662
15288567489
15288575057
15288579391
15288588302
15288593124
15288600509
15288605453
15288612106
15288617355
15288623824
15288628524
15288633773
15288642074
15288647323
15288652755
15288659042
15288665206
15288669601
15288676925
15288683089
15288691573
15288696334
15288702193
15288708602
15288715194
15288723861
15288729110
15288731978
15288740157
15288745772
15288751265
15288755782
15288761641
15288766524
15288773665
15288776900
15288784346
15288790633
15288796248
15288800582
15288806319
15288812362
15288817183
15288822798
15288828170
15288834517
15288840010
15288846419
15288852156
15288857405
15288861861
15288868209
15288872664
15288879988
15288886153
15288893721
15288901839
15288909529
15288916914
15288926985
15288932784
15288941756
15288947859
15288955733
15288963850
15288972700
15288980513
15288991194
15288997359
15289005049
15289013106
15289021895
15289028181
15289036604
15289045271
15289054731
15289061079
15289072737
15289079756
15289087080
15289096418
15289103498
15289111677
15289118635
15289126509
15289133284
15289137068
15289148420
15289154646
15289163374
15289169844
15289178205
15289186079
15289192610
15289200422
15289208540
15289215376
15289224043
15289232526
15289238142
15289247846
15289254682
15289264509
15289271955
15289279279
15289288801
15289296613
15289304670
15289312177
15289319074
15289328229
15289334455
15289343793
15289352521
15289360395
15289370038
15289378339
15289384870
15289393964
15289403119
15289409833
15289417585
15289427899
15289438947
15289447309
15289454328
15289461713
15289469281
15289475812
15289486493
15289493939
15289501019
15289507489
15289516705
15289524030
15289533063
15289539288
15289548077
15289554059
15289563824
15289570172
15289578900
15289586713
15289594098
15289600018
15289608319
15289616742
15289624737
15289631085
15289638470
15289647564
15289653607
15289662213
15289667767
15289676373
15289682965
15289692364
15289699994
15289706829
15289715130
15289721905
15289729351
15289736431
15289742535
15289752850
15289757305
15289768109
15289777203
15289785626
15289793011
15289801861
15289810162
15289815716
15289825115
15289833355
15289841045
15289846111
15289855511
15289863262
15289870647
15289878277
15289888042
15289896404
15289904400
15289911968
15289919475
15289926250
15289936199
15289942913
15289952251
15289961590
15289971050
15289977337
15289986614
15289993023
15290000713
15290010418
15290016704
15290026470
15290033733
15290041423
15290048442
15290058635
15290063030
15290074748
15290081279
15290090068
15290097026
15290105571
15290114116
15290122051
15290131328
15290136516
15290146037
15290152995
15290163127
15290171794
15290178874
15290187419
15290194926
15290203471
15290213115
15290221354
15290228801
15290235759
15290243876
15290253886
15290264872
15290271159
15290279521
15290287944
15290296550
15290303752
15290313517
15290321391
15290328105
15290336650
15290342448
15290351786
15290359660
15290367838
15290373393
15290381144
15290385722
15290391886
15290396159
15290402873
15290407694
15290413493
15290420145
15290425700
15290431986
15290437357
15290442057
15290447916
15290452311
15290458903
15290463480
15290471171
15290474467
15290481913
15290487162
15290494303
15290499125
15290505228
15290510538
15290517924
15290522440
15290529093
15290534769
15290541117
15290545817
15290550455
15290558451
15290566202
15290570902
15290575419
15290582621
15290586466
15290594034
15290597269
15290604593
15290612650
15290618692
15290624369
15290631449
15290639627
15290644998
15290651285
15290656839
15290661844
15290668375
15290674783
15290678324
15290687174
15290695047
15290703714
15290712198
15290720010
15290727213
15290736795
15290743692
15290751688
15290760904
15290768411
15290775003
15290783304
15290789896
15290799905
15290806802
15290816751
15290825235
15290831399
15290840066
15290848916
15290858255
15290865518
15290874673
15290882364
15290888894
15290898416
15290905435
15290913430
15290920877
15290929483
15290939065
15290943399
15290955850
15290962564
15290971230
15290978738
15290989846
15290998757
15291008096
15291014443
15291024148
15291031106
15291041177
15291048074
15291056741
15291066384
15291073098
15291082253
15291087441
15291097329
15291105813
15291112404
15291120400
15291129433
15291137002
15291145852
15291151284
15291160195
15291167885
15291174599
15291182778
15291190346
15291200539
15291209206
15291215309
15291224526
15291228493
15291240395
15291248696
15291255837
15291261940
15291271706
15291278908
15291286720
15291292763
15291302895
15291308998
15291317116
15291326515
15291335182
15291339394
15291349709
15291356605
15291367836
15291374428
15291384437
15291390419
15291400246
15291406227
15291415199
15291421547
15291430824
15291436500
15291444801
15291453346
15291461403
15291469764
15291477577
15291485572
15291492164
15291500099
15291507972
15291514686
15291523475
15291531837
15291539710
15291547523
15291555152
15291561134
15291569312
15291578468
15291586219
15291594459
15291601722
15291608558
15291615211
15291623817
15291631385
15291638221
15291647315
15291655494
15291663978
15291671546
15291678321
15291688087
15291694861
15291704444
15291711158
15291720557
15291729102
15291736854
15291745582
15291753028
15291761878
15291768042
15291777564
15291784156
15291794287
15291803382
15291814368
15291820533
15291829261
15291833289
15291842383
15291855567
15291861548
15291870032
15291878638
15291885047
15291894263
15291900061
15291909094
15291917517
15291925330
15291931433
15291940771
15291946692
15291955725
15291963538
15291970496
15291979346
15291986182
15291994421
15292001440
15292009619
15292017187
15292025610
15292032324
15292041418
15292048437
15292055456
15292064611
15292072485
15292079687
15292085546
15292095007
15292101782
15292111914
15292115881
15292127905
15292131994
15292143469
15292151220
15292157934
15292165563
15292170385
15292174597
15292182348
15292188207
15292193212
15292197241
15292204076
15292209142
15292215734
15292221655
15292228735
15292232763
15292238805
15292244237
15292249914
15292257421
15292262670
15292270299
15292276464
15292281713
15292288122
15292293920
15292298742
15292306127
15292312169
15292316503
15292323461
15292328771
15292334325
15292339818
15292345800
15292351476
15292357763
15292364660
15292369298
15292374974
15292379857
15292386754
15292392614
15292397679
15292402440
15292409398
15292414586
15292419164
15292426061
15292430638
15292436986
15292441442
15292448216
15292455541
15292462499
15292468480
15292478002
15292482457
15292493138
15292499730
15292513280
15292518102
15292528783
15292535252
15292545384
15292552281
15292562718
15292571873
15292578892
15292588597
15292595616
15292604039
15292610386
15292619969
15292627232
15292637608
15292643956
15292653538
15292661900
15292669163
15292676548
15292684605
15292691014
15292700718
15292707249
15292716404
15292725804
15292733616
15292742283
15292749363
15292757786
15292763523
15292773106
15292780979
15292791050
15292798679
15292806004
15292814610
15292821934
15292830235
15292838230
15292844822
15292855259
15292863010
15292871006
15292877964
15292887058
15292895969
15292903721
15292911899
15292918857
15292927585
15292938083
15292944309
15292952121
15292960239
15292967258
15292976108
15292983921
15292992343
15292999485
15293009128
15293015537
15293025913
15293033908
15293041721
15293048740
15293061313
15293071323
15293080112
15293087253
15293095432
15293103976
15293112521
15293120517
15293126926
15293134494
15293142490
15293148837
15293158176
15293165073
15293174777
15293183444
15293193515
15293201938
15293210177
15293217929
15293226474
15293231906
15293241000
15293248202
15293258273
15293267550
15293275912
15293284823
15293293612
15293304538
15293312777
15293320285
15293327853
15293337496
15293343966
15293355136
15293362277
15293371859
15293380221
15293387789
15293394503
15293403048
15293411349
15293419772
15293426058
15293434420
15293442171
15293449496
15293457735
15293464022
15293472689
15293482332
15293488619
15293496615
15293504427
15293512362
15293520540
15293527193
15293535067
15293540926
15293550203
15293558382
15293566378
15293572542
15293581392
15293588411
15293595858
15293604341
15293611544
15293619356
15293626192
15293633882
15293642549
15293649629
15293657015
15293665560
15293672701
15293678499
15293687105
15293692964
15293702058
15293708589
15293718538
15293724825
15293733308
15293741670
15293750520
15293756807
15293764863
15293773408
15293780427
15293788362
15293796663
15293804536
15293810151
15293818940
15293826387
15293834688
15293842256
15293850618
15293858186
15293864778
15293874604
15293881074
15293889985
15293897431
15293905854
15293918000
15293926362
15293932954
15293939912
15293950105
15293958405
15293964326
15293970185
15293974702
15293981782
15293986298
15293991547
15293997529
15294001191
15294007905
15294013215
15294018830
15294024079
15294030061
15294033234
15294042023
15294046784
15294051484
15294056489
15294064606
15294067231
15294075471
15294078339
15294085847
15294091584
15294100007
15294106232
15294112458
15294118134
15294123261
15294128998
15294134614
15294139374
15294145966
15294150971
15294155426
15294159577
15294163971
15294168305
15294172760
15294177521
15294182221
15294187043
15294190522
15294195954
15294199494
15294205231
15294209442
15294216278
15294221222
15294227204
15294233917
15294242768
15294251740
15294259369
15294265350
15294274323
15294280182
15294289337
15294296112
15294304596
15294312714
15294318695
15294326569
15294335968
15294344269
15294352081
15294357941
15294367096
15294375030
15294384369
15294389923
15294398346
15294405914
15294415497
15294424591
15294431244
15294438385
15294446869
15294450470
15294461456
15294469085
15294475799
15294484039
15294491485
15294498748
15294507293
15294511260
15294522918
15294532623
15294538543
15294546295
15294553253
15294560821
15294569671
15294573272
15294584686
15294590972
15294599944
15294606597
15294615142
15294619964
15294628020
15294634978
15294641692
15294650298
15294659026
15294664825
15294673492
15294681304
15294687835
15294693877
15294702239
15294710723
15294717559
15294724273
15294732390
15294739653
15294746856
15294751616
15294760405
15294769988
15294776824
15294786772
15294796477
15294804412
15294811919
15294820403
15294827300
15294837493
15294844145
15294854765
15294858977
15294870635
15294874785
15294885466
15294891936
15294899016
15294907439
15294914214
15294920012
15294928862
15294934416
15294942534
15294949431
15294960112
15294966093
15294974272
15294979826
15294987639
15294995085
15295002897
15295008696
15295018217
15295024199
15295032805
15295039152
15295049833
15295058561
15295065641
15295074308
15295081694
15295089933
15295097441
15295105619
15295112944
15295119535
15295129484
15295136564
15295147184
15295153898
15295165006
15295168852
15295180204
15295184049
15295195402
15295199796
15295211820
15295216764
15295227201
15295231473
15295241727
15295250150
15295258085
15295263883
15295275846
15295280301
15295289884
15295296903
15295306180
15295312772
15295321927
15295328641
15295339017
15295345487
15295355008
15295361600
15295370755
15295376737
15295385587
15295395414
15295403043
15295409452
15295418668
15295425687
15295433377
15295441251
15295449979
15295457242
15295466580
15295473355
15295482266
15295490750
15295497342
15295505887
15295513577
15295521268
15295528470
15295538724
15295545560
15295555447
15295562710
15295570706
15295579617
15295588955
15295601040
15295610196
15295616482
15295625393
15295632473
15295642971
15295649868
15295655239
15295662197
15295667752
15295672085
15295678128
15295682400
15295688504
15295692654
15295699551
15295705654
15295709927
15295715969
15295721096
15295726834
15295731716
15295736477
15295741604
15295746365
15295752773
15295757839
15295765164
15295769741
15295775234
15295781826
15295787380
15295792263
15295797878
15295802334
15295807705
15295814846
15295820034
15295825039
15295829555
15295836025
15295843105
15295849453
15295854153
15295859829
15295865688
15295871303
15295878506
15295884304
15295889614
15295894741
15295902004
15295906154
15295913112
15295916042
15295923061
15295927517
15295934108
15295939968
15295947536
15295953884
15295963344
15295971950
15295980434
15295986721
15295995937
15296002895
15296011135
15296020900
15296028407
15296035976
15296044277
15296052150
15296056484
15296067287
15296074428
15296083766
15296090297
15296099818
15296106837
15296116542
15296124965
15296131740
15296140590
15296149806
15296156520
15296163234
15296172755
15296179225
15296189662
15296193812
15296207240
15296212123
15296222987
15296226954
15296239650
15296244349
15296257716
15296262538
15296274867
15296284022
15296291957
15296299159
15296310877
15296316188
15296328639
15296335291
15296344019
15296351100
15296361292
15296368617
15296377161
15296384974
15296392054
15296400111
15296408961
15296417811
15296426234
15296432154
15296440760
15296448450
15296454615
15296462305
15296470057
15296478358
15296485865
15296493616
15296500635
15296508204
15296514979
15296522913
15296531641
15296538050
15296546961
15296554773
15296562220
15296569483
15296575586
15296582727
15296589868
15296600000
15296607447
15296615076
15296622888
15296628443
15296635889
15296644190
15296652551
15296659021
15296667322
15296676782
15296686182
15296692041
15296700037
15296707910
15296715295
15296721643
15296728662
15296739160
15296745569
15296755029
15296762720
15296770898
15296775354
15296784204
15296794458
15296802636
15296806970
15296818200
15296824548
15296832605
15296839502
15296849145
15296855615
15296865014
15296874414
15296882165
15296891442
15296898583
15296904870
15296913537
15296921289
15296927392
15296937585
15296943688
15296953088
15296958703
15296967370
15296973840
15296982751
15296990075
15296998620
15297007714
15297013940
15297022240
15297029320
15297037499
15297044701
15297054772
15297063683
15297070885
15297078820
15297085778
15297093834
15297103295
15297109581
15297120324
15297129052
15297139000
15297147972
15297154808
15297165062
15297171532
15297180260
15297189537
15297199364
15297207787
15297216759
15297224816
15297232933
15297241722
15297248314
15297257347
15297263023
15297272179
15297277733
15297285545
15297290916
15297300438
15297310997
15297317772
15297325523
15297333824
15297341453
15297347191
15297355247
15297365379
15297371849
15297383446
15297391990
15297398704
15297406090
15297410667
15297417747
15297422325
15297428672
15297432701
15297438682
15297442711
15297451377
15297454307
15297462486
15297468528
15297473533
15297479820
15297484581
15297490196
15297494895
15297499839
15297504417
15297508933
15297516075
15297521018
15297526878
15297531639
15297536338
15297542564
15297547508
15297554527
15297559348
15297564353
15297570274
15297575156
15297579734
15297583701
15297591026
15297597373
15297602500
15297607749
15297613670
15297617942
15297623801
15297629233
15297636069
15297641502
15297647971
15297652854
15297658835
15297663474
15297669761
15297673545
15297683433
15297693015
15297701255
15297707175
15297716208
15297725180
15297733847
15297741172
15297749778
15297757773
15297766074
15297773459
15297783591
15297793601
15297802512
15297810568
15297820090
15297832114
15297842490
15297849387
15297859152
15297867392
15297873496
15297881430
15297887778
15297897238
15297904623
15297913351
15297922018
15297928610
15297937521
15297945212
15297953024
15297962301
15297969748
15297979086
15297986166
15297994772
15298003134
15298012167
15298021200
15298028097
15298037619
15298047873
15298058554
15298067038
15298079672
15298092672
15298102621
15298114462
15298124410
15298134847
15298146932
15298161276
15298171468
15298180868
15298191854
15298201315
15298210958
15298221517
15298231222
15298243246
15298252279
15298260641
15298269979
15298279439
15298289693
15298299764
15298310567
15298319661
15298329366
15298338643
15298347982
15298356649
15298366536
15298377156
15298384664
15298397176
15298404744
15298414998
15298422200
15298435018
15298444173
15298456197
15298464253
15298476460
15298489217
15298502156
15298513875
15298525655
15298535603
15298543416
15298556355
15298568379
15298583027
15298591877
15298602559
15298613667
15298624409
15298641987
15298651875
15298662678
15298674641
15298685261
15298697773
15298706623
15298720356
15298729084
15298739094
15298753193
15298763020
15298773945
15298783833
15298793903
15298803486
15298813251
15298820942
15298831257
15298840900
15298851581
15298862629
15298870746
15298881611
15298889728
15298902240
15298910602
15298923481
15298931659
15298942707
15298953693
15298962238
15298972675
15298982318
15298992023
15299003864
15299012653
15299023700
15299035480
15299043781
15299053790
15299063373
15299074115
15299083575
15299094501
15299104694
15299113910
15299122211
15299131183
15299141559
15299151446
15299159869
15299170062
15299179889
15299190387
15299201068
15299211322
15299220416
15299230853
15299242266
15299250750
15299261370
15299270159
15299282244
15299291400
15299301043
15299311602
15299320941
15299328570
15299337420
15299348834
15299357989
15299367876
15299375872
15299386858
15299397356
15299405596
15299413287
15299419695
15299430315
15299437456
15299445757
15299451800
15299459673
15299467913
15299476824
15299485125
15299489031
15299499468
15299506548
15299515032
15299522539
15299530840
15299538713
15299544939
15299554033
15299560137
15299568376
15299577959
15299587053
15299594377
15299601518
15299611040
15299618791
15299624773
15299628923
15299634416
15299640703
15299645830
15299650591
15299656389
15299660478
15299665239
15299671709
15299677690
15299682146
15299687273
15299691850
15299697160
15299699541
15299708147
15299716081
15299722063
15299729143
15299733537
15299741228
15299745866
15299754655
15299761186
15299768998
15299776079
15299783281
15299790544
15299795183
15299802751
15299811845
15299818864
15299825517
15299833085
15299839250
15299845353
15299851762
15299858415
15299867753
15299875138
15299880815
15299887040
15299894609
15299902360
15299910600
15299917924
15299927079
15299932511
15299939713
15299947099
15299952653
15299960587
15299966996
15299973405
15299979325
15299986283
15299990617
15299998795
15300003922
15300013383
15300019181
15300027238
15300032975
15300038895
15300045487
15300050492
15300059098
15300065018
15300071671
15300079239
15300086564
15300094010
15300103226
15300109696
15300118119
15300125992
15300135086
15300142533
15300150040
15300161331
15300170243
15300178177
15300186966
15300195206
15300201798
15300207901
15300216507
15300226212
15300232132
15300241715
15300247269
15300254105
15300259781
15300268997
15300277908
15300284256
15300290665
15300298294
15300303604
15300311661
15300320145
15300328445
15300336014
15300344253
15300352432
15300360550
15300368362
15300374161
15300383072
15300395828
15300406814
15300417556
15300426101
15300437027
15300446609
15300456069
15300464187
15300477188
15300485549
15300493911
15300505874
15300519302
15300529678
15300536880
15300543594
15300552078
15300560012
15300567214
15300573806
15300582961
15300589797
15300595473
15300603164
15300611098
15300618056
15300623977
15300632339
15300640273
15300647475
15300652724
15300659316
15300666945
15300674636
15300682753
15300690566
15300696181
15300702956
15300710036
15300716811
15300723952
15300731765
15300739577
15300747512
15300753554
15300762709
15300768264
15300775283
15300782790
15300790602
15300798903
15300806655
15300812331
15300823805
15300831557
15300839247
15300848586
15300857985
15300864088
15300874953
15300883009
15300892287
15300900893
15300909254
15300916640
15300923964
15300932142
15300943373
15300950026
15300956373
15300965712
15300971876
15300979078
15300986647
15300992384
15300998915
15301007887
15301013929
15301023146
15301028578
15301033277
15301036329
15301043714
15301048353
15301054823
15301063368
15301069044
15301074598
15301079115
15301084852
15301091444
15301096754
15301101820
15301107679
15301113294
15301120191
15301126661
15301130995
15301136305
15301141676
15301146070
15301151624
15301155897
15301160902
15301166944
15301170362
15301177991
15301185072
15301189710
15301196607
15301199476
15301205152
15301211378
15301215894
15301219434
15301228162
15301234510
15301240369
15301246473
15301254041
15301258619
15301265333
15301269910
15301276563
15301281873
15301288343
15301291639
15301298963
15301306104
15301313672
15301321424
15301326734
15301336988
15301345044
15301350904
15301359937
15301367932
15301377454
15301383801
15301391797
15301399732
15301408215
15301414563
15301423169
15301431348
15301436475
15301443128
15301449597
15301456616
15301463818
15301477307
15301485303
15301491711
15301502820
15301510449
15301517956
15301525891
15301539380
15301548352
15301553723
15301563855
15301573193
15301581189
15301586926
15301597424
15301606274
15301612805
15301620739
15301627148
15301638562
15301649304
15301656445
15301662548
15301672680
15301682263
15301689953
15301699413
15301705334
15301715099
15301723766
15301731396
15301739880
15301747692
15301756786
15301763500
15301771557
15301777477
15301787914
15301794872
15301802746
15301810863
15301819347
15301825817
15301833019
15301841564
15301848461
15301857677
15301865917
15301875805
15301881786
15301892162
15301898082
15301907238
15301914989
15301921581
15301929943
15301936657
15301946300
15301952648
15301958934
15301965709
15301974254
15301982372
15301991344
15301999095
15302007030
15302015514
15302021434
15302029308
15302036693
15302042796
15302052318
15302060985
15302068736
15302077098
15302083934
15302092601
15302101268
15302110362
15302120311
15302125438
15302137401
15302142467
15302152965
15302160655
15302169688
15302179515
15302187999
15302194590
15302202464
15302210826
15302217051
15302226939
15302233409
15302243907
15302247813
15302261302
15302275279
15302284190
15302294016
15302303538
15302311289
15302319590
15302329234
15302333994
15302342783
15302351939
15302359812
15302368174
15302374400
15302383677
15302390208
15302396372
15302405833
15302414439
15302422739
15302430186
15302437815
15302447581
15302452768
15302463328
15302467905
15302479807
15302488352
15302495981
15302500742
15302513376
15302521250
15302528818
15302538156
15302544443
15302552866
15302561594
15302571970
15302582956
15302590647
15302600534
15302607126
15302616892
15302623544
15302633371
15302639169
15302646799
15302653391
15302658823
15302667368
15302670969
15302679025
15302686655
15302691415
15302695444
15302702096
15302705392
15302711984
15302715036
15302722482
15302728769
15302733896
15302739206
15302744882
15302748361
15302757394
15302760812
15302767343
15302776681
15302783273
15302786386
15302794015
15302799020
15302805612
15302811898
15302817575
15302823434
15302830575
15302836312
15302841989
15302845468
15302853707
15302861276
15302867745
15302876596
15302883615
15302889047
15302895455
15302901071
15302907968
15302913888
15302919869
15302928231
15302935555
15302943917
15302949838
15302957162
15302968697
15302977608
15302984872
15302993172
15303000558
15303009591
15303018075
15303024178
15303033272
15303040047
15303050057
15303057442
15303066659
15303074959
15303083199
15303091500
15303099923
15303107674
15303115487
15303123299
15303131111
15303137642
15303145211
15303152657
15303162239
15303170845
15303176705
15303185066
15303192574
15303200936
15303206856
15303214913
15303222176
15303232857
15303239815
15303249580
15303256783
15303266121
15303275825
15303283821
15303291389
15303300178
15303307564
15303314827
15303323372
15303332100
15303339912
15303347175
15303354500
15303363960
15303371772
15303380745
15303387153
15303397102
15303404914
15303414009
15303423408
15303430671
15303439827
15303448555
15303456489
15303466011
15303474983
15303481391
15303489387
15303497993
15303506416
15303513435
15303521980
15303530891
15303540229
15303547858
15303557258
15303564765
15303574348
15303581428
15303589912
15303598334
15303606574
15303613898
15303623542
15303631721
15303637275
15303648200
15303657050
15303664496
15303673652
15303681769
15303691108
15303702277
15303712043
15303719550
15303727057
15303738227
15303746588
15303753791
15303762885
15303771308
15303780890
15303787116
15303794196
15303802985
15303811713
15303819708
15303826422
15303834479
15303842658
15303848700
15303857123
15303866522
15303873724
15303880682
15303890448
15303899054
15303906805
15303914862
15303921026
15303929510
15303937384
15303945990
15303950934
15303962591
15303967047
15303978399
15303982672
15303993414
15304001287
15304008734
15304019354
15304028631
15304037237
15304045111
15304052130
15304060430
15304068243
15304076849
15304083563
15304092413
15304100103
15304103948
15304116583
15304122991
15304132757
15304139349
15304146917
15304154058
15304160467
15304171026
15304178533
15304185308
15304192510
15304201238
15304207403
15304215276
15304223577
15304230535
15304236822
15304245000
15304252935
15304261236
15304268804
15304276311
15304283086
15304291204
15304298467
15304307256
15304316228
15304322454
15304331304
15304335759
15304343511
15304348638
15304354680
15304361028
15304366826
15304370000
15304378667
15304386296
15304392278
15304397832
15304411504
15304418889
15304423772
15304429265
15304437138
15304442693
15304448918
15304454594
15304459538
15304463200
15304471013
15304474797
15304480595
15304485417
15304491765
15304497502
15304502019
15304506596
15304511723
15304516667
15304520878
15304527592
15304531926
15304539311
15304543889
15304548039
15304552556
15304558598
15304562016
15304567387
15304572697
15304578251
15304584294
15304589970
15304598332
15304607487
15304614750
15304623112
15304632511
15304638371
15304646977
15304653569
15304663700
15304672917
15304681645
15304687870
15304697941
15304706974
15304715031
15304722050
15304733341
15304740238
15304749332
15304755497
15304764286
15304772831
15304779240
15304787601
15304797489
15304806522
15304814457
15304822025
15304828617
15304838016
15304844669
15304855777
15304864872
15304873050
15304877567
15304888919
15304898502
15304906009
15304913211
15304923709
15304932437
15304939090
15304946659
15304955692
15304964054
15304972171
15304978763
15304987796
15304996463
15305004642
15305013431
15305021182
15305026737
15305035526
15305044009
15305050601
15305060123
15305066043
15305076480
15305080447
15305094241
15305099063
15305110721
15305119266
15305128848
15305135806
15305144839
15305150638
15305158633
15305166751
15305173709
15305181887
15305189334
15305197085
15305204165
15305211550
15305218875
15305226748
15305232974
15305243289
15305250369
15305258914
15305264712
15305274111
15305281497
15305289309
15305295840
15305303408
15305312563
15305318301
15305327639
15305336367
15305342898
15305349368
15305357546
15305366152
15305372561
15305382815
15305389834
15305400149
15305409975
15305421633
15305427370
15305437624
15305445315
15305454287
15305462526
15305467897
15305478334
15305485720
15305495363
15305502687
15305511232
15305518373
15305524355
15305533754
15305539797
15305549013
15305555055
15305566774
15305572389
15305583315
15305589601
15305599123
15305605837
15305615236
15305623476
15305631715
15305639467
15305647218
15305654970
15305663759
15305672426
15305679628
15305687013
15305697999
15305704225
15305714845
15305722841
15305731630
15305738038
15305745057
15305754884
15305760927
15305770326
15305776246
15305787355
15305794923
15305802186
15305806581
15305817506
15305822694
15305836976
15305846192
15305853944
15305858216
15305867738
15305875611
15305884278
15305894288
15305902162
15305911012
15305920350
15305927369
15305934937
15305943970
15305951783
15305961915
15305970948
15305977235
15305986085
15305990357
15305996949
15305999756
15306009156
15306013917
15306018921
15306021851
15306030091
15306035279
15306039185
15306044373
15306049927
15306054993
15306060608
15306065125
15306072632
15306079346
15306084107
15306089173
15306095948
15306100708
15306107239
15306111145
15306118958
15306127686
15306135254
15306145203
15306153870
15306159058
15306164673
15306169068
15306173340
15306179749
15306182617
15306189453
15306197205
15306202698
15306205383
15306212708
15306217590
15306222778
15306229431
15306234070
15306240601
15306246521
15306252441
15306257690
15306261963
15306267334
15306273559
15306281372
15306289062
15306297424
15306305359
15306309875
15306321289
15306328857
15306336303
15306343811
15306350769
15306359558
15306366577
15306373413
15306381714
15306388427
15306395385
15306405578
15306411438
15306420837
15306427185
15306435668
15306444213
15306451721
15306458007
15306467590
15306474487
15306484374
15306491332
15306500366
15306506652
15306514953
15306527160
15306534972
15306544982
15306553771
15306562194
15306569701
15306575317
15306583373
15306591491
15306598449
15306606261
15306612792
15306622252
15306629882
15306636046
15306644896
15306650756
15306658690
15306664977
15306673949
15306680785
15306690184
15306696532
15306705626
15306712645
15306721068
15306727843
15306733824
15306743834
15306750975
15306760436
15306765563
15306774046
15306781371
15306788451
15306794981
15306802123
15306810912
15306818541
15306826659
15306833434
15306841551
15306849242
15306855711
15306863219
15306872191
15306878844
15306882872
15306895079
15306899962
15306911375
15306918394
15306925596
15306932799
15306941832
15306947935
15306957396
15306964781
15306971373
15306977964
15306986937
15306995176
15307003294
15307009703
15307017942
15307025267
15307032835
15307041136
15307049436
15307056028
15307064329
15307075071
15307083006
15307091978
15307097898
15307107603
15307116453
15307124693
15307133909
15307140501
15307148923
15307155698
15307167051
15307173337
15307185850
15307195615
15307203245
15307207944
15307222532
15307229123
15307238950
15307246335
15307256101
15307262326
15307273191
15307279294
15307287900
15307293210
15307303281
15307309140
15307319638
15307326779
15307335874
15307341611
15307351010
15307357175
15307368161
15307375730
15307385251
15307390988
15307400876
15307406125
15307415952
15307422543
15307429745
15307438107
15307445004
15307449277
15307458066
15307464047
15307472287
15307481686
15307489255
15307497800
15307504819
15307510739
15307518307
15307524594
15307533444
15307539914
15307549679
15307555905
15307564328
15307572445
15307579342
15307586789
15307593685
15307599667
15307607296
15307615475
15307622860
15307629757
15307637081
15307647091
15307653927
15307661556
15307666012
15307677975
15307687801
15307697567
15307701412
15307711178
15307717037
15307722652
15307725826
15307732906
15307736446
15307743038
15307748531
15307754330
15307759151
15307765011
15307770504
15307776302
15307782223
15307786495
15307796139
15307801815
15307806942
15307811153
15307817562
15307821712
15307827999
15307834469
15307840450
15307845577
15307851375
15307856136
15307860286
15307865474
15307872371
15307877742
15307883785
15307888607
15307895137
15307898799
15307905635
15307911006
15307918392
15307922908
15307931026
15307936092
15307942501
15307949886
15307955928
15307960201
15307966365
15307974056
15307980342
15307987361
15307992183
15307997859
15308009456
15308018489
15308026851
15308035152
15308042903
15308051875
15308058955
15308068782
15308075130
15308082881
15308091792
15308100032
15308107600
15308115169
15308122310
15308129817
15308137996
15308145564
15308154292
15308160518
15308167720
15308176387
15308184199
15308192866
15308199885
15308206477
15308213191
15308223872
15308230708
15308240107
15308247370
15308255732
15308260066
15308269953
15308276606
15308285334
15308294001
15308300349
15308309748
15308317561
15308324091
15308330378
15308340693
15308349848
15308357111
15308365229
15308371821
15308380549
15308389033
15308398005
15308405207
15308409784
15308420221
15308431330
15308439264
15308445612
15308454889
15308463800
15308472284
15308478754
15308487970
15308494928
15308504450
15308510919
15308517633
15308527155
15308532587
15308541681
15308548944
15308556818
15308566339
15308576349
15308580621
15308592340
15308596613
15308606073
15308612848
15308622797
15308629327
15308640619
15308649286
15308656488
15308662530
15308671014
15308672967
15308686822
15308697442
15308703119
15308712579
15308722223
15308730096
15308737054
15308746515
15308753473
15308762567
15308774469
15308782891
15308790277
15308797723
15308804620
15308813714
15308832452
15308841058
15308847528
15308859307
15308865533
15308876519
15308883294
15308889764
15308897515
15308904168
15308911675
15308918877
15308925957
15308934563
15308942010
15308949395
15308957268
15308964043
15308970452
15308977288
15308984612
15308992547
15308998589
15309008172
15309013970
15309024590
15309028740
15309037346
15309044487
15309054863
15309061211
15309068657
15309075249
15309083672
15309089409
15309100396
15309109062
15309117424
15309121636
15309131157
15309139824
15309146660
15309155205
15309165703
15309173271
15309182304
15309190483
15309197990
15309202995
15309211906
15309220085
15309227043
15309236137
15309243278
15309251640
15309258476
15309267753
15309275017
15309281303
15309288505
15309297172
15309306144
15309313774
15309321342
15309328911
15309333244
15309347099
15309351432
15309361869
15309379814
15309385307
15309397331
15309406913
15309419853
15309430046
15309439262
15309447868
15309453178
15309458488
15309463432
15309468437
15309473502
15309478690
15309485038
15309489616
15309494560
15309500236
15309506095
15309512321
15309520011
15309525504
15309530082
15309534598
15309538566
15309544974
15309552177
15309558829
15309562675
15309568290
15309574332
15309578544
15309584708
15309590812
15309594962
15309600455
15309605765
15309610404
15309613944
15309620414
15309624747
15309628714
15309632743
15309638663
15309643302
15309647574
15309651603
15309658011
15309663321
15309668937
15309676200
15309681144
15309687247
15309693289
15309699759
15309707877
15309713797
15309723319
15309730887
15309738272
15309744437
15309751151
15309758414
15309765677
15309771903
15309781668
15309786429
15309796683
15309802603
15309810294
15309817557
15309828543
15309833060
15309844168
15309849600
15309860892
15309864981
15309875174
15309879507
15309888968
15309897696
15309902762
15309912222
15309919180
15309928335
15309936575
15309942923
15309950979
15309958487
15309966299
15309974905
15309983755
15309992117
15309997244
15310006216
15310013418
15310022634
15310031240
15310039358
15310045828
15310055105
15310061208
15310069021
15310077078
15310084341
15310092458
15310099844
15310107046
15310117605
15310123891
15310133474
15310140493
15310150808
15310159292
15310168996
15310175405
15310184743
15310191701
15310201162
15310207021
15310216482
15310224721
15310232839
15310242238
15310249746
15310261159
15310269460
15310276540
15310285695
15310291677
15310301442
15310310842
15310318410
15310326650
15310335073
15310341664
15310350942
15310356923
15310365163
15310373036
15310380544
15310388295
15310396169
15310402394
15310411061
15310419362
15310426503
15310434376
15310440968
15310449208
15310455311
15310464101
15310472218
15310479970
15310486561
15310495228
15310503102
15310511220
15310518116
15310525990
15310534230
15310540089
15310548207
15310556752
15310565541
15310573964
15310581654
15310588368
15310598378
15310605519
15310614552
15310621388
15310625782
15310638172
15310644215
15310653004
15310656971
15310668141
15310672169
15310684437
15310693165
15310700550
15310709400
15310716724
15310724903
15310732288
15310739185
15310747791
15310757557
15310766834
15310773975
15310782947
15310791553
15310799549
15310808582
15310816822
15310823536
15310832935
15310839344
15310848255
15310856311
15310864673
15310872058
15310878589
15310888050
15310894641
15310905933
15310912403
15310920032
15310928638
15310936389
15310945606
15310953052
15310962390
15310970447
15310978565
15310985523
15310993579
15311002368
15311008411
15311015063
15311025989
15311037036
15311043506
15311051562
15311060779
15311067920
15311077746
15311087146
15311096423
15311103808
15311111560
15311118884
15311127673
15311134631
15311142382
15311148120
15311156665
15311161975
15311167834
15311172473
15311178698
15311183581
15311188647
15311194995
15311200183
15311206652
15311211535
15311218066
15311223559
15311226489
15311234789
15311237780
15311246142
15311250842
15311257433
15311261889
15311269579
15311274279
15311279772
15311285754
15311291552
15311298388
15311302660
15311308520
15311313464
15311320177
15311325243
15311331652
15311337939
15311344408
15311348864
15311355761
15311360155
15311367541
15311371020
15311380114
15311383227
15311391588
15311395922
15311403063
15311407763
15311414232
15311420763
15311427294
15311431688
15311438036
15311442675
15311450609
15311456285
15311460985
15311466661
15311472582
15311478868
15311482653
15311492174
15311497240
15311504076
15311508470
15311515001
15311520983
15311525377
15311531175
15311536241
15311543504
15311548753
15311551622
15311559740
15311562364
15311569811
15311574999
15311579637
15311585802
15311592332
15311595262
15311601549
15311605638
15311612718
15311616746
15311622423
15311628770
15311633836
15311638109
15311644701
15311647996
15311656785
15311661668
15311667528
15311674364
15311687913
15311690721
15311697923
15311702867
15311708116
15311715928
15311722093
15311726365
15311733201
15311736802
15311742906
15311746568
15311754930
15311761155
15311766587
15311771531
15311775987
15311781297
15311786851
15311792527
15311798326
15311804368
15311809251
15311815904
15311820664
15311827928
15311832688
15311838120
15311842759
15311849961
15311852769
15311860642
15311865708
15311870896
15311876817
15311882432
15311888047
15311893906
15311896470
15311905747
15311911240
15311916428
15311922105
15311928025
15311933640
15311940720
15311944993
15311951707
15311956162
15311962815
15311965806
15311973069
15311981675
15311987595
15311992173
15311999497
15312004197
15312010911
15312015366
15312021348
15312028794
15312034958
15312039963
15312045762
15312051560
15312056748
15312063279
15312067795
15312075363
15312081833
15312087387
15312093613
15312099533
15312105149
15312111313
15312116318
15312122116
15312130722
15312136521
15312139328
15312147995
15312151169
15312159103
15312164536
15312170578
15312176560
15312183701
15312188095
15312194504
15312200424
15312204636
15312212021
15312217636
15312222641
15312229904
15312235092
15312239303
15312245834
15312250473
15312257858
15312263595
15312272140
15312278549
15312283615
15312290390
15312295700
15312301132
15312308090
15312313827
15312319076
15312326523
15312333419
15312336105
15312343063
15312347641
15312355453
15312361435
15312367050
15312373825
15312379074
15312383346
15312391952
15312397994
15312403121
15312408065
15312413619
15312418807
15312425887
15312430404
15312437667
15312442428
15312449630
15312454208
15312460861
15312467757
15312473312
15312479659
15312484969
15312491439
15312497054
15312503219
15312507308
15312514205
15312520553
15312525436
15312530563
15312538192
15312543502
15312551192
15312554183
15312562118
15312568465
15312574386
15312578475
15312585372
15312590987
15312597152
15312603072
15312608016
15312614608
15312620650
15312627059
15312633345
15312638106
15312644149
15312650374
15312655379
15312662642
15312670394
15312675399
15312680403
15312687361
15312692977
15312698104
15312703719
15312708968
15312715804
15312723677
15312729170
15312735823
15312740645
15312747115
15312752730
15312757552
15312764937
15312769392
15312775618
15312781355
15312787947
15312793257
15312800154
15312805647
15312810957
15312816939
15312823775
15312828902
15312833906
15312840925
15312844282
15312851851
15312858320
15312863997
15312870588
15312876265
15312884443
15312890181
15312898115
15312905623
15312912886
15312920088
15312924604
15312931807
15312936506
15312943403
15312948042
15312955793
15312961103
15312968489
15312972639
15312978926
15312983137
15312988569
15312994245
15312999311
15313006697
15313012678
15313017439
15313024092
15313030073
15313035444
15313039839
15313045881
15313052534
15313057539
15313063642
15313068525
15313074140
15313079023
15313083723
15313089582
15313096784
15313102094
15313107404
15313111738
15313119245
15313122297
15313130598
15313134199
15313142560
15313149335
15313155866
15313160932
15313167219
15313174238
15313180280
15313184858
15313191022
15313196698
15313201764
15313208478
15313212934
15313220319
15313225263
15313231061
15313237775
15313243695
15313250470
15313255902
15313261701
15313268537
15313272016
15313280377
15313284101
15313291791
15313297162
15313303571
15313310102
15313316388
15313321942
15313328412
15313333051
15313339642
15313345563
15313353803
15313359113
15313363690
15313369550
15313372601
15313381085
15313386151
15313393475
15313399213
15313405988
15313411237
15313418011
15313423688
15313428693
15313434918
15313439740
15313447674
15313453900
15313461468
15313467450
15313472210
15313477154
15313483502
15313490704
15313500836
15313510052
15313514752
15313522137
15313528058
15313534222
15313539898
15313546002
15313553021
15313559185
15313563885
15313568707
15313575238
15313580548
15313587567
15313592388
15313597393
15313603924
15313609051
15313614361
15313620037
15313624554
15313631512
15313636273
15313643292
15313648174
15313654705
15313659527
15313665142
15313671246
15313677044
15313683392
15313689678
15313695049
