15237525200
15237529168
15237532586
15237536248
15237540093
15237543633
15237547173
15237552971
15237556816
15237560356
15237565178
15237569268
15237572686
15237578423
15237582695
15237587212
15237591851
15237597283
15237602654
15237608025
15237613457
15237618218
15237624199
15237629570
15237636040
15237642265
15237646599
15237654900
15237660881
15237666924
15237674431
15237682121
15237689323
15237698051
15237704216
15237710319
15237718864
15237725517
15237730827
15237739189
15237750786
15237762260
15237774467
15237782463
15237788139
15237793937
15237803459
15237809623
15237817680
15237823661
15237828727
15237835746
15237843071
15237849113
15237854972
15237862419
15237867668
15237876335
15237883903
15237891166
15237898857
15237905631
15237913505
15237920951
15237925834
15237931999
15237937675
15237945976
15237953300
15237960624
15237969962
15237976310
15237982597
15237992789
15238003410
15238009391
15238016898
15238024100
15238030021
15238041862
15238049613
15238056083
15238063346
15238070182
15238076102
15238082694
15238088614
15238094901
15238100577
15238108817
15238116019
15238121756
15238125846
15238134085
15238141715
15238148490
15238154166
15238159354
15238166678
15238172538
15238177909
15238183829
15238189688
15238196463
15238203299
15238209830
15238215689
15238223502
15238229178
15238237174
15238242606
15238248953
15238255240
15238261343
15238267142
15238273306
15238278738
15238284964
15238291312
15238300223
15238305655
15238311087
15238317557
15238323782
15238330557
15238337271
15238341238
15238350943
15238355276
15238363638
15238369559
15238376700
15238382803
15238390555
15238397879
15238404593
15238411612
15238417776
15238424734
15238431814
15238437918
15238444021
15238450369
15238458303
15238465933
15238470999
15238479177
15238485281
15238491690
15238498037
15238505422
15238512197
15238518911
15238524221
15238532522
15238537893
15238544363
15238551260
15238558950
15238567007
15238572561
15238579702
15238586782
15238594778
15238600698
15238609060
15238617239
15238625600
15238633535
15238640432
15238647756
15238654836
15238659353
15238668569
15238677114
15238683828
15238690969
15238698537
15238705861
15238712148
15238719289
15238726003
15238734060
15238740712
15238747792
15238755422
15238762014
15238770925
15238775563
15238782460
15238792165
15238799916
15238806935
15238814626
15238821034
15238828053
15238834767
15238841542
15238847768
15238855214
15238862782
15238870595
15238877248
15238885182
15238892628
15238900380
15238907765
15238916737
15238925954
15238932851
15238941456
15238946522
15238955189
15238962391
15238971974
15238977040
15238988575
15238996327
15239001820
15239011158
15239018238
15239025196
15239033802
15239041066
15239049610
15239057118
15239065724
15239071888
15239079823
15239088551
15239092762
15239098622
15239104847
15239113026
15239118214
15239124378
15239132435
15239138294
15239142628
15239150074
15239154408
15239163624
15239169605
15239174244
15239179737
15239184742
15239190235
15239195179
15239199879
15239207569
15239211170
15239217884
15239223072
15239227955
15239233753
15239239002
15239243641
15239249012
15239254383
15239260364
15239265186
15239272571
15239277454
15239282398
15239286609
15239293628
15239298877
15239304371
15239308704
15239314441
15239320667
15239326038
15239331409
15239336353
15239343677
15239348499
15239355945
15239362964
15239367786
15239373706
15239379016
15239385669
15239395008
15239401966
15239409595
15239416126
15239424854
15239431873
15239439746
15239446826
15239455249
15239461963
15239470264
15239480029
15239486255
15239494250
15239502490
15239507983
15239515063
15239525317
15239530932
15239541369
15239548266
15239556201
15239563586
15239569262
15239577868
15239589404
15239597400
15239602649
15239611316
15239619250
15239627002
15239635669
15239642810
15239651599
15239659899
15239666003
15239673693
15239682177
15239689929
15239698229
15239705187
15239715197
15239721301
15239728808
15239737414
15239744799
15239752978
15239760241
15239765856
15239773547
15239782153
15239790942
15239797350
15239806567
15239812365
15239821581
15239830858
15239839098
15239844530
15239854235
15239863085
15239871691
15239879503
15239887377
15239895128
15239900988
15239909288
15239917528
15239924486
15239932360
15239941149
15239947435
15239956102
15239962694
15239972093
15239981066
15239987352
15239998339
15240005907
15240014513
15240018724
15240028124
15240037767
15240045458
15240054491
15240060899
15240069078
15240077867
15240086656
15240094225
15240102403
15240108690
15240117662
15240126573
15240134569
15240141588
15240148668
15240157213
15240164598
15240173631
15240180467
15240189134
15240197313
15240205613
15240214830
15240222947
15240230516
15240238755
15240246141
15240254441
15240261766
15240270005
15240278550
15240287156
15240293748
15240301438
15240308885
15240317613
15240325791
15240335130
15240342759
15240351182
15240359361
15240367356
15240375596
15240383958
15240392564
15240401170
15240407273
15240415086
15240423814
15240432603
15240440781
15240445176
15240456711
15240465439
15240472580
15240478135
15240488511
15240496201
15240503342
15240511460
15240520249
15240529160
15240536972
15240545334
15240553147
15240561325
15240569077
15240577805
15240585373
15240593735
15240601731
15240609177
15240617722
15240624924
15240633041
15240640549
15240648789
15240657089
15240666061
15240674240
15240682907
15240691025
15240699814
15240708786
15240717758
15240725815
15240731308
15240741440
15240749679
15240760360
15240765548
15240773056
15240783004
15240790512
15240797958
15240809127
15240815719
15240824020
15240832077
15240840805
15240849227
15240854293
15240865341
15240870529
15240880660
15240887313
15240894088
15240897872
15240904342
15240909469
15240916000
15240921371
15240927291
15240931930
15240938094
15240943404
15240949630
15240955734
15240960860
15240964828
15240971175
15240975997
15240981673
15240987594
15240993880
15241000045
15241006820
15241012069
15241019759
15241023482
15241031539
15241035323
15241043441
15241047103
15241052962
15241058028
15241063521
15241068343
15241074569
15241081099
15241086959
15241093062
15241098616
15241103743
15241111007
15241117293
15241122420
15241128585
15241133651
15241139571
15241145430
15241150069
15241156783
15241161727
15241168563
15241175154
15241183455
15241191329
15241199080
15241204817
15241215682
15241221358
15241231551
15241238570
15241246626
15241254317
15241260115
15241269881
15241277937
15241284224
15241292158
15241300764
15241308821
15241315840
15241323897
15241332197
15241338850
15241346419
15241354170
15241361189
15241370161
15241377485
15241387190
15241393843
15241401777
15241411848
15241420393
15241426008
15241433577
15241442121
15241449629
15241459028
15241468733
15241475569
15241484114
15241491987
15241497602
15241506513
15241515913
15241521406
15241529463
15241536665
15241547712
15241553388
15241563398
15241570539
15241575910
15241584577
15241593549
15241600812
15241609479
15241618391
15241624494
15241632978
15241639264
15241648481
15241656782
15241662824
15241671064
15241678266
15241686322
15241695722
15241701154
15241709516
15241718854
15241724897
15241732160
15241741071
15241749066
15241757856
15241766584
15241772748
15241780866
15241789227
15241796979
15241802106
15241812116
15241819623
15241828839
15241836224
15241844342
15241852155
15241859845
15241867719
15241875897
15241883099
15241891888
15241900738
15241909405
15241917462
15241925824
15241934430
15241940472
15241948956
15241957623
15241966290
15241974591
15241981732
15241988995
15241998822
15242004254
15242015850
15242023175
15242032086
15242039837
15242047772
15242054547
15242062847
15242070965
15242079998
15242088421
15242096539
15242104656
15242112774
15242120892
15242126507
15242135906
15242143169
15242152874
15242160137
15242165997
15242177898
15242183392
15242192547
15242201336
15242207989
15242216411
15242224468
15242233135
15242241680
15242250652
15242258281
15242266948
15242271648
15242281475
15242291851
15242299358
15242307720
15242317607
15242323040
15242330791
15242341594
15242348308
15242356670
15242364482
15242373393
15242381145
15242389324
15242395854
15242403179
15242412578
15242420207
15242428996
15242438518
15242444011
15242451884
15242460674
15242469890
15242478069
15242485088
15242494121
15242503825
15242512553
15242520000
15242528300
15242535441
15242544291
15242551982
15242559306
15242567241
15242574687
15242584453
15242592387
15242601298
15242608012
15242616801
15242625529
15242634257
15242640666
15242650920
15242658122
15242666850
15242674479
15242681986
15242688151
15242694254
15242700114
15242705668
15242709879
15242715128
15242720500
15242727885
15242732462
15242739726
15242746256
15242752238
15242756693
15242764445
15242770060
15242776530
15242783793
15242788493
15242795328
15242801615
15242807780
15242814127
15242821635
15242825724
15242833353
15242837626
15242844217
15242850138
15242855753
15242861735
15242868754
15242874857
15242880228
15242887980
15242893778
15242900187
15242906168
15242912027
15242918375
15242921915
15242929361
15242936075
15242941996
15242946268
15242954508
15242958231
15242963602
15242971292
15242977945
15242987100
15242995523
15243001871
15243010721
15243019022
15243027628
15243035318
15243043924
15243052530
15243058939
15243067178
15243075235
15243080423
15243089517
15243096475
15243105020
15243113077
15243121438
15243129556
15243137979
15243144510
15243152444
15243159707
15243167947
15243176248
15243184671
15243191140
15243198953
15243206399
15243215371
15243222024
15243229959
15243237466
15243243081
15243254678
15243261697
15243269021
15243277017
15243285562
15243291726
15243299966
15243307168
15243317178
15243326150
15243334145
15243341775
15243348489
15243356179
15243364663
15243372109
15243380593
15243387856
15243395669
15243402688
15243411660
15243418801
15243425881
15243431252
15243441750
15243451088
15243459511
15243469155
15243476601
15243482155
15243492165
15243501259
15243508522
15243519387
15243524453
15243533058
15243540139
15243549599
15243554665
15243562050
15243572975
15243582192
15243589821
15243595375
15243603859
15243612648
15243619728
15243627724
15243634865
15243642860
15243650612
15243658607
15243665626
15243674355
15243683205
15243691688
15243698585
15243706886
15243714210
15243722206
15243729225
15243737404
15243746742
15243752968
15243761940
15243771522
15243779213
15243788185
15243797584
15243806129
15243813209
15243821876
15243831581
15243840126
15243847694
15243855934
15243863868
15243871498
15243880348
15243888221
15243895545
15243902381
15243912513
15243920814
15243927894
15243935584
15243944434
15243952247
15243959205
15243965919
15243975745
15243984046
15243992896
15244000648
15244007545
15244015845
15244022498
15244029273
15244039893
15244048133
15244055640
15244063392
15244070289
15244077002
15244086890
15244094886
15244102515
15244110511
15244118872
15244127295
15244136573
15244144263
15244152442
15244157202
15244168982
15244177222
15244184302
15244191870
15244199439
15244206946
15244214453
15244222632
15244230139
15244238867
15244248267
15244255896
15244262061
15244268774
15244278967
15244287268
15244295996
15244304236
15244311682
15244319311
15244327429
15244335180
15244341650
15244348486
15244359839
15244367773
15244376501
15244384192
15244392187
15244399755
15244407690
15244415747
15244423315
15244431616
15244437292
15244442663
15244448156
15244453344
15244458593
15244465429
15244472143
15244476110
15244483251
15244488683
15244493444
15244498754
15244505407
15244511022
15244516882
15244522497
15244527868
15244532507
15244538732
15244547033
15244552648
15244561864
15244569311
15244575109
15244581518
15244586645
15244594640
15244598730
15244604467
15244610937
15244617956
15244623205
15244627538
15244632177
15244639257
15244644933
15244652990
15244658727
15244663244
15244668309
15244676183
15244682042
15244688939
15244695348
15244701024
15244706823
15244712133
15244717870
15244726049
15244733617
15244741307
15244749303
15244757604
15244765721
15244772923
15244780431
15244788732
15244796361
15244803868
15244812291
15244820409
15244828709
15244837132
15244844762
15244850987
15244858922
15244866246
15244874364
15244882664
15244890904
15244898900
15244906468
15244913548
15244921422
15244928807
15244936802
15244946324
15244954625
15244962620
15244970311
15244977940
15244985630
15244994114
15245002171
15245011692
15245019444
15245026036
15245033909
15245042576
15245050205
15245056919
15245065037
15245074925
15245083042
15245089817
15245097447
15245105930
15245113499
15245119602
15245130528
15245139317
15245147739
15245154758
15245162449
15245170628
15245178562
15245185276
15245193210
15245202000
15245210361
15245218479
15245226169
15245232883
15245240452
15245247593
15245255710
15245264805
15245273410
15245282261
15245288181
15245297275
15245305576
15245312229
15245323093
15245331150
15245339939
15245347751
15245355442
15245363071
15245370761
15245378024
15245386569
15245395419
15245403476
15245410434
15245418430
15245425632
15245433261
15245441745
15245451266
15245460910
15245467380
15245477328
15245485141
15245493198
15245500949
15245508273
15245516757
15245526034
15245534030
15245542331
15245550265
15245556064
15245563693
15245571689
15245579562
15245587924
15245596225
15245603732
15245611422
15245618319
15245626376
15245638522
15245648837
15245657870
15245666049
15245675875
15245682894
15245689608
15245697543
15245707064
15245713412
15245722994
15245730990
15245738131
15245745760
15245752962
15245761263
15245769381
15245775423
15245784945
15245793185
15245802218
15245811556
15245818575
15245823519
15245834261
15245841280
15245852083
15245860201
15245868502
15245876558
15245883333
15245890169
15245899813
15245906465
15245914888
15245922335
15245929415
15245936800
15245944734
15245951937
15245959810
15245968416
15245977999
15245986910
15245994234
15246000276
15246008394
15246016390
15246023958
15246031160
15246039522
15246047700
15246056367
15246063142
15246070833
15246078889
15246083894
15246094636
15246101839
15246112459
15246117708
15246127839
15246134981
15246143342
15246150850
15246158418
15246164277
15246170137
15246176118
15246182893
15246188325
15246194246
15246199556
15246206514
15246211702
15246221650
15246227021
15246231355
15246237031
15246242280
15246247895
15246254121
15246260285
15246265656
15246271089
15246277924
15246284150
15246288850
15246294038
15246298737
15246305817
15246312470
15246318452
15246324433
15246330170
15246336030
15246342194
15246351472
15246357697
15246363923
15246369050
15246374604
15246379426
15246384797
15246390107
15246394623
15246401032
15246406891
15246413666
15246417817
15246424042
15246429413
15246434052
15246439728
15246444611
15246452668
15246459137
15246466828
15246474030
15246482209
15246488800
15246495453
15246506501
15246514374
15246521515
15246529633
15246537506
15246545380
15246553009
15246560028
15246566681
15246576569
15246584992
15246592011
15246600678
15246607697
15246614533
15246621674
15246630280
15246639923
15246644928
15246655365
15246660614
15246669403
15246677277
15246684906
15246693573
15246701691
15246709930
15246717193
15246725677
15246733917
15246739776
15246748138
15246756866
15246765228
15246774017
15246782745
15246789215
15246798004
15246806060
15246813385
15246822479
15246831329
15246836883
15246846160
15246853057
15246861602
15246869659
15246877776
15246884612
15246895110
15246902862
15246910857
15246919585
15246925140
15246934356
15246941375
15246947478
15246956145
15246964202
15246972747
15246980498
15246988128
15246995696
15247003936
15247011626
15247016326
15247028899
15247036773
15247042876
15247050567
15247057830
15247064544
15247072783
15247079985
15247090667
15247097686
15247105071
15247111174
15247119231
15247129058
15247136748
15247145537
15247151518
15247160124
15247168242
15247175688
15247183684
15247191557
15247199187
15247206511
15247214446
15247224211
15247230803
15247238554
15247246062
15247254118
15247261748
15247268950
15247275969
15247285124
15247293486
15247301359
15247306303
15247315581
15247323027
15247330839
15247339567
15247348539
15247355497
15247360502
15247370146
15247375334
15247385527
15247392912
15247399687
15247408537
15247417753
15247426237
15247432340
15247439970
15247446684
15247454923
15247462248
15247470182
15247480436
15247488310
15247494901
15247502592
15247509306
15247516019
15247525175
15247531889
15247542570
15247548185
15247557828
15247564603
15247571622
15247578397
15247586759
15247594877
15247604215
15247613309
15247621427
15247629117
15247637296
15247645108
15247653714
15247662748
15247668668
15247678373
15247684598
15247692716
15247700223
15247708097
15247713529
15247723233
15247732083
15247741300
15247749722
15247757779
15247765714
15247773282
15247779996
15247787991
15247795438
15247804898
15247813016
15247821072
15247827847
15247834744
15247844388
15247851956
15247858670
15247867032
15247877713
15247883328
15247890896
15247898282
15247905911
15247911221
15247916287
15247924161
15247931668
15247939236
15247945584
15247951321
15247955960
15247961880
15247967434
15247975369
15247981045
15247986782
15247993008
15247998196
15248003994
15248011135
15248015652
15248023770
15248029995
15248035183
15248040432
15248045010
15248050259
15248055203
15248060940
15248067593
15248073574
15248078518
15248084011
15248088955
15248094814
15248099697
15248108059
15248111843
15248119228
15248122829
15248132168
15248136440
15248144436
15248149013
15248157131
15248163479
15248168911
15248174831
15248181484
15248185634
15248195339
15248203945
15248211513
15248218654
15248227138
15248234768
15248243313
15248250576
15248260036
15248265651
15248277370
15248285488
15248292690
15248299770
15248308376
15248313564
15248323329
15248334255
15248343776
15248352565
15248359645
15248367275
15248374721
15248382106
15248389797
15248398158
15248407436
15248415614
15248422389
15248430446
15248437892
15248446376
15248455409
15248462062
15248471156
15248480434
15248488612
15248496852
15248504725
15248515223
15248521876
15248531459
15248539149
15248545985
15248554896
15248561732
15248569972
15248577784
15248585353
15248592250
15248601405
15248608424
15248616114
15248622828
15248631129
15248637782
15248644740
15248652125
15248661219
15248667994
15248675562
15248683314
15248690943
15248697840
15248704188
15248711756
15248719996
15248727625
15248735255
15248742335
15248748377
15248755274
15248763941
15248769007
15248780726
15248789271
15248796595
15248803187
15248812220
15248819239
15248826563
15248833338
15248843103
15248852442
15248860010
15248866297
15248873804
15248880396
15248890161
15248898279
15248904505
15248914759
15248920801
15248928491
15248936060
15248944422
15248952539
15248958887
15248966760
15248976709
15248984766
15248991724
15249000024
15249006555
15249013330
15249023035
15249031457
15249038904
15249045984
15249054651
15249061426
15249069360
15249075403
15249083642
15249094812
15249101770
15249113244
15249118677
15249127221
15249136255
15249145532
15249154504
15249162072
15249171777
15249178857
15249187097
15249195031
15249203027
15249210534
15249218103
15249225549
15249233789
15249243432
15249251550
15249257226
15249265466
15249272241
15249279199
15249287560
15249294091
15249305810
15249310937
15249320275
15249327599
15249333825
15249344018
15249349084
15249356835
15249365563
15249374474
15249383019
15249389794
15249397484
15249405785
15249413292
15249420678
15249429039
15249437890
15249446557
15249452233
15249462975
15249469323
15249477684
15249486046
15249490929
15249501854
15249509972
15249515526
15249522484
15249531883
15249538597
15249545616
15249552574
15249565025
15249572228
15249579491
15249585777
15249596397
15249602501
15249610497
15249617210
15249625755
15249634178
15249640709
15249646019
15249651756
15249656639
15249662559
15249669151
15249675926
15249682701
15249687034
15249691917
15249697838
15249702598
15249709739
15249714927
15249721031
15249726219
15249731529
15249736473
15249741356
15249747947
15249752891
15249760460
15249765525
15249772300
15249777610
15249783042
15249787620
15249793174
15249797630
15249804954
15249810813
15249815757
15249821617
15249827110
15249833213
15249840843
15249847068
15249854148
15249860618
15249868247
15249873618
15249879112
15249883628
15249889732
15249895713
15249902976
15249909568
15249914878
15249920005
15249927573
15249936240
15249942100
15249950889
15249959739
15249967124
15249975669
15249983115
15249990684
15249998130
15250006064
15250014121
15250018882
15250030356
15250037803
15250045432
15250052146
15250060202
15250069358
15250074301
15250081748
15250089987
15250099326
15250107566
15250114524
15250122031
15250130942
15250139243
15250146201
15250154196
15250161765
15250169943
15250176901
15250184775
15250194724
15250201315
15250209616
15250217551
15250224936
15250232931
15250241415
15250246298
15250255331
15250261984
15250272055
15250279013
15250288107
15250295492
15250300497
15250308493
15250316305
15250325827
15250333334
15250340719
15250347555
15250357504
15250365927
15250374777
15250382223
15250387777
15250394491
15250403646
15250410421
15250420736
15250428793
15250436178
15250443563
15250451864
15250458517
15250466146
15250472921
15250482931
15250490987
15250498739
15250505819
15250513753
15250523397
15250529012
15250536642
15250544820
15250554281
15250560506
15250569173
15250577047
15250584676
15250592550
15250596578
15250606405
15250616170
15250623922
15250632833
15250639974
15250650045
15250657369
15250662618
15250673116
15250678853
15250688130
15250696675
15250704854
15250712422
15250719380
15250727254
15250734761
15250742818
15250750936
15250759297
15250767354
15250775227
15250782552
15250790181
15250797627
15250804829
15250816182
15250821553
15250830098
15250837239
15250845540
15250852376
15250859273
15250868611
15250879109
15250886433
15250891438
15250900166
15250908406
15250916523
15250923970
15250932087
15250941548
15250949788
15250958149
15250965657
15250973957
15250980854
15250988484
15250996540
15251003010
15251012776
15251019062
15251027119
15251034809
15251041889
15251048847
15251056172
15251064900
15251073567
15251080830
15251088459
15251097492
15251104572
15251113056
15251118122
15251126972
15251135578
15251146076
15251151630
15251160053
15251167927
15251175617
15251183124
15251191364
15251197956
15251208881
15251216877
15251223468
15251231708
15251238361
15251245929
15251253986
15251262226
15251271259
15251278644
15251287128
15251293659
15251302631
15251309345
15251317462
15251323749
15251332050
15251339069
15251346698
15251356098
15251363422
15251370807
15251375873
15251380206
15251387470
15251393268
15251398700
15251405414
15251411151
15251416644
15251423114
15251429706
15251436114
15251442950
15251449603
15251456195
15251461749
15251466571
15251471698
15251476642
15251484027
15251490069
15251495624
15251500628
15251506427
15251512835
15251518512
15251523211
15251528643
15251534320
15251539813
15251545245
15251550799
15251556170
15251562152
15251567584
15251573565
15251580584
15251586566
15251592547
15251598040
15251603594
15251607379
15251615191
15251620135
15251627886
15251633013
15251636859
15251642718
15251648760
15251655413
15251661700
15251667620
15251676226
15251684893
15251693011
15251700335
15251708636
15251715655
15251723894
15251730181
15251738299
15251748553
15251754717
15251763628
15251768816
15251777727
15251784502
15251789385
15251801470
15251809954
15251817217
15251825274
15251832537
15251841570
15251848345
15251855242
15251863359
15251871965
15251881426
15251886858
15251895159
15251903520
15251911455
15251919084
15251925981
15251934526
15251942339
15251951006
15251958269
15251965776
15251972490
15251979448
15251987993
15251994707
15252005998
15252013750
15252021867
15252028825
15252035966
15252044450
15252051469
15252060930
15252070939
15252078081
15252085222
15252094194
15252099565
15252107621
15252115251
15252122270
15252133744
15252141679
15252148149
15252156938
15252164994
15252172197
15252180680
15252188310
15252193742
15252206193
15252214860
15252222489
15252229081
15252236466
15252243485
15252250993
15252259538
15252267411
15252274735
15252282304
15252291215
15252299271
15252305314
15252313004
15252321366
15252326371
15252337968
15252346329
15252352738
15252360001
15252368485
15252375199
15252383927
15252391312
15252400651
15252408219
15252417618
15252424576
15252431961
15252440567
15252446000
15252454361
15252463211
15252471268
15252479874
15252487015
15252495011
15252503678
15252511307
15252517716
15252525894
15252536392
15252544876
15252551285
15252559097
15252565811
15252572830
15252581131
15252590652
15252598709
15252606461
15252615677
15252622391
15252630630
15252637955
15252642837
15252653274
15252658768
15252669754
15252675003
15252682693
15252690323
15252698684
15252706802
15252714859
15252720840
15252730728
15252738784
15252746109
15252754592
15252762588
15252770828
15252776748
15252786636
15252793777
15252801834
15252810256
15252815261
15252824661
15252831252
15252836624
15252846389
15252857253
15252864944
15252870498
15252881423
15252889297
15252896865
15252904800
15252911575
15252923171
15252930862
15252940139
15252948318
15252958877
15252964431
15252974685
15252982070
15252992812
15253001540
15253014418
15253024367
15253031325
15253039870
15253048842
15253058486
15253067214
15253076613
15253084426
15253090468
15253098525
15253107619
15253113417
15253121047
15253130995
15253138258
15253148757
15253153944
15253159560
15253164687
15253169020
15253174696
15253180190
15253185255
15253190199
15253195082
15253200575
15253205763
15253210585
15253216444
15253221022
15253227186
15253232680
15253238356
15253243239
15253250319
15253257155
15253264784
15253272108
15253277235
15253286696
15253293776
15253300245
15253306532
15253313795
15253320265
15253325270
15253331984
15253338148
15253344313
15253350294
15253355543
15253361097
15253368910
15253374830
15253381727
15253387159
15253393812
15253399244
15253405287
15253411756
15253418470
15253423536
15253428846
15253434278
15253440504
15253449354
15253457960
15253465650
15253473768
15253480421
15253489088
15253497633
15253503309
15253514173
15253519422
15253526990
15253537488
15253546033
15253553602
15253560987
15253569227
15253577588
15253585096
15253593152
15253600171
15253608289
15253616468
15253625684
15253633680
15253641797
15253649915
15253658643
15253666150
15253674695
15253680982
15253690686
15253699964
15253707776
15253716931
15253726392
15253735852
15253744397
15253753919
15253763501
15253772839
15253780042
15253789014
15253797620
15253805798
15253813122
15253820752
15253828381
15253836316
15253845349
15253853284
15253860791
15253869031
15253876599
15253882336
15253894055
15253899731
15253909802
15253916760
15253922192
15253930432
15253939160
15253947888
15253953137
15253962475
15253969616
15253977978
15253986096
15253993847
15254002026
15254008557
15254016125
15254024975
15254034008
15254040966
15254048473
15254054882
15254062084
15254068615
15254076489
15254084911
15254091381
15254098888
15254106457
15254114147
15254118786
15254127025
15254133434
15254142101
15254148937
15254156872
15254164867
15254173290
15254179577
15254187206
15254194530
15254204052
15254211437
15254220043
15254228832
15254234813
15254243785
15254250499
15254258312
15254266552
15254274486
15254279674
15254288341
15254295421
15254305065
15254310802
15254318309
15254325450
15254334361
15254343028
15254351695
15254357799
15254365550
15254373424
15254382335
15254389903
15254396129
15254404979
15254412059
15254420726
15254428599
15254435130
15254442760
15254448131
15254457530
15254466441
15254473643
15254479747
15254490184
15254496287
15254504283
15254512828
15254521678
15254530589
15254539256
15254548289
15254558482
15254565806
15254573130
15254581675
15254590403
15254599314
15254607615
15254616099
15254623850
15254631724
15254639536
15254647471
15254654978
15254663950
15254672739
15254680918
15254689402
15254696970
15254703806
15254710947
15254718760
15254724680
15254735178
15254743235
15254749521
15254757639
15254763926
15254770884
15254780161
15254786753
15254796213
15254803354
15254812815
15254819468
15254824717
15254835459
15254841074
15254851633
15254858957
15254865854
15254873667
15254881052
15254889902
15254897043
15254905039
15254910715
15254916330
15254922312
15254927988
15254933176
15254939279
15254944711
15254948251
15254954233
15254959482
15254963876
15254971017
15254977914
15254982675
15254986581
15254993539
15254999399
15255004159
15255011056
15255015817
15255020273
15255025094
15255030282
15255036142
15255040170
15255047067
15255050546
15255057077
15255062448
15255068185
15255073190
15255078805
15255083261
15255089181
15255093942
15255101327
15255107797
15255113412
15255118783
15255124215
15255129831
15255135202
15255139657
15255146798
15255152963
15255157785
15255163888
15255167306
15255173959
15255179940
15255185128
15255190072
15255196786
15255204354
15255210153
15255219735
15255229684
15255237008
15255246102
15255253121
15255262276
15255271859
15255280282
15255287850
15255293160
15255301278
15255310250
15255318978
15255328499
15255336617
15255345467
15255352791
15255360543
15255369149
15255376107
15255383248
15255391488
15255399727
15255406929
15255416878
15255421883
15255432808
15255440682
15255446175
15255453865
15255462044
15255469490
15255478218
15255486946
15255492989
15255500374
15255508431
15255516792
15255523140
15255531502
15255539681
15255547066
15255554756
15255563118
15255571724
15255579414
15255588325
15255595894
15255603706
15255611153
15255616890
15255626778
15255631843
15255639473
15255647774
15255657722
15255665474
15255673347
15255680305
15255687996
15255696541
15255704963
15255712959
15255721260
15255727607
15255735359
15255742195
15255749885
15255758369
15255763984
15255773017
15255779853
15255790412
15255795539
15255803169
15255810981
15255820014
15255826972
15255834052
15255840705
15255849433
15255858100
15255866340
15255874641
15255880805
15255890327
15255896430
15255905646
15255910834
15255919746
15255926704
15255934333
15255942023
15255951362
15255958259
15255965827
15255973945
15255982123
15255990729
15255998481
15256005256
15256014106
15256021735
15256030890
15256040351
15256049506
15256059455
15256068610
15256076972
15256084906
15256095038
15256102545
15256109931
15256118170
15256126898
15256134772
15256141303
15256151007
15256156622
15256166327
15256173346
15256180975
15256189398
15256197089
15256203619
15256213873
15256219916
15256227240
15256236273
15256243719
15256251227
15256259283
15256267950
15256276190
15256284063
15256292608
15256302130
15256311346
15256318243
15256328619
15256335211
15256343328
15256351873
15256360296
15256369329
15256377264
15256385382
15256393560
15256402227
15256410528
15256419378
15256427862
15256434698
15256443060
15256453313
15256461614
15256469671
15256478033
15256485052
15256493291
15256500860
15256508123
15256519231
15256527349
15256534917
15256542425
15256552251
15256559697
15256568670
15256575994
15256585576
15256592717
15256600225
15256609685
15256615117
15256626592
15256634282
15256641118
15256652532
15256660283
15256669927
15256674993
15256680791
15256685674
15256690801
15256697698
15256703801
15256709416
15256714421
15256719304
15256724858
15256731572
15256737615
15256742619
15256754033
15256760014
15256765752
15256770757
15256777531
15256783391
15256788945
15256795354
15256802495
15256807316
15256814458
15256821721
15256828435
15256835393
15256841862
15256847050
15256854008
15256860173
15256865483
15256869938
15256876408
15256881108
15256886174
15256891179
15256896733
15256902531
15256907841
15256913945
15256918644
15256924870
15256930241
15256936406
15256940800
15256949040
15256952824
15256960209
15256965397
15256972233
15256980595
15256987919
15256996342
15257005985
15257014103
15257022282
15257032108
15257041630
15257049931
15257058109
15257066654
15257074528
15257082828
15257091862
15257099979
15257108036
15257116093
15257125431
15257134464
15257141239
15257149540
15257158939
15257167301
15257175785
15257183963
15257191410
15257199527
15257208194
15257216617
15257224369
15257232853
15257240177
15257247379
15257257938
15257263370
15257273258
15257280582
15257290775
15257298099
15257307681
15257315067
15257322757
15257332217
15257339603
15257348941
15257354312
15257365604
15257374271
15257381839
15257389957
15257399417
15257407413
15257414737
15257422305
15257432315
15257439944
15257446536
15257457217
15257463687
15257471866
15257479678
15257487918
15257497134
15257505557
15257513369
15257521670
15257531008
15257539920
15257546817
15257554934
15257565066
15257571414
15257580630
15257589846
15257600527
15257610354
15257618777
15257627810
15257635745
15257645083
15257654787
15257663149
15257670412
15257680605
15257688662
15257697329
15257705996
15257714236
15257721560
15257729372
15257738466
15257746889
15257754152
15257762758
15257771181
15257779543
15257788820
15257795046
15257803103
15257811342
15257820070
15257828554
15257838381
15257846804
15257854616
15257862917
15257871157
15257879396
15257887819
15257896364
15257904909
15257913332
15257920900
15257928224
15257937807
15257945741
15257955995
15257963380
15257968752
15257980775
15257986146
15257997804
15258003236
15258013490
15258022218
15258029664
15258037233
15258047548
15258053102
15258063722
15258071901
15258078309
15258090577
15258097963
15258105653
15258112123
15258120362
15258130860
15258138673
15258145387
15258154359
15258165895
15258173951
15258180543
15258188783
15258197328
15258205506
15258213258
15258221925
15258229737
15258237977
15258246095
15258254334
15258263734
15258272218
15258279908
15258288209
15258298035
15258304383
15258313050
15258321168
15258330384
15258338685
15258346192
15258354798
15258363892
15258372254
15258381165
15258387268
15258396485
15258405457
15258413086
15258420411
15258431275
15258441162
15258452210
15258457764
15258468933
15258478211
15258483948
15258490235
15258498474
15258504089
15258508789
15258515320
15258520569
15258526001
15258532105
15258537048
15258544739
15258549133
15258556274
15258561951
15258566528
15258571411
15258578003
15258584228
15258590637
15258596680
15258601562
15258606750
15258614258
15258619263
15258624328
15258631531
15258637695
15258643432
15258648498
15258653869
15258660400
15258666565
15258671570
15258679931
15258688354
15258695556
15258702087
15258709045
15258716369
15258722107
15258727539
15258731811
15258739746
15258745727
15258752075
15258757141
15258763061
15258767761
15258773437
15258779113
15258786376
15258793090
15258801391
15258808959
15258817321
15258826904
15258833129
15258840881
15258851196
15258859313
15258867614
15258875365
15258882873
15258891540
15258898864
15258908019
15258915038
15258923827
15258930419
15258938781
15258946776
15258955016
15258962645
15258970824
15258980712
15258987426
15258996459
15259004760
15259012755
15259020995
15259028746
15259036315
15259043761
15259050780
15259060301
15259067565
15259076659
15259084715
15259093138
15259101439
15259109252
15259117247
15259121947
15259134947
15259141417
15259148619
15259159666
15259168578
15259180174
15259187865
15259197691
15259206480
15259217100
15259226317
15259234739
15259243101
15259250975
15259260435
15259267210
15259273741
15259281370
15259289122
15259297239
15259306272
15259315184
15259321775
15259331236
15259337828
15259345457
15259352232
15259359861
15259368528
15259376219
15259384031
15259391416
15259398069
15259405699
15259414732
15259422178
15259429380
15259438413
15259446531
15259454832
15259462705
15259470762
15259478696
15259487180
15259495420
15259504148
15259511777
15259519529
15259527341
15259535032
15259543271
15259551267
15259558469
15259565854
15259574826
15259582029
15259589597
15259597837
15259606504
15259613706
15259622190
15259632321
15259640744
15259647519
15259658689
15259665525
15259674008
15259684201
15259692502
15259699460
15259708066
15259714902
15259725644
15259732907
15259741269
15259749142
15259757748
15259763852
15259771298
15259780698
15259788083
15259796811
15259804379
15259812070
15259822629
15259828305
15259838681
15259846371
15259854123
15259862790
15259872433
15259880795
15259888485
15259897030
15259904049
15259912655
15259920956
15259929257
15259938229
15259943844
15259953915
15259961300
15259966732
15259978390
15259989254
15259998287
15260004818
15260012936
15260022823
15260030453
15260038998
15260047543
15260056087
15260066097
15260073849
15260080807
15260087765
15260094234
15260103695
15260109737
15260117489
15260124569
15260134517
15260141353
15260149044
15260157406
15260165096
15260171444
15260179317
15260187923
15260195552
15260202083
15260209957
15260218318
15260227230
15260235164
15260244014
15260251766
15260259151
15260268245
15260275630
15260284236
15260291683
15260299800
15260307124
15260311397
15260317317
15260325374
15260331966
15260336238
15260342464
15260348811
15260354671
15260361568
15260366573
15260373042
15260379512
15260384273
15260390620
15260396846
15260401973
15260408381
15260413997
15260419856
15260426143
15260433040
15260437861
15260443599
15260449580
15260456233
15260461116
15260467158
15260472895
15260480037
15260485652
15260490901
15260497065
15260503230
15260509822
15260516230
15260523371
15260528620
15260533930
15260539241
15260546443
15260552363
15260558406
15260564936
15260573115
15260577937
15260584773
15260591242
15260595881
15260601862
15260607356
15260619868
15260628046
15260636408
15260642695
15260652399
15260661005
15260673029
15260681513
15260688837
15260696955
15260705317
15260714228
15260722346
15260731318
15260738703
15260750483
15260762629
15260770624
15260779718
15260788996
15260797724
15260806086
15260814386
15260823358
15260831537
15260839655
15260847895
15260856012
15260862665
15260871393
15260881159
15260891596
15260901727
15260910577
15260921259
15260929559
15260936884
15260945062
15260953058
15260961542
15260968927
15260977594
15260985834
15260994012
15261001642
15261009271
15261018182
15261026544
15261033563
15261040887
15261051568
15261059442
15261066156
15261073968
15261083917
15261094354
15261102288
15261110833
15261119073
15261125299
15261133294
15261141229
15261149224
15261157647
15261165948
15261172112
15261180230
15261188104
15261194940
15261202935
15261212151
15261219537
15261226312
15261234368
15261243340
15261248772
15261258599
15261266412
15261272881
15261282525
15261290826
15261299798
15261307488
15261314080
15261322381
15261329644
15261340020
15261347466
15261356438
15261362969
15261373711
15261381035
15261389824
15261397698
15261406182
15261414543
15261422417
15261432549
15261440789
15261449211
15261456902
15261465935
15261473931
15261482414
15261491997
15261498406
15261507561
15261517387
15261525017
15261535515
15261544426
15261555901
15261565178
15261573051
15261585014
15261595451
15261605949
15261613701
15261620476
15261630302
15261637138
15261645012
15261651725
15261661308
15261668815
15261677848
15261685600
15261693779
15261701469
15261709281
15261717521
15261724418
15261733757
15261740531
15261748466
15261755302
15261764701
15261773124
15261781730
15261788749
15261797721
15261807060
15261813895
15261821952
15261830741
15261840263
15261849174
15261857169
15261864493
15261871879
15261878532
15261888724
15261895438
15261904288
15261911979
15261921805
15261929923
15261937552
15261946525
15261956900
15261964286
15261972403
15261981742
15261989615
15261995230
15262003470
15262013663
15262021842
15262029349
15262037650
15262044242
15262051322
15262055899
15262064200
15262073721
15262080740
15262085379
15262091239
15262096793
15262101737
15262108023
15262114249
15262121207
15262127737
15262133414
15262139395
15262146536
15262152396
15262159415
15262165823
15262171255
15262176382
15262182730
15262190420
15262195486
15262202688
15262209097
15262213858
15262219595
15262225332
15262230948
15262238516
15262245779
15262255850
15262261892
15262269400
15262275503
15262282034
15262289663
15262296438
15262300894
15262307791
15262313406
15262318777
15262323904
15262329336
15262334707
15262341299
15262349111
15262356924
15262365591
15262372915
15262382375
15262389822
15262395376
15262407034
15262412710
15262420644
15262428945
15262438528
15262446523
15262454214
15262462759
15262470449
15262478994
15262487600
15262495840
15262503530
15262508962
15262519582
15262527883
15262534536
15262542409
15262552541
15262559865
15262569814
15262577138
15262584829
15262591726
15262600087
15262609304
15262617604
15262625905
15262632070
15262639943
15262648793
15262656301
15262663747
15262673085
15262681020
15262690358
15262697743
15262706166
15262712941
15262721608
15262731496
15262739003
15262746266
15262754811
15262762074
15262772267
15262779225
15262787831
15262796803
15262805226
15262811574
15262819996
15262829152
15262837574
15262844410
15262852101
15262860463
15262867970
15262876759
15262883595
15262892323
15262901905
15262912892
15262920826
15262929066
15262936085
15262944630
15262951771
15262962513
15262970814
15262977955
15262985951
15262993519
15263001881
15263010731
15263015675
15263027271
15263035206
15263045887
15263053455
15263061939
15263070911
15263079822
15263088001
15263101917
15263110218
15263118702
15263127369
15263135730
15263144520
15263151600
15263161548
15263170887
15263179309
15263187000
15263196338
15263204883
15263213428
15263220752
15263228870
15263239612
15263247669
15263253833
15263261707
15263270740
15263278125
15263285266
15263293872
15263306873
15263315051
15263322620
15263328784
15263335864
15263345142
15263352893
15263362109
15263369678
15263378100
15263386767
15263395129
15263402820
15263409717
15263417651
15263424975
15263432483
15263439990
15263447802
15263453784
15263460559
15263468921
15263478564
15263484790
15263491320
15263500231
15263507067
15263516284
15263523059
15263530810
15263537585
15263546130
15263554553
15263559496
15263567065
15263574633
15263582018
15263589709
15263598620
15263607287
15263615527
15263623644
15263630053
15263639696
15263645922
15263653612
15263661181
15263668993
15263676317
15263683947
15263692492
15263700365
15263708361
15263715990
15263723192
15263731432
15263739733
15263747545
15263754747
15263762621
15263770983
15263778551
15263785082
15263792711
15263800219
15263808214
15263817552
15263825853
15263832567
15263840074
15263846605
15263852892
15263863756
15263870775
15263878587
15263884508
15263891344
15263897020
15263902208
15263908006
15263912584
15263918260
15263925096
15263931871
15263937181
15263942674
15263947435
15263953783
15263958482
15263964159
15263969408
15263975511
15263982103
15263986009
15263992174
15263999193
15264005174
15264011766
15264018419
15264022935
15264028978
15264035631
15264040452
15264048082
15264056566
15264062547
15264067247
15264073167
15264079576
15264083665
15264091050
15264098252
15264106431
15264111619
15264117478
15264123399
15264130540
15264135545
15264141343
15264146714
15264154954
15264163255
15264172166
15264179368
15264187730
15264195603
15264204087
15264212022
15264220567
15264228318
15264236497
15264243455
15264250840
15264259019
15264268784
15264276597
15264283249
15264291550
15264301560
15264306931
15264317002
15264324997
15264331833
15264339280
15264346177
15264355698
15264365769
15264371262
15264382309
15264387619
15264396469
15264404892
15264412277
15264422959
15264430100
15264438584
15264445725
15264453842
15264466049
15264475876
15264487045
15264498825
15264509872
15264521164
15264530930
15264542526
15264557297
15264567367
15264583175
15264594833
15264607956
15264623153
15264638473
15264653732
15264669296
15264678512
15264686691
15264694198
15264702255
15264712142
15264722640
15264731307
15264742355
15264752914
15264762496
15264772750
15264782760
15264790084
15264803085
15264812301
15264821273
15264830001
15264839767
15264848495
15264858016
15264867171
15264878829
15264888228
15264896041
15264905623
15264913375
15264924910
15264932967
15264944930
15264953597
15264962874
15264971785
15264981002
15264989669
15264999495
15265008406
15265017806
15265026900
15265036543
15265046187
15265055525
15265065352
15265076643
15265087080
15265097212
15265107588
15265117903
15265128279
15265137373
15265150130
15265159712
15265169417
15265179426
15265188948
15265198897
15265208601
15265218977
15265228743
15265239424
15265249617
15265258955
15265271101
15265280317
15265289839
15265298506
15265308637
15265319929
15265329939
15265341596
15265351301
15265361860
15265381330
15265397138
15265405683
15265414777
15265433271
15265451215
15265469160
15265486860
15265507428
15265527448
15265549360
15265571637
15265591718
15265616864
15265638043
15265653058
15265668317
15265680097
15265691022
15265703839
15265724652
15265743085
15265762616
15265781476
15265795392
15265806134
15265815289
15265825116
15265836407
15265847638
15265858136
15265868389
15265877728
15265885662
15265897198
15265907208
15265915814
15265924725
15265935528
15265944927
15265954998
15265964214
15265974651
15265984234
15265992291
15266001629
15266015972
15266023907
15266030926
15266039043
15266046429
15266054180
15266061321
15266068950
15266078045
15266086895
15266094463
15266101604
15266108989
15266118755
15266127544
15266134014
15266141094
15266149761
15266157085
15266164104
15266173259
15266179302
15266184001
15266188640
15266192729
15266197002
15266201824
15266206096
15266210796
15266214702
15266219402
15266223308
15266226970
15266232280
15266237041
15266241435
15266246562
15266250285
15266255596
15266260234
15266265178
15266269389
15266274150
15266279033
15266283916
15266288066
15266292949
15266298930
15266305949
15266313945
15266320476
15266328288
15266336040
15266341838
15266351054
15266361674
15266368205
15266377971
15266386027
15266394267
15266401042
15266407206
15266415080
15266425212
15266431071
15266438456
15266447673
15266454325
15266462382
15266472697
15266479960
15266487956
15266495280
15266502116
15266510905
15266519389
15266526591
15266533427
15266541728
15266549296
15266556559
15266564372
15266573161
15266581217
15266587748
15266595683
15266604472
15266613016
15266622294
15266630167
15266638590
15266645426
15266652994
15266660258
15266667521
15266674967
15266682108
15266690043
15266698221
15266704935
15266713785
15266721415
15266730021
15266737589
15266746317
15266754618
15266761576
15266769571
15266777567
15266786600
15266794351
15266803385
15266811869
15266821634
15266827982
15266837320
15266844034
15266854166
15266862161
15266870828
15266878885
15266886148
15266894632
15266902078
15266910196
15266918253
15266927347
15266935953
15266944498
15266952493
15266960733
15266969095
15266978006
15266985513
15266993875
15267001016
15267009317
15267017373
15267025613
15267033670
15267042764
15267050821
15267060952
15267073281
15267083657
15267093850
15267102090
15267110024
15267120278
15267128518
15267134316
15267145425
15267153542
15267160867
15267169412
15267176064
15267184731
15267192178
15267200906
15267209389
15267217446
15267225686
15267234048
15267243325
15267249428
15267257729
15267265969
15267274758
15267282387
15267288796
15267296670
15267305764
15267313820
15267320717
15267327431
15267337014
15267344460
15267352578
15267360146
15267367531
15267375222
15267383827
15267390236
15267399208
15267407448
15267417214
15267423317
15267430885
15267438759
15267446571
15267454018
15267462196
15267470985
15267478737
15267486549
15267494911
15267503395
15267511391
15267518166
15267526527
15267534767
15267543068
15267553200
15267559425
15267568641
15267577308
15267583778
15267590858
15267601417
15267609901
15267617469
15267625282
15267635170
15267642494
15267647865
15267658485
15267667579
15267674781
15267682899
15267688087
15267693275
15267699317
15267704688
15267710792
15267715248
15267720863
15267727271
15267733802
15267739417
15267744300
15267750037
15267755164
15267760047
15267767310
15267773048
15267778480
15267784827
15267792274
15267795753
15267803626
15267809364
15267814796
15267820472
15267826636
15267833411
15267838782
15267845923
15267853187
15267860633
15267866248
15267872535
15267877357
15267882117
15267888770
15267894507
15267899573
15267906836
15267912085
15267916724
15267923560
15267929419
15267934241
15267938819
15267945716
15267951453
15267956641
15267964026
15267969031
15267975440
15267980994
15267988318
15267996253
15268005652
15268013587
15268021216
15268029761
15268037268
15268045020
15268052466
15268060095
15268068152
15268078955
15268086829
15268095129
15268103735
15268110022
15268119116
15268127295
15268136572
15268145239
15268153418
15268161474
15268168005
15268175329
15268184302
15268191992
15268202124
15268209448
15268216955
15268223547
15268232092
15268241552
15268249792
15268257849
15268263708
15268272375
15268280737
15268289953
15268295263
15268306005
15268311193
15268320654
15268328344
15268336767
15268343847
15268354650
15268361791
15268367407
15268379064
15268386388
15268393041
15268401342
15268410497
15268418859
15268427465
15268435644
15268444799
15268451086
15268459264
15268467443
15268476903
15268481969
15268493627
15268498998
15268509618
15268516881
15268524328
15268531224
15268541906
15268549230
15268556615
15268563878
15268572545
15268582311
15268590245
15268597508
15268605687
15268613500
15268622594
15268632909
15268643041
15268651402
15268659642
15268670628
15268678075
15268683873
15268696446
15268705846
15268714146
15268723912
15268731236
15268739171
15268745885
15268752659
15268761448
15268771824
15268781590
15268789830
15268798131
15268806614
15268813817
15268821751
15268831150
15268839207
15268846104
15268855687
15268862278
15268869664
15268876316
15268885350
15268892552
15268900669
15268909764
15268914463
15268924351
15268931919
15268939121
15268946629
15268954624
15268964329
15268972752
15268980137
15268986790
15268996250
15269003025
15269011326
15269020115
15269027744
15269034885
15269042515
15269048679
15269056125
15269064182
15269071628
15269080723
15269091343
15269098972
15269107029
15269114170
15269122471
15269130771
15269138950
15269146885
15269151645
15269160495
15269167331
15269175876
15269182834
15269192966
15269199924
15269208896
15269216098
15269223667
15269230991
15269238498
15269245761
15269254001
15269263400
15269271823
15269280429
15269289401
15269297031
15269305514
15269312533
15269321323
15269328891
15269337192
15269346103
15269355014
15269363925
15269372348
15269378940
15269386203
15269395907
15269403232
15269408542
15269419650
15269425509
15269435336
15269443515
15269453891
15269462680
15269471835
15269478671
15269488375
15269497653
15269506198
15269513583
15269519381
15269524142
15269529269
15269534152
15269539645
15269545504
15269550753
15269555575
15269561373
15269566988
15269572482
15269577731
15269583224
15269589632
15269595065
15269600069
15269605257
15269610506
15269615816
15269622408
15269627291
15269634432
15269640719
15269644564
15269650851
15269656649
15269662508
15269668123
15269673739
15269679964
15269686068
15269692415
15269697237
15269702852
15269709322
15269713961
15269721224
15269726351
15269733065
15269738192
15269741976
15269749056
15269754915
15269761812
15269766939
15269771578
15269778231
15269784700
15269792085
15269800203
15269808992
15269816622
15269824800
15269831209
15269839937
15269849825
15269858003
15269864046
15269871553
15269881563
15269889131
15269894380
15269905550
15269913606
15269920198
15269928377
15269935396
15269944063
15269952241
15269960176
15269968233
15269976899
15269985689
15269994111
15270000459
15270007600
15270016084
15270023713
15270033052
15270040559
15270049531
15270058869
15270064241
15270072663
15270080415
15270089936
15270097810
15270105805
15270114228
15270122224
15270130219
15270138337
15270147187
15270155061
15270162873
15270175568
15270184296
15270199189
15270209565
15270223481
15270230134
15270242036
15270247895
15270257599
15270265717
15270272797
15270280793
15270290436
15270299042
15270305756
15270313874
15270322541
15270328766
15270337311
15270344513
15270354218
15270362274
15270366608
15270377106
15270387482
15270394440
15270402680
15270409516
15270417572
15270425324
15270433319
15270441742
15270452362
15270459991
15270466156
15270475494
15270484100
15270492218
15270498138
15270507660
15270512848
15270527191
15270535919
15270544220
15270552521
15270560455
15270568329
15270576507
15270585296
15270592804
15270600921
15270609527
15270617706
15270624481
15270632476
15270641510
15270648284
15270658905
15270666351
15270672760
15270680450
15270688690
15270696441
15270704193
15270712432
15270719817
15270730193
15270737762
15270747649
15270755096
15270763030
15270772491
15270781219
15270788543
15270798247
15270806060
15270812530
15270819427
15270829192
15270833953
15270844451
15270852874
15270860076
15270867949
15270876311
15270884490
15270891692
15270900298
15270910064
15270918059
15270925505
15270935698
15270942717
15270950469
15270957732
15270966582
15270974150
15270981841
15270989775
15270998625
15271008147
15271017241
15271023955
15271033598
15271045195
15271053252
15271061613
15271070403
15271078215
15271086638
15271098173
15271107024
15271113859
15271123991
15271131315
15271139921
15271147673
15271155913
15271163054
15271173857
15271182524
15271190703
15271197783
15271206022
15271213224
15271221586
15271231291
15271236479
15271246855
15271254118
15271260649
15271266203
15271272001
15271276518
15271282133
15271288420
15271294889
15271301359
15271307340
15271313139
15271318754
15271324369
15271330717
15271335722
15271341520
15271347807
15271354032
15271358549
15271363676
15271369596
15271375089
15271382719
15271387785
15271394681
15271399564
15271405180
15271412137
15271417264
15271421903
15271428068
15271438260
15271444303
15271450101
15271455655
15271461698
15271467252
15271472867
15271478788
15271484647
15271491483
15271498807
15271505216
15271511197
15271516874
15271521634
15271527311
15271533597
15271539823
15271543973
15271549100
15271555692
15271561246
15271568509
15271575406
15271583890
15271593656
15271602811
15271609525
15271617764
15271625150
15271633511
15271642972
15271652066
15271661343
15271668057
15271677457
15271686978
15271694974
15271703702
15271712735
15271718716
15271727200
15271739651
15271750699
15271760098
15271768155
15271777188
15271786709
15271798123
15271805142
15271816250
15271822476
15271829922
15271837124
15271844082
15271852017
15271860073
15271867398
15271875149
15271883328
15271890225
15271899990
15271908108
15271916653
15271924954
15271933621
15271941921
15271949673
15271957424
15271964321
15271972012
15271981289
15271988247
15271993374
15272002407
15272012417
15272019863
15272024929
15272034206
15272042019
15272049282
15272057094
15272065273
15272072597
15272081752
15272090786
15272098354
15272106838
15272114894
15272122768
15272129604
15272138027
15272145290
15272153652
15272161403
15272169643
15272176906
15272182094
15272191982
15272199611
15272208461
15272216091
15272224696
15272231654
15272236903
15272244472
15272253139
15272261073
15272269740
15272278407
15272284267
15272291652
15272300380
15272308986
15272314906
15272322291
15272329738
15272339625
15272348231
15272355006
15272362208
15272373866
15272379481
15272389064
15272396144
15272404383
15272430018
15272436305
15272447596
15272453028
15272461695
15272470179
15272479945
15272488124
15272496119
15272503504
15272512354
15272519984
15272528224
15272536585
15272545496
15272554224
15272562647
15272569422
15272578516
15272588404
15272598170
15272607203
15272613795
15272621607
15272632593
15272640711
15272645960
15272657679
15272663050
15272671412
15272680567
15272689539
15272697107
15272704554
15272712549
15272721277
15272729090
15272735987
15272744226
15272751978
15272759302
15272766992
15272775049
15272782923
15272790979
15272797998
15272806421
15272815576
15272823877
15272832666
15272841882
15272850061
15272857874
15272866724
15272873315
15272880395
15272888879
15272896142
15272903039
15272910425
15272919336
15272927270
15272937158
15272944909
15272951379
15272959985
15272968042
15272976404
15272984216
15272992273
15273000695
15273008813
15273015893
15273024133
15273032678
15273041528
15273048242
15273054895
15273060632
15273066125
15273072961
15273078027
15273083215
15273089990
15273095422
15273100427
15273106286
15273112267
15273118920
15273124596
15273130639
15273135949
15273141442
15273147363
15273153039
15273158959
15273165063
15273171593
15273177148
15273182275
15273188622
15273193566
15273198510
15273203698
15273210961
15273216332
15273220971
15273227502
15273232445
15273239892
15273247216
15273253869
15273259301
15273267296
15273272789
15273280358
15273285546
15273290307
15273297203
15273302575
15273309288
15273316368
15273321556
15273328270
15273335106
15273341820
15273348717
15273353539
15273362938
15273369896
15273374657
15273380211
15273385582
15273390221
15273393395
15273401085
15273408287
15273413780
15273418236
15273422814
15273429100
15273434166
15273440086
15273444664
15273453575
15273457481
15273464500
15273469566
15273475182
15273482078
15273485863
15273491905
15273498680
15273504661
15273510887
15273516502
15273522056
15273527916
15273534019
15273539146
15273545189
15273552513
15273559837
15273565208
15273570579
15273575828
15273581443
15273587181
15273593040
15273599815
15273605613
15273611473
15273617210
15273622825
15273628807
15273635093
15273641136
15273647422
15273653526
15273658958
15273664695
15273670188
15273675865
15273682212
15273688072
15273693931
15273700340
15273705833
15273711814
15273718040
15273723838
15273728782
15273734641
15273740134
15273747825
15273752464
15273757774
15273763389
15273768821
15273775718
15273780723
15273789207
15273795371
15273802329
15273807517
15273814414
15273821311
15273828391
15273835776
15273843223
15273849143
15273856223
15273860129
15273870688
15273879660
15273884055
15273893760
15273901755
15273913657
15273923911
15273936667
15273946433
15273955222
15273967612
15273975974
15273983847
15273993491
15274000205
15274008078
15274016928
15274024130
15274031577
15274037924
15274044882
15274053671
15274059653
15274068381
15274077414
15274083212
15274088766
15274097861
15274106528
15274111532
15274125204
15274132406
15274140097
15274145651
15274150046
15274157858
15274164450
15274168417
15274175802
15274182272
15274188009
15274194662
15274200583
15274207052
15274213461
15274222006
15274227804
15274233602
15274238546
15274243795
15274248739
15274254904
15274259054
15274264913
15274269735
15274275167
15274280538
15274286703
15274291036
15274294271
15274300619
15274309835
15274315328
15274321615
15274326132
15274331625
15274335836
15274339315
15274346212
15274352804
15274357442
15274360677
15274368917
15274373251
15274379354
15274384847
15274390035
15274396444
15274401571
15274407918
15274414388
15274419698
15274424093
15274428853
15274434469
15274439290
15274446187
15274450094
15274455953
15274461934
15274465047
15274472127
15274477376
15274481771
15274486104
15274493245
15274499593
15274504842
15274511129
15274517598
15274523885
15274532308
15274537557
15274543965
15274549459
15274556050
15274561299
15274567769
15274573873
15274581502
15274589253
15274598531
15274602071
15274608907
15274616109
15274623189
15274628438
15274635396
15274641927
15274647420
15274652242
15274658101
15274664449
15274670796
15274675557
15274681538
15274687398
15274691487
15274697285
15274702473
15274707173
15274713643
15274718587
15274724568
15274729634
15274736043
15274741902
15274749043
15274755330
15274759602
15274766438
15274771626
15274777729
15274782978
15274789753
15274795552
15274799885
15274805622
15274812275
15274819966
15274826557
15274832112
15274838032
15274844502
15274849018
15274855427
15274862324
15274867512
15274871296
15274879414
15274885517
15274892780
15274898090
15274902180
15274908283
15274914570
15274919636
15274927082
15274932026
15274937946
15274943073
15274949665
15274954304
15274960896
15274966999
15274974079
15274979694
15274985737
15274991535
15274997517
15275003925
15275008564
15275014545
15275019855
15275025837
15275031696
15275038349
15275043110
15275048847
15275054706
15275061908
15275066913
15275074054
15275079975
15275085956
15275091388
15275097309
15275103595
15275108173
15275114765
15275120014
15275126850
15275132831
15275137836
15275143939
15275148090
15275155414
15275160785
15275166217
15275174030
15275180377
15275186725
15275192523
15275199298
15275205036
15275213153
15275218524
15275223041
15275232928
15275238483
15275245746
15275253436
15275257526
15275264850
15275270404
15275275165
15275281268
15275286517
15275292377
15275299213
15275304217
15275311420
15275315753
15275321856
