15044789915
15044796934
15044802183
15044807920
15044814085
15044820371
15044825681
15044832761
15044838438
15044843992
15044850217
15044856199
15044861936
15044867857
15044874021
15044880430
15044886472
15044893613
15044899229
15044905454
15044912107
15044917722
15044924314
15044931089
15044938535
15044944517
15044952146
15044959653
15044967038
15044973813
15044982114
15044987485
15044994993
15045000547
15045011228
15045018003
15045024228
15045030088
15045038633
15045044492
15045051694
15045058530
15045063474
15045072080
15045078794
15045087522
15045094907
15045100583
15045106198
15045112607
15045118039
15045124570
15045132260
15045138913
15045144467
15045150143
15045157529
15045162839
15045169431
15045175656
15045182309
15045187192
15045194028
15045201291
15045205685
15045212643
15045218686
15045224057
15045230527
15045237546
15045243527
15045250241
15045254208
15045262692
15045267148
15045274228
15045282956
15045287899
15045295224
15045300290
15045309018
15045312252
15045320431
15045327084
15045334469
15045341305
15045346859
15045354183
15045359982
15045366879
15045372616
15045380001
15045387020
15045391903
15045400387
15045406368
15045411190
15045417111
15045424191
15045432003
15045437740
15045443783
15045450314
15045456478
15045463558
15045469845
15045478634
15045484127
15045489925
15045497311
15045505794
15045512569
15045519710
15045526790
15045532894
15045539608
15045545955
15045552913
15045558956
15045564327
15045571834
15045580135
15045587093
15045592586
15045599666
15045605220
15045612362
15045617183
15045624324
15045631893
15045637020
15045645443
15045654964
15045661129
15045668025
15045674190
15045681209
15045687496
15045693355
15045701045
15045707942
15045713619
15045720821
15045726375
15045733333
15045740840
15045747249
15045752193
15045760432
15045765254
15045773006
15045778621
15045786250
15045789668
15045798213
15045801326
15045809871
15045814998
15045822139
15045828670
15045835994
15045841548
15045848872
15045854609
15045860347
15045867366
15045873103
15045879939
15045887996
15045893977
15045901545
15045907039
15045914668
15045922114
15045927363
15045936579
15045942073
15045949092
15045954035
15045962519
15045970027
15045976557
15045984370
15045991084
15045997492
15046004023
15046010859
15046019587
15046023310
15046035151
15046043696
15046051081
15046057734
15046065791
15046073298
15046080195
15046087153
15046093928
15046098383
15046111567
15046118769
15046126154
15046132746
15046141962
15046149042
15046155817
15046165766
15046172785
15046178888
15046185907
15046192926
15046199701
15046207453
15046214350
15046221369
15046228998
15046236444
15046243341
15046250666
15046255854
15046261652
15046270929
15046278742
15046285883
15046291925
15046300043
15046307733
15046314630
15046320001
15046327081
15046333307
15046342706
15046349847
15046356195
15046362787
15046368097
15046374017
15046380853
15046386041
15046392755
15046399469
15046407159
15046412225
15046419977
15046427240
15046432794
15046441339
15046446405
15046454278
15046459894
15046464959
15046467645
15046474603
15046480829
15046488153
15046491082
15046499383
15046503473
15046510003
15046515130
15046520318
15046527093
15046532708
15046539788
15046544427
15046548944
15046555108
15046562432
15046568170
15046571954
15046579522
15046585076
15046590875
15046595330
15046600579
15046605950
15046612237
15046618218
15046624749
15046629693
15046638177
15046644769
15046650872
15046661431
15046667962
15046675042
15046682915
15046690667
15046699090
15046706475
15046714776
15046723015
15046728875
15046736809
15046744805
15046753655
15046760064
15046768670
15046775628
15046784478
15046790947
15046798088
15046805413
15046815239
15046823540
15046828850
15046836846
15046845208
15046854241
15046860222
15046869133
15046877861
15046886528
15046891045
15046900261
15046906853
15046916191
15046922783
15046930412
15046937920
15046947136
15046954704
15046963249
15046970940
15046978813
15046986015
15046993767
15047001945
15047010856
15047019462
15047027092
15047034355
15047039970
15047050224
15047052360
15047064934
15047073356
15047081535
15047088615
15047097099
15047103263
15047113029
15047119621
15047129753
15047137199
15047144218
15047155021
15047163017
15047171195
15047179008
15047188774
15047196403
15047203788
15047212272
15047220756
15047227470
15047234061
15047241019
15047250175
15047255912
15047265189
15047273612
15047280631
15047288688
15047295341
15047300895
15047310905
15047317252
15047327018
15047335380
15047342582
15047348868
15047356559
15047364127
15047373038
15047379874
15047387320
15047396781
15047405143
15047413565
15047419730
15047428519
15047435965
15047441825
15047448905
15047458243
15047466605
15047474784
15047480521
15047489066
15047496085
15047503348
15047511282
15047518057
15047527274
15047536490
15047542654
15047551382
15047557608
15047564627
15047573843
15047580923
15047589163
15047596792
15047604605
15047611807
15047619742
15047627127
15047635061
15047642325
15047647024
15047657400
15047666006
15047673941
15047680227
15047688467
15047696829
15047704397
15047711355
15047720388
15047727102
15047736685
15047742483
15047750112
15047758779
15047764395
15047773062
15047782949
15047789602
15047796743
15047805471
15047810720
15047819692
15047827322
15047834219
15047843679
15047852895
15047857717
15047867117
15047874563
15047882314
15047889150
15047896963
15047905996
15047913991
15047922475
15047930837
15047939138
15047948232
15047955678
15047964467
15047974172
15047982900
15047990224
15047998647
15048005666
15048013967
15048022267
15048030263
15048038625
15048047414
15048055409
15048064015
15048071584
15048079579
15048084462
15048089589
15048095509
15048102223
15048109181
15048113698
15048120534
15048124379
15048133107
15048137746
15048144826
15048149525
15048156544
15048161305
15048168263
15048173634
15048179250
15048186574
15048192250
15048198231
15048201893
15048209096
15048215077
15048221303
15048227650
15048234242
15048240651
15048246449
15048252125
15048259266
15048265126
15048270375
15048276051
15048282277
15048287892
15048291981
15048297902
15048303517
15048311024
15048315480
15048322438
15048328602
15048333790
15048339283
15048344349
15048351246
15048358631
15048366810
15048374806
15048384998
15048391346
15048397633
15048407215
15048414539
15048422047
15048429981
15048437183
15048442860
15048451649
15048460682
15048466419
15048473988
15048482777
15048490894
15048498951
15048505787
15048511402
15048520801
15048534107
15048540516
15048549488
15048558094
15048567249
15048572925
15048581897
15048589527
15048596302
15048604358
15048613269
15048624134
15048632434
15048641101
15048648548
15048655567
15048663440
15048669910
15048680103
15048686328
15048693225
15048700061
15048708484
15048715137
15048722888
15048729297
15048740039
15048747485
15048757068
15048763721
15048771655
15048779895
15048787341
15048793384
15048803577
15048812121
15048819385
15048827075
15048835193
15048843677
15048851550
15048860766
15048869555
15048877734
15048885363
15048894275
15048901721
15048909838
15048917102
15048922717
15048931689
15048938281
15048946826
15048955065
15048964465
15048971240
15048981677
15048988085
15048998461
15049005908
15049012194
15049019701
15049027331
15049035387
15049043017
15049050524
15049057543
15049066637
15049072985
15049081774
15049088183
15049098009
15049106127
15049116686
15049124865
15049134630
15049145128
15049154650
15049160082
15049168627
15049177477
15049183397
15049192736
15049201220
15049206163
15049211595
15049220507
15049228380
15049236376
15049244982
15049252428
15049261034
15049269151
15049277086
15049283800
15049292894
15049300951
15049309190
15049317247
15049325914
15049333360
15049339403
15049349962
15049358018
15049366746
15049375474
15049384752
15049392625
15049399950
15049410448
15049419359
15049427110
15049434434
15049443284
15049453111
15049459947
15049467698
15049477586
15049485215
15049496019
15049504014
15049512986
15049520433
15049527269
15049534898
15049542588
15049551866
15049558091
15049566453
15049574265
15049581223
15049588426
15049596482
15049603684
15049612656
15049619370
15049627488
15049635606
15049643113
15049651047
15049659348
15049667222
15049674607
15049682725
15049690720
15049698350
15049707139
15049713669
15049721543
15049729722
15049739548
15049745957
15049751938
15049757004
15049762986
15049768967
15049775803
15049782212
15049787033
15049792466
15049796799
15049802536
15049807602
15049813523
15049820237
15049826767
15049831406
15049837082
15049842942
15049848374
15049853745
15049859299
15049863022
15049870590
15049875290
15049881821
15049885117
15049893906
15049898972
15049904648
15049911057
15049916611
15049922836
15049926682
15049933395
15049939926
15049945724
15049950668
15049955917
15049961838
15049967758
15049971970
15049978744
15049983505
15049990524
15049995285
15050001388
15050004623
15050012619
15050019272
15050025924
15050032882
15050041000
15050048568
15050054733
15050062301
15050073105
15050080001
15050091232
15050097213
15050107284
15050113449
15050121017
15050131149
15050139389
15050146591
15050157089
15050163009
15050171493
15050177841
15050185714
15050194625
15050203292
15050210922
15050219161
15050226180
15050231734
15050241500
15050248214
15050256210
15050263656
15050271651
15050279952
15050287765
15050293746
15050301497
15050307784
15050317428
15050323836
15050333053
15050342025
15050349471
15050355513
15050362105
15050371260
15050377852
15050387374
15050396651
15050403609
15050413558
15050420394
15050427657
15050436324
15050441329
15050450545
15050459273
15050466475
15050472457
15050482283
15050487227
15050496626
15050503829
15050511824
15050516158
15050526778
15050534285
15050541853
15050547713
15050556013
15050564375
15050572798
15050580183
15050587996
15050596724
15050602827
15050611555
15050616255
15050625532
15050632551
15050641218
15050650251
15050660078
15050665144
15050674604
15050679487
15050689558
15050696699
15050704084
15050710493
15050720381
15050727949
15050733381
15050740522
15050749250
15050757795
15050765608
15050771894
15050781355
15050787702
15050795820
15050804060
15050810835
15050817426
15050824995
15050832136
15050841047
15050848493
15050856855
15050863996
15050870954
15050882062
15050889387
15050897565
15050904767
15050915632
15050922284
15050930219
15050937421
15050945112
15050952192
15050959638
15050968671
15050979108
15050984906
15050994977
15051002057
15051009565
15051016645
15051023908
15051030316
15051038739
15051045514
15051053632
15051060102
15051068036
15051076886
15051084882
15051090924
15051102216
15051108685
15051117413
15051124554
15051132245
15051139081
15051146954
15051154340
15051163251
15051170392
15051176495
15051184918
15051189313
15051200848
15051207501
15051215436
15051222943
15051232403
15051241253
15051246563
15051255414
15051262677
15051270733
15051279217
15051286419
15051294110
15051301556
15051306683
15051314678
15051322552
15051331463
15051339886
15051345928
15051352459
15051362164
15051371441
15051377545
15051383892
15051393231
15051400555
15051408611
15051416241
15051424664
15051432293
15051440166
15051447674
15051455730
15051462810
15051470501
15051476116
15051481792
15051486736
15051491863
15051496868
15051501201
15051508343
15051512737
15051517498
15051522991
15051529094
15051533062
15051539165
15051542705
15051548687
15051554058
15051559551
15051566143
15051570720
15051575969
15051580486
15051587078
15051591655
15051599956
15051606487
15051612712
15051620098
15051625041
15051631023
15051636333
15051644817
15051651042
15051657024
15051664409
15051668743
15051674419
15051678386
15051683757
15051688274
15051694255
15051698467
15051704021
15051708293
15051715617
15051720439
15051727275
15051732646
15051738506
15051745891
15051750346
15051759685
15051768108
15051775188
15051781657
15051791667
15051799296
15051806499
15051812968
15051822551
15051830180
15051837260
15051843242
15051851054
15051858561
15051866252
15051873820
15051881572
15051885661
15051894572
15051900248
15051909465
15051916056
15051923381
15051929423
15051936564
15051942790
15051952983
15051959391
15051966654
15051975504
15051981242
15051989970
15051996867
15052005351
15052010905
15052020182
15052026896
15052035624
15052042643
15052049479
15052056803
15052066691
15052074198
15052081583
15052085978
15052097452
15052106791
15052113016
15052123575
15052131754
15052140116
15052146647
15052155741
15052160929
15052170450
15052177896
15052187479
15052193644
15052203104
15052210306
15052217752
15052224039
15052235025
15052241251
15052249491
15052257974
15052266397
15052273294
15052282694
15052289224
15052297769
15052306802
15052312784
15052322488
15052328714
15052338174
15052347635
15052355997
15052363565
15052371866
15052379739
15052388223
15052392984
15052404580
15052413614
15052421975
15052428811
15052436807
15052445901
15052452798
15052462503
15052468789
15052478494
15052485696
15052494058
15052502298
15052509561
15052514566
15052524514
15052533608
15052540872
15052547524
15052556008
15052560952
15052571389
15052578164
15052585977
15052594155
15052599770
15052609902
15052616006
15052625039
15052631326
15052641518
15052647744
15052654885
15052661965
15052669961
15052676247
15052684731
15052692422
15052700539
15052706948
15052714943
15052724953
15052731301
15052738869
15052748024
15052754433
15052760659
15052770729
15052777016
15052784523
15052793434
15052800637
15052806313
15052814614
15052822487
15052831459
15052838539
15052846413
15052853676
15052861855
15052869301
15052877724
15052884377
15052894692
15052903664
15052912514
15052919777
15052930092
15052937782
15052945900
15052952492
15052962868
15052969215
15052978615
15052987526
15052993263
15053002723
15053009010
15053018654
15053025856
15053033424
15053037758
15053050819
15053057350
15053068031
15053072242
15053082130
15053088661
15053098671
15053105506
15053116859
15053123573
15053135047
15053142066
15053151832
15053158546
15053165748
15053175208
15053181800
15053192359
15053200782
15053210914
15053218909
15053226844
15053233924
15053239112
15053245338
15053252479
15053260291
15053265357
15053270362
15053275428
15053280677
15053287330
15053292457
15053297278
15053302649
15053309180
15053314795
15053318946
15053325293
15053329688
15053334327
15053341346
15053346289
15053350684
15053356055
15053362281
15053366858
15053372046
15053376807
15053381385
15053386451
15053390723
15053397254
15053402381
15053407813
15053413428
15053419104
15053424781
15053430884
15053436255
15053440100
15053444800
15053450415
15053455908
15053461157
15053464881
15053471777
15053478491
15053481970
15053488989
15053493872
15053502966
15053509680
15053519812
15053525916
15053533850
15053542090
15053549231
15053556555
15053564673
15053572424
15053580786
15053590857
15053598059
15053604956
15053611487
15053619299
15053627295
15053634680
15053646032
15053653784
15053660620
15053667944
15053676245
15053683630
15053687902
15053697485
15053706335
15053714208
15053721533
15053729101
15053734899
15053743200
15053749059
15053756933
15053766515
15053773534
15053782873
15053789526
15053797704
15053805578
15053813085
15053819311
15053828771
15053838781
15053846532
15053854650
15053863134
15053869726
15053878087
15053884740
15053892980
15053898046
15053908788
15053917882
15053924413
15053931005
15053938939
15053949193
15053954564
15053964513
15053970555
15053980504
15053987950
15053995641
15054003514
15054010717
15054018529
15054026464
15054033483
15054041966
15054046483
15054057836
15054066258
15054074071
15054078832
15054088780
15054095860
15054105870
15054112889
15054119603
15054128758
15054136876
15054143834
15054151829
15054159154
15054166478
15054174229
15054181676
15054189976
15054198033
15054206334
15054213170
15054221226
15054228245
15054236912
15054243565
15054251988
15054258336
15054267125
15054274205
15054280674
15054290074
15054297032
15054304844
15054313267
15054321079
15054327244
15054335423
15054343418
15054351170
15054358799
15054366734
15054374424
15054382847
15054389988
15054398045
15054402378
15054412327
15054419407
15054430332
15054437168
15054442905
15054452366
15054460056
15054467747
15054475254
15054482273
15054490146
15054498081
15054504795
15054513340
15054520908
15054529270
15054536350
15054544101
15054548618
15054560154
15054566684
15054575595
15054581882
15054588169
15054598423
15054605564
15054612827
15054622287
15054629489
15054635410
15054643405
15054650852
15054659396
15054667758
15054676120
15054680881
15054690646
15054697849
15054707187
15054714999
15054725314
15054734714
15054744479
15054751376
15054760898
15054769809
15054776401
15054785983
15054793429
15054801120
15054809787
15054817416
15054826999
15054834628
15054840548
15054849093
15054857638
15054866427
15054872775
15054882418
15054889193
15054898776
15054905612
15054912753
15054922579
15054928866
15054938937
15054944674
15054956088
15054963351
15054970492
15054975741
15054981478
15054988253
15054993990
15055000277
15055005770
15055012667
15055017733
15055023592
15055028475
15055034273
15055039400
15055045321
15055051058
15055057650
15055063448
15055069002
15055075960
15055081759
15055086764
15055092074
15055096895
15055104342
15055110811
15055115328
15055122530
15055128145
15055134859
15055141024
15055147127
15055153414
15055158358
15055165499
15055171175
15055177339
15055185701
15055190645
15055196504
15055204561
15055210298
15055216341
15055222383
15055228609
15055235079
15055242403
15055247164
15055252657
15055259920
15055267244
15055275179
15055281038
15055288789
15055295564
15055302095
15055310823
15055317781
15055326997
15055334505
15055341951
15055350130
15055356904
15055363008
15055371370
15055380586
15055388826
15055398103
15055407441
15055416292
15055423188
15055431855
15055439912
15055448457
15055454744
15055461396
15055471650
15055479829
15055486787
15055496369
15055503938
15055515107
15055523347
15055533601
15055542878
15055549226
15055557282
15055563996
15055572480
15055581269
15055589692
15055597810
15055605683
15055615388
15055622224
15055630097
15055637604
15055647858
15055654938
15055664704
15055673676
15055680451
15055688569
15055695588
15055709321
15055715912
15055725922
15055734284
15055740876
15055750702
15055759247
15055766266
15055774567
15055782624
15055790680
15055798920
15055807221
15055815216
15055823273
15055832489
15055841034
15055848847
15055857086
15055864716
15055872955
15055879547
15055888092
15055896698
15055902863
15055912567
15055918793
15055928131
15055934967
15055941864
15055948700
15055957855
15055962799
15055972259
15055981842
15055989227
15055996917
15056003998
15056007904
15056017914
15056023956
15056033111
15056039642
15056049530
15056057342
15056064972
15056071075
15056080291
15056086578
15056095001
15056101470
15056111541
15056117950
15056126068
15056132354
15056138946
15056147979
15056152984
15056163055
15056171966
15056179290
15056184600
15056194671
15056200103
15056207977
15056216643
15056224395
15056232757
15056241363
15056249053
15056256988
15056265166
15056273284
15056280120
15056288238
15056295318
15056306182
15056313262
15056321135
15056330535
15056338958
15056346465
15056355010
15056363616
15056371733
15056379119
15056387114
15056392180
15056402251
15056408538
15056416838
15056423979
15056435149
15056441863
15056451384
15056457793
15056466643
15056473052
15056479765
15056490446
15056495757
15056504973
15056513884
15056521147
15056528349
15056537566
15056545622
15056551726
15056560026
15056568266
15056575834
15056581022
15056590605
15056596281
15056606535
15056613371
15056620756
15056628752
15056636137
15056641935
15056650724
15056659636
15056668364
15056675322
15056683073
15056691557
15056698820
15056708097
15056713224
15056722379
15056729460
15056737089
15056743620
15056748930
15056757169
15056762052
15056766813
15056773527
15056778165
15056783537
15056789091
15056794950
15056801298
15056807462
15056811430
15056816740
15056824247
15056829618
15056834989
15056842924
15056849149
15056852628
15056860013
15056865323
15056871915
15056876676
15056885404
15056891691
15056897733
15056900907
15056907438
15056911771
15056917630
15056921903
15056927518
15056934171
15056940274
15056944974
15056951139
15056954984
15056962979
15056971463
15056976468
15056981900
15056989225
15056994718
15057002164
15057006864
15057012479
15057018826
15057022977
15057029569
15057035184
15057044217
15057051175
15057060269
15057065579
15057074735
15057081693
15057088040
15057095853
15057102444
15057109891
15057116910
15057123074
15057131192
15057138333
15057147305
15057151761
15057161648
15057169705
15057175137
15057184048
15057190457
15057197598
15057207791
15057215481
15057223050
15057229519
15057236660
15057242886
15057249417
15057256558
15057266629
15057272732
15057281521
15057287930
15057295071
15057303738
15057309902
15057319241
15057326382
15057336392
15057344998
15057352383
15057360500
15057367642
15057375942
15057383389
15057392666
15057400722
15057411404
15057418972
15057425686
15057433254
15057441494
15057449673
15057457363
15057466091
15057474636
15057483059
15057490810
15057498745
15057505947
15057513454
15057521389
15057529567
15057534084
15057544948
15057553920
15057561794
15057569606
15057577541
15057585597
15057593166
15057599575
15057607570
15057614162
15057622707
15057630946
15057637355
15057646205
15057652065
15057661769
15057669826
15057677211
15057683620
15057693629
15057700710
15057707667
15057713588
15057723476
15057729884
15057740199
15057746486
15057759425
15057768275
15057776210
15057783595
15057793910
15057802577
15057809901
15057815638
15057824488
15057831385
15057837733
15057845851
15057852931
15057862696
15057870265
15057877772
15057884608
15057891566
15057899439
15057906458
15057913844
15057924159
15057932093
15057939356
15057946864
15057953761
15057961817
15057970728
15057976283
15057985072
15057993006
15057999659
15058007777
15058015955
15058023890
15058029810
15058038111
15058045313
15058054102
15058063685
15058070460
15058077234
15058084803
15058092249
15058101038
15058107935
15058114832
15058122767
15058131433
15058139185
15058143091
15058154627
15058160730
15058169458
15058177942
15058186121
15058193018
15058202844
15058208704
15058217676
15058223657
15058233240
15058240015
15058248560
15058255212
15058264978
15058270898
15058276941
15058286401
15058294763
15058301538
15058309839
15058319238
15058326990
15058334253
15058339929
15058349389
15058356042
15058364160
15058371850
15058381677
15058388940
15058396447
15058402978
15058410363
15058416711
15058426416
15058432702
15058443505
15058450463
15058458093
15058463281
15058469018
15058475427
15058480859
15058487207
15058493310
15058499230
15058503198
15058507836
15058515771
15058520837
15058528771
15058534264
15058543603
15058549767
15058556481
15058560937
15058568200
15058572900
15058577538
15058582665
15058588769
15058594567
15058599206
15058603539
15058609887
15058614953
15058619836
15058626549
15058631982
15058637353
15058642174
15058646569
15058653283
15058657677
15058662743
15058669152
15058675499
15058679467
15058685387
15058691002
15058696618
15058703209
15058708214
15058714074
15058719994
15058726281
15058731347
15058734093
15058743859
15058749901
15058757347
15058764183
15058774437
15058778771
15058788048
15058796471
15058804283
15058810753
15058817101
15058826622
15058836693
15058842857
15058849632
15058858421
15058865013
15058874229
15058879906
15058889061
15058895470
15058904564
15058911217
15058919823
15058927513
15058934349
15058942222
15058949608
15058959801
15058967369
15058973900
15058983665
15058990135
15058997581
15059004051
15059012169
15059020897
15059029319
15059038536
15059044517
15059052574
15059060203
15059066123
15059074668
15059083091
15059090965
15059099449
15059106895
15059113426
15059120628
15059129417
15059136253
15059143089
15059152122
15059161460
15059167564
15059175010
15059184470
15059191306
15059198508
15059205405
15059217918
15059224814
15059233298
15059241111
15059248740
15059255881
15059262656
15059272544
15059282187
15059290183
15059298179
15059305137
15059312339
15059320456
15059329490
15059337424
15059345542
15059353965
15059361838
15059369467
15059376731
15059384604
15059392539
15059399924
15059404807
15059417990
15059422629
15059432028
15059438071
15059447470
15059453391
15059461935
15059470847
15059479208
15059486105
15059495016
15059500876
15059508627
15059515646
15059523947
15059532980
15059542441
15059548727
15059556418
15059563315
15059569723
15059579916
15059584982
15059594503
15059601278
15059611227
15059616476
15059626120
15059633261
15059641439
15059648825
15059656210
15059664572
15059674459
15059680502
15059689962
15059696371
15059704366
15059711691
15059719076
15059728109
15059735861
15059742819
15059750509
15059759603
15059767477
15059773458
15059779623
15059788839
15059798360
15059804891
15059811483
15059820272
15059827962
15059835287
15059843770
15059850545
15059859823
15059867452
15059875997
15059884847
15059890889
15059899678
15059906698
15059913961
15059924031
15059931478
15059939473
15059947042
15059955403
15059962300
15059968465
15059977864
15059987264
15059995076
15060002095
15060009603
15060016866
15060024800
15060032308
15060040608
15060050008
15060058797
15060067769
15060076375
15060083028
15060090718
15060099324
15060104878
15060114827
15060123128
15060129536
15060140339
15060149006
15060157002
15060164143
15060172627
15060181782
15060187947
15060193318
15060200276
15060206135
15060211689
15060216755
15060221821
15060228901
15060235493
15060241597
15060246540
15060253193
15060257832
15060264363
15060270771
15060276509
15060281758
15060287373
15060292561
15060299702
15060304524
15060310444
15060316486
15060321552
15060326557
15060333027
15060338093
15060343037
15060349567
15060355061
15060362873
15060368610
15060374226
15060379780
15060385822
15060391743
15060398884
15060403034
15060410664
15060416218
15060421467
15060427448
15060435444
15060441486
15060450763
15060455341
15060460712
15060471027
15060478656
15060489032
15060497211
15060505085
15060510028
15060520527
15060527484
15060537189
15060543720
15060554523
15060561481
15060569599
15060578266
15060586994
15060595539
15060600604
15060610309
15060618915
15060626849
15060634357
15060641864
15060650104
15060658221
15060667560
15060675983
15060683185
15060691302
15060698688
15060707782
15060716754
15060725238
15060732135
15060738971
15060749530
15060755938
15060766864
15060775226
15060783221
15060792743
15060800494
15060809222
15060817279
15060825702
15060833758
15060840838
15060849200
15060858660
15060869158
15060878436
15060885882
15060893328
15060902117
15060908282
15060917010
15060925005
15060935137
15060943316
15060949664
15060959002
15060966753
15060974627
15060980730
15060990801
15060996844
15061004900
15061014544
15061023882
15061032976
15061041887
15061049944
15061059405
15061064531
15061073687
15061082171
15061088884
15061095720
15061103106
15061113665
15061120317
15061128923
15061134844
15061142961
15061149980
15061157976
15061167070
15061174211
15061183672
15061191667
15061198625
15061206316
15061215227
15061223039
15061230303
15061239702
15061248857
15061254717
15061263567
15061269975
15061279192
15061286760
15061293657
15061302141
15061311845
15061319169
15061328203
15061335039
15061341936
15061349626
15061356584
15061366044
15061375566
15061382097
15061391252
15061398942
15061405839
15061412614
15061421525
15061430009
15061439714
15061446122
15061455461
15061461442
15061470292
15061476457
15061485673
15061495316
15061501725
15061508683
15061517777
15061525346
15061534623
15061540177
15061549210
15061557755
15061567643
15061572831
15061581925
15061589188
15061598649
15061605790
15061615189
15061626053
15061632645
15061640824
15061650162
15061657792
15061663895
15061672013
15061678788
15061690262
15061696793
15061704056
15061712723
15061718583
15061727494
15061734879
15061744400
15061753556
15061760147
15061768753
15061774735
15061781876
15061790604
15061798721
15061804764
15061816055
15061822586
15061829422
15061838211
15061846756
15061852860
15061862015
15061868423
15061878982
15061885513
15061894546
15061900528
15061909134
15061914932
15061921036
15061927444
15061933182
15061940017
15061944839
15061949539
15061956253
15061961258
15061967544
15061973953
15061978836
15061985061
15061990616
15061995742
15062000869
15062006240
15062013015
15062020156
15062024978
15062031204
15062036392
15062042434
15062047744
15062052688
15062059158
15062065078
15062071609
15062076858
15062081558
15062087478
15062092544
15062099136
15062105972
15062111465
15062117446
15062123061
15062128433
15062134170
15062142287
15062149734
15062155959
15062162795
15062170425
15062177077
15062184219
15062193313
15062202773
15062211257
15062220229
15062229384
15062236464
15062243972
15062255691
15062263442
15062273879
15062281447
15062289321
15062298842
15062308120
15062315932
15062323500
15062330092
15062339919
15062346266
15062355605
15062361830
15062370558
15062378615
15062386672
15062393019
15062401259
15062410414
15062418105
15062426100
15062432448
15062441603
15062447462
15062456862
15062466566
15062472975
15062482130
15062490431
15062498244
15062504469
15062513685
15062520094
15062531386
15062537916
15062547438
15062553602
15062563063
15062569166
15062578322
15062585218
15062596632
15062603224
15062611402
15062619642
15062628370
15062634535
15062643141
15062649549
15062659437
15062665968
15062674696
15062680738
15062689283
15062697340
15062702772
15062711927
15062722974
15062729627
15062738599
15062744825
15062753614
15062759718
15062768812
15062774976
15062784986
15062792066
15062801404
15062809400
15062814222
15062823438
15062830335
15062840406
15062849927
15062856336
15062865613
15062871595
15062880201
15062888196
15062896070
15062904798
15062912732
15062919385
15062928052
15062936536
15062943982
15062950025
15062959058
15062965528
15062975659
15062982312
15062991467
15062997449
15063007459
15063013867
15063023145
15063030103
15063042493
15063050305
15063058362
15063065564
15063073376
15063082165
15063089856
15063097302
15063105542
15063114392
15063122998
15063129162
15063136975
15063145032
15063152478
15063159131
15063169079
15063178540
15063186169
15063193127
15063200756
15063207714
15063216015
15063222607
15063233898
15063241101
15063248730
15063255871
15063264111
15063271435
15063279125
15063287609
15063297558
15063304516
15063312328
15063318920
15063328320
15063334789
15063342297
15063349804
15063359997
15063367016
15063374767
15063381725
15063389477
15063397167
15063404919
15063415356
15063425365
15063432934
15063439953
15063446239
15063455639
15063462169
15063469799
15063478771
15063486889
15063493419
15063502758
15063510509
15063517467
15063524852
15063532726
15063542003
15063549999
15063557933
15063565563
15063574535
15063581188
15063587840
15063597789
15063604198
15063614635
15063620311
15063625560
15063631419
15063637096
15063643138
15063648631
15063655040
15063660838
15063668040
15063672740
15063679088
15063684276
15063690501
15063695689
15063703319
15063709117
15063714976
15063721568
15063726878
15063733043
15063738963
15063743907
15063750987
15063758677
15063764842
15063771678
15063778697
15063784190
15063792613
15063800731
15063806651
15063812327
15063818370
15063824229
15063828685
15063836619
15063841502
15063848521
15063853831
15063860850
15063866160
15063871531
15063879344
15063885630
15063891062
15063898387
15063903330
15063910960
15063916026
15063924876
15063932139
15063940989
15063951609
15063958140
15063968272
15063973826
15063983591
15063990000
15063999399
15064008372
15064015452
15064024119
15064032358
15064041208
15064048411
15064056040
15064064463
15064069468
15064078989
15064088999
15064095163
15064102793
15064110910
15064115671
15064126902
15064133188
15064141672
15064149118
15064157297
15064164804
15064172556
15064180551
15064188608
15064196481
15064205148
15064212778
15064220224
15064228220
15064236642
15064244699
15064251596
15064259836
15064267343
15064275705
15064280344
15064289926
15064296396
15064305978
15064312936
15064320627
15064327768
15064336618
15064345163
15064354440
15064364694
15064372995
15064380319
15064388375
15064396432
15064403024
15064410775
15064415597
15064427499
15064435433
15064443307
15064447579
15064458077
15064465707
15064472482
15064479989
15064486825
15064496224
15064504708
15064514596
15064520211
15064530282
15064537423
15064548104
15064557626
15064565194
15064572762
15064583382
15064591805
15064599801
15064610055
15064617196
15064624276
15064634286
15064640267
15064652962
15064660531
15064668099
15064676644
15064684273
15064692452
15064702095
15064707711
15064717720
15064723885
15064734566
15064742989
15064750496
15064758370
15064766487
15064774422
15064783150
15064791878
15064797798
15064804329
15064813667
15064823982
15064834236
15064840645
15064849007
15064855049
15064863106
15064869087
15064879036
15064886116
15064895454
15064902473
15064911445
15064917366
15064924385
15064937080
15064943245
15064952888
15064962654
15064969124
15064977913
15064985176
15064992866
15065000496
15065007087
15065014717
15065024787
15065032112
15065039131
15065047065
15065054817
15065062263
15065070075
15065079902
15065087348
15065096076
15065103095
15065110786
15065117683
15065125434
15065131599
15065141303
15065146064
15065159309
15065167121
15065174689
15065180854
15065188422
15065196906
15065204719
15065210700
15065220710
15065226874
15065233649
15065242438
15065247809
15065258124
15065263556
15065271552
15065279486
15065289557
15065295050
15065304450
15065310614
15065318549
15065327216
15065334723
15065339362
15065348944
15065355902
15065366706
15065373053
15065381537
15065387824
15065394110
15065402655
15065412543
15065418463
15065426642
15065433173
15065438727
15065443549
15065450384
15065454840
15065461615
15065467230
15065472052
15065476141
15065481879
15065486395
15065492438
15065499945
15065504034
15065509466
15065514776
15065518988
15065524847
15065529486
15065535711
15065542059
15065547003
15065553045
15065558722
15065563421
15065568426
15065573065
15065577887
15065583014
15065589117
15065594793
15065600531
15065605963
15065611029
15065616461
15065623053
15065628851
15065634344
15065641119
15065648382
15065659307
15065666998
15065676092
15065686407
15065695928
15065705938
15065713018
15065724798
15065735845
15065745733
15065756780
15065766424
15065774236
15065783514
15065793828
15065803716
15065815069
15065825078
15065834539
15065840764
15065848821
15065855901
15065866582
15065878179
15065889348
15065899785
15065909063
15065918401
15065929265
15065937444
15065948369
15065958013
15065968511
15065976872
15065987492
15065997991
15066009343
15066018010
15066026860
15066038213
15066047856
15066056279
15066067570
15066075017
15066089299
15066098332
15066107731
15066117009
15066128911
15066137822
15066148198
15066161808
15066172306
15066180302
15066191288
15066199589
15066208317
15066218937
15066230168
15066240177
15066249577
15066262211
15066272892
15066284245
15066294926
15066306400
15066316593
15066327457
15066337650
15066348331
15066358402
15066368473
15066377811
15066388370
15066399296
15066409305
15066418094
15066428287
15066438663
15066449283
15066460086
15066469547
15066478275
15066488163
15066499027
15066506656
15066518070
15066526065
15066536991
15066545841
15066556278
15066565128
15066575992
15066588565
15066596927
15066606265
15066616336
15066626773
15066635623
15066644595
15066654483
15066666202
15066674197
15066683536
15066693728
15066701114
15066711246
15066719485
15066730288
15066739627
15066749514
15066759219
15066766421
15066778323
15066788333
15066797549
15066808718
15066818240
15066827029
15066838198
15066845950
15066857241
15066867251
15066875857
15066885867
15066896365
15066904604
15066915102
15066925356
15066936098
15066945193
15066952395
15066963259
15066970827
15066985293
15066993105
15067005373
15067015810
15067024721
15067033144
15067044680
15067054323
15067065065
15067072145
15067083071
15067091127
15067101625
15067112734
15067122805
15067132753
15067143312
15067152773
15067161745
15067171144
15067180971
15067191347
15067198061
15067204103
15067209840
15067217165
15067221681
15067229433
15067236269
15067243532
15067248598
15067255373
15067261415
15067268251
15067273073
15067280092
15067286683
15067292787
15067298524
15067304811
15067310609
15067317140
15067323427
15067332765
15067338624
15067343690
15067351320
15067355043
15067360597
15067364991
15067370973
15067375795
15067380311
15067385926
15067393373
15067398255
15067402955
15067407899
15067414674
15067420045
15067425172
15067431336
15067446778
15067454713
15067460206
15067464539
15067470765
15067475404
15067481751
15067484986
15067492371
15067498109
15067503419
15067508180
15067514771
15067518800
15067524537
15067531312
15067536683
15067542420
15067548890
15067553284
15067559815
15067564881
15067571046
15067576234
15067580994
15067585084
15067589783
15067596070
15067600342
15067606751
15067610657
15067621399
15067625794
15067635743
15067642029
15067651123
15067656739
15067664734
15067671082
15067680298
15067687073
15067694519
15067703614
15067708496
15067717591
15067723267
15067731812
15067737549
15067746826
15067755737
15067762879
15067769043
15067775696
15067783386
15067790283
15067796997
15067804443
15067810242
15067819092
15067824890
15067832886
15067841125
15067847595
15067854858
15067862244
15067871460
15067877563
15067884216
15067894287
15067900635
15067909118
15067915832
15067923645
15067934265
15067942749
15067949768
15067958496
15067964721
15067971008
15067980835
15067988220
15067995544
15068003051
15068010559
15068018127
15068026611
15068033508
15068041625
15068049377
15068058227
15068062866
15068072570
15068078979
15068085754
15068095214
15068102233
15068112304
15068119079
15068129516
15068137572
15068145141
15068154418
15068162231
15068168090
15068178466
15068185424
15068194152
15068198424
15068212462
15068216735
15068227965
15068236205
15068242858
15068249389
15068260375
15068267577
15068275145
15068284789
15068290648
15068300414
15068308837
15068316222
15068324095
15068331725
15068340209
15068348754
15068356078
15068364256
15068371886
15068380675
15068387206
15068396788
15068403868
15068413390
15068422606
15068428221
15068438963
15068447935
15068455626
15068464476
15068472166
15068480040
15068489439
15068498228
15068506773
15068513914
15068522703
15068529905
15068538084
15068544798
15068553587
15068560179
15068569151
15068575804
15068585691
15068592771
15068601255
15068610655
15068618040
15068625547
15068634214
15068642393
15068650877
15068658201
15068665769
15068674619
15068683592
15068691831
15068699461
15068707700
15068714353
15068722654
15068730833
15068736570
15068745847
15068753782
15068761228
15068769163
15068775815
15068781736
15068790647
15068796384
15068805539
15068815061
15068824399
15068830259
15068839048
15068845029
15068854551
15068861692
15068869321
15068879148
15068886838
15068894895
15068901792
15068907285
15068917539
15068923947
15068931394
15068938901
15068949094
15068956845
15068965207
15068972836
15068981076
15068987424
15068994931
15069003781
15069011899
15069019467
15069027646
15069033993
15069042660
15069048642
15069056332
15069063473
15069071591
15069078244
15069083981
15069088376
15069094540
15069098752
15069104306
15069108883
15069115658
15069121762
15069127255
15069131894
15069137631
15069143246
15069150570
15069155819
15069162594
15069168270
15069174923
15069181027
15069185849
15069193234
15069199093
15069210018
15069213192
15069219906
15069227596
15069233090
15069238156
15069247982
15069252987
15069259945
15069263790
15069269528
15069276058
15069281124
15069285458
15069291073
15069298275
15069304073
15069308956
15069314449
15069321407
15069326046
15069332760
15069336788
15069341793
15069349605
15069354916
15069360653
15069369503
15069375606
15069384762
15069390560
15069399471
15069407284
15069415462
15069425899
15069435177
15069441524
15069451839
15069460201
15069466243
15069473690
15069482967
15069488765
15069496639
15069503780
15069510066
15069516597
15069525142
15069532283
15069539302
15069547420
15069554195
15069562312
15069568721
15069574580
15069583370
15069591487
15069598201
15069605525
15069611995
15069618037
15069626582
15069632930
15069639888
15069646968
15069654231
15069662593
15069669368
15069676448
15069684993
15069693171
15069701472
15069710933
15069719417
15069727717
15069733394
15069739375
15069748835
15069754878
15069764155
15069771357
15069781794
15069788447
15069796565
15069802607
15069810176
15069817683
15069825739
15069835017
15069842707
15069849543
15069856623
15069864192
15069871272
15069878840
15069886713
15069894648
15069901667
15069911982
15069916682
15069927241
15069935847
15069941889
15069950190
15069956171
15069965998
15069975580
15069982783
15069992304
15069998835
15070006403
15070013727
15070022211
15070029841
15070039301
15070046869
15070056086
15070062922
15070069818
15070077387
15070084345
15070092279
15070100519
15070110590
15070117548
15070126093
15070133905
15070141840
15070149286
15070156976
15070161493
15070173517
15070180170
15070190363
15070196588
15070203485
15070212213
15070218317
15070227594
15070235651
15070242120
15070248895
15070258295
15070265375
15070272211
15070280816
15070288019
15070297479
15070304986
15070312127
15070319818
15070327508
15070335016
15070342706
15070350946
15070357171
15070366571
15070375909
15070382135
15070390130
15070395806
15070404595
15070411859
15070421319
15070431146
15070437860
15070444085
15070453240
15070459527
15070468194
15070474175
15070482049
15070490289
15070498284
15070506280
15070514214
15070520257
15070527825
15070534173
15070544060
15070551873
15070559991
15070567620
15070575188
15070581353
15070589654
15070597893
15070604058
15070610955
15070619378
15070628716
15070634087
15070643547
15070651055
15070657952
15070666680
15070674065
15070683708
15070693352
15070700676
15070707939
15070715447
15070723198
15070730156
15070738701
15070748955
15070757073
15070764580
15070772698
15070776909
15070787895
15070796318
15070801140
15070805962
15070814445
15070819267
15070825981
15070831901
15070835564
15070841423
15070847038
15070854973
15070860344
15070866630
15070871879
15070878044
15070883354
15070889152
15070894401
15070900505
15070905937
15070912651
15070916801
15070923149
15070927299
15070932853
15070939567
15070945732
15070950492
15070957206
15070963005
15070968742
15070974235
15070979911
15070987113
15070992301
15070997245
15071003349
15071008720
15071013236
15071019889
15071026298
15071031974
15071038566
15071044975
15071051139
15071057487
15071062797
15071068107
15071076896
15071084892
15071091850
15071099357
15071106437
15071114677
15071120658
15071129264
15071136344
15071143241
15071152152
15071158622
15071167533
15071173270
15071181937
15071190299
15071197501
15071207328
15071216971
15071223868
15071233023
15071239676
15071246634
15071252677
15071262809
15071270987
15071278983
15071285269
15071295096
15071300894
15071311087
15071318045
15071326407
15071334036
15071342459
15071350028
15071358450
15071366080
15071376456
15071382498
15071392813
15071398367
15071408560
15071414847
15071423453
15071431326
15071439200
15071447073
15071456228
15071465323
15071473318
15071480887
15071488943
15071495596
15071503042
15071509817
15071517263
15071525198
15071533255
15071540457
15071548269
15071554617
15071564627
15071570669
15071578115
15071582937
15071594046
15071599233
15071609243
15071616628
15071623709
15071631704
15071638723
15071648367
15071656057
15071662222
15071669729
15071676931
15071684560
15071692556
15071700307
15071707754
15071715932
15071724416
15071731740
15071738515
15071745962
15071754629
15071762136
15071770742
15071778188
15071786428
15071793142
15071800466
15071809560
15071814992
15071824575
15071831105
15071840871
15071846547
15071855336
15071861684
15071869985
15071877309
15071884084
15071892873
15071899159
15071908742
15071916005
15071923268
15071931325
15071939748
15071948415
15071957204
15071965138
15071972768
15071979482
15071987172
15071996327
15072003468
15072012135
15072020070
15072026173
15072035329
15072044423
15072051442
15072059987
15072070973
15072080128
15072087636
15072096547
15072104420
15072113148
15072117848
15072127369
15072135792
15072144093
15072151905
15072160023
15072165089
15072174183
15072181263
15072189564
15072196400
15072204640
15072211231
15072220387
15072228626
15072236744
15072244618
15072253285
15072260792
15072269764
15072277027
15072285694
15072293995
15072302296
15072308826
15072317738
15072326588
15072334949
15072343922
15072351124
15072359669
15072365894
15072372852
15072381214
15072390491
15072398670
15072406543
15072414234
15072420643
15072429309
15072435291
15072443164
15072450733
15072457141
15072463123
15072468616
15072474048
15072480213
15072485462
15072492420
15072499134
15072505115
15072510364
15072514942
15072521228
15072527454
15072533069
15072539295
15072543933
15072549671
15072554431
15072561206
15072565967
15072571704
15072577564
15072583728
15072591174
15072596545
15072602649
15072609058
15072615588
15072621326
15072627795
15072634631
15072640735
15072646228
15072652331
15072657336
15072663196
15072669055
15072674914
15072680285
15072686755
15072692676
15072699206
15072705005
15072711230
15072717273
15072723254
15072727404
15072734423
15072741870
15072748523
15072756762
15072765979
15072773730
15072779833
15072787097
15072795275
15072802477
15072811144
15072822009
15072830859
15072840258
15072846301
15072852648
15072863757
15072871081
15072881213
15072887926
15072899645
15072907091
15072918749
15072927172
15072935839
15072941759
15072951403
15072959948
15072967394
15072971728
15072984545
15072991564
15072999071
15073006884
15073014452
15073020495
15073030870
15073035448
15073050280
15073058214
15073066027
15073072985
15073080614
15073088976
15073096483
15073103807
15073113817
15073120409
15073128038
15073136827
15073144335
15073151842
15073159532
15073166307
15073176378
15073183519
15073191331
15073199510
15073207506
15073213487
15073220994
15073229845
15073237718
15073246385
15073253892
15073261644
15073269334
15073277757
15073285631
15073289903
15073302659
15073309556
15073317247
15073325547
15073333970
15073342393
15073350022
15073357530
15073365525
15073372605
15073381944
15073388597
15073396226
15073403489
15073411363
15073421678
15073430039
15073437547
15073445420
15073453843
15073461411
15073469407
15073475266
15073485154
15073495225
15073500718
15073510178
15073517503
15073525193
15073532700
15073540635
15073550828
15073558396
15073564866
15073574326
15073580796
15073588608
15073595627
15073605454
15073612534
15073622605
15073630539
15073640732
15073647507
15073655930
15073663925
15073672409
15073680039
15073690048
15073696823
15073704819
15073713913
15073722214
15073728378
15073736679
15073745041
15073753647
15073761093
15073769028
15073777206
15073785385
15073792038
15073800156
15073808517
15073816513
15073826767
15073835251
15073843307
15073851913
15073859970
15073870590
15073877548
15073885971
15073893966
15073902206
15073910812
15073919174
15073927291
15073935836
15073942245
15073950607
15073959762
15073965194
15073975143
15073983993
15073990463
15073998214
15074007919
15074015914
15074025375
15074031722
15074041000
15074048202
15074055160
15074061080
15074070846
15074080062
15074089584
15074096847
15074104049
15074110702
15074118331
15074125228
15074135421
15074145431
15074153121
15074160628
15074168319
15074174849
15074182235
15074190596
15074197371
15074200301
15074209700
15074215743
15074220870
15074225814
15074231429
15074236556
15074243636
15074249129
15074256453
15074260665
15074266707
15074270247
15074276168
15074281417
15074286482
15074293746
15074299849
15074305159
15074309981
15074315535
15074321761
15074327010
15074331526
15074338057
15074345015
15074350447
15074356184
15074361372
15074366743
15074373396
15074378523
15074384932
15074391585
15074397200
15074405379
15074409834
15074416365
15074424177
15074431013
15074436812
15074444380
15074449324
15074455061
15074461348
15074465803
15074472700
15074479841
15074485884
15074495283
15074501448
15074509260
15074518354
15074525434
15074532820
15074542829
15074550154
15074556929
15074563887
15074572248
15074580122
15074587995
15074595381
15074599836
15074612165
15074619062
15074626508
15074634443
15074642683
15074646650
15074655866
15074664838
15074672529
15074679121
15074687971
15074694685
15074703229
15074709150
15074717023
15074726545
15074735090
15074741682
15074748823
15074755842
15074763471
15074770917
15074777631
15074787275
15074794904
15074804059
15074811322
15074818158
15074824018
15074833966
15074837873
15074847760
15074857465
15074865705
15074874188
15074882672
15074892011
15074901593
15074908002
15074918256
15074926373
15074934064
15074941571
15074951642
15074957074
15074967877
15074974530
15074982526
15074989789
15074998151
15075006879
15075014874
15075022076
15075030865
15075037518
15075047650
15075054242
15075061505
15075070965
15075077801
15075086895
15075093548
15075100384
15075108441
15075115948
15075124005
15075133404
15075141034
15075149945
15075156048
15075164898
15075171795
15075182110
15075191326
15075198223
15075207073
15075214092
15075221844
15075231182
15075237347
15075246746
15075253460
15075262920
15075271221
15075278728
15075286663
15075293560
15075301861
15075308880
15075317974
15075325054
15075329082
15075340618
15075346966
15075355083
15075362468
15075369976
15075376690
15075387127
15075395305
15075403240
15075409649
15075418132
15075424114
15075431804
15075441387
15075450237
15075456523
15075463176
15075471965
15075479045
15075486492
15075493877
15075500774
15075510417
15075517803
15075526042
15075533244
15075537151
15075550090
15075556072
15075563640
15075572795
15075580730
15075589030
15075599101
15075607280
15075616923
15075623759
15075633952
15075641276
15075651713
15075657512
15075667033
15075675639
15075683513
15075692973
15075701030
15075708781
15075720561
15075728312
15075735881
15075743205
15075751445
15075759806
15075767680
15075777629
15075785258
15075792033
15075800822
15075808878
15075816935
15075823527
15075831828
15075841349
15075847758
15075857706
15075864359
15075874674
15075882426
15075889811
15075898722
15075906290
15075913615
15075921915
15075929301
15075937723
15075945048
15075950846
15075955179
15075961405
15075968302
15075974100
15075979838
15075986368
15075993143
15076000040
15076003824
15076012186
15076019876
15076026712
15076033243
15076039041
15076043863
15076048746
15076053080
15076058084
15076064127
15076069620
15076072855
15076080179
15076086588
15076092081
15076096781
15076101785
15076107462
15076113565
15076119425
15076124063
15076129556
15076134317
15076138712
15076144083
15076148782
15076154337
15076159525
15076166544
15076171426
15076178018
15076182840
15076188211
15076194376
15076200418
15076207010
15076212137
15076218423
15076224893
15076230813
15076236856
15076245157
15076252786
15076260599
15076268106
15076277078
15076284524
15076292459
15076299661
15076305459
15076315957
15076322671
15076329995
15076338357
15076346658
15076353860
15076361062
15076368569
15076377664
15076384377
15076392556
15076400430
15076409097
15076416299
15076423989
15076431008
15076439736
15076447060
15076455178
15076462563
15076471963
15076480080
15076487160
15076496865
15076503823
15076513894
15076520363
15076531777
15076539101
15076546731
15076554360
15076562722
15076570412
15076578713
15076586892
15076595559
15076602211
15076610756
15076616799
15076625527
15076633950
15076642067
15076648842
15076658303
15076665077
15076671730
15076680641
15076687599
15076694435
15076701882
15076709145
15076719277
15076727150
15076734718
15076742531
15076751259
15076758461
15076764931
15076774635
15076782082
15076790443
15076799782
15076805397
15076814125
15076821693
15076828041
15076836036
15076845253
15076853309
15076860389
15076867836
15076874122
15076882118
15076889320
15076898292
15076904213
15076914528
15076923744
15076930702
15076938087
15076945716
15076952674
15076961219
15076968421
15076978004
15076984962
15076992713
15076999488
15077005836
15077015846
15077021278
15077028846
15077038184
15077046790
15077055335
15077062843
15077071204
15077077308
15077086707
15077094276
15077101722
15077109534
15077116065
15077124610
15077130286
15077137549
15077146461
15077152625
15077162208
15077169654
15077180884
15077188086
15077197059
15077205237
15077214576
15077222327
15077228431
15077236609
15077246009
15077251807
15077260657
15077268347
15077275488
15077283789
15077291052
15077301001
15077308569
15077315955
15077325720
15077332922
15077339758
15077345801
15077353980
15077364050
15077372351
15077380652
15077386328
15077394751
15077402258
15077406286
15077416723
15077426367
15077434668
15077444311
15077452612
15077459509
15077470434
15077479101
15077486792
15077496130
15077503759
15077510778
15077519079
15077527319
15077537817
15077545019
15077553381
15077561682
15077570715
15077574987
15077586523
15077593603
15077603307
15077611913
15077619970
15077626806
15077635046
15077644445
15077650854
15077660253
15077665990
15077674779
15077682409
15077689611
15077695287
15077702428
15077707799
15077712072
15077717748
15077724218
15077729772
15077735814
15077740880
15077746801
15077751989
15077757116
15077762304
15077767064
15077772252
15077779760
15077786474
15077790929
15077796849
15077802526
15077806676
15077812596
15077817052
15077824498
15077829808
15077835240
15077840184
15077845433
15077850926
15077856175
15077862279
15077868749
15077874730
15077879735
15077885594
15077890660
15077897008
15077902379
15077908849
15077915746
15077920628
15077925755
15077932591
15077939610
15077945592
15077950902
15077960179
15077965855
15077976231
15077983556
15077994481
15078001744
15078013402
15078020787
15078029820
15078246861
15078259251
15078270237
15078280796
15078294041
15078304355
15078317173
15078327305
15078337864
15078347080
15078357700
15078367710
15078379245
15078391086
15078401035
15078413791
15078423008
15078430454
15078445468
15078452793
15078466770
15078475864
15078486850
15078497104
15078504184
15078515415
15078526889
15078538791
15078549045
15078556064
15078571567
15078582370
15078591769
15078603732
15078606845
15078626315
15078633578
15078647128
15078657077
15078660434
15078676608
15078683810
15078699252
15078706515
15078720858
15078729342
15078740573
15078749545
15078761813
15078770114
15078782504
15078792880
15078802767
15078811068
15078819491
15078829867
15078837435
15078848971
15078858004
15078865328
15078875948
15078888521
15078896090
15078906649
15078915255
15078924959
15078933077
15078943758
15078954683
15078962618
15078972933
15078980318
15078991610
15078999910
15079011507
15079021761
15079031526
15079037630
15079051912
15079058199
15079071749
15079079073
15079088777
15079100862
15079107149
15079117342
15079128023
15079139864
15079147859
15079158601
15079165376
15079179719
15079187593
15079200044
15079208894
15079218721
15079227693
15079235017
15079248933
15079258638
15079268892
15079277314
15079285920
15079295808
15079304414
15079315705
15079325654
15079336091
15079344148
15079356965
15079368623
15079377656
15079387666
15079402009
15079415986
15079423127
15079435212
15079445954
15079455048
15079463715
15079477509
15079485139
15079495698
15079503754
15079513703
15079524567
15079532258
15079540314
15079547516
15079556244
15079565766
15079573578
15079580536
15079589081
15079597016
15079607331
15079613922
15079620270
15079625885
15079632538
15079639130
15079645233
15079652374
15079658234
15079664581
15079669831
15079676422
15079681732
15079687714
15079694733
15079699310
15079706329
15079711517
15079718292
15079724823
15079729706
15079737457
15079745209
15079751373
15079758209
15079764557
15079767853
15079777496
15079782318
15079788727
15079796478
15079802582
15079807953
15079814544
15079819244
15079826019
15079830902
15079837127
15079843353
15079849640
15079854828
15079860626
15079865997
15079871429
15079877533
15079884185
15079891204
15079895843
15079902801
15079909454
15079914215
15079920562
15079925384
15079933074
15079939300
15079944549
15079949859
15079956573
15079961395
15079966644
15079973724
15079980987
15079988494
15079993499
15079999969
15080004424
15080011932
15080017669
15080028167
15080035064
15080041534
15080048553
15080055144
15080060271
15080067168
15080074981
15080082488
15080087310
15080092742
15080098113
15080105681
15080109221
15080115996
15080122283
15080128814
15080133086
15080139190
15080143584
15080149871
15080154998
15080161528
15080167510
15080174102
15080179412
15080185332
15080190459
15080194548
15080200896
15080205413
15080213530
15080216521
15080224883
15080229705
15080236540
15080240813
15080246672
15080252776
15080260039
15080265837
15080271208
15080277007
15080283110
15080289458
15080295012
15080302153
15080307707
15080312346
15080319243
15080323759
15080330779
15080334502
15080342070
15080347075
15080353178
15080358183
15080365202
15080369597
15080375395
15080382353
15080387968
15080391325
15080401091
15080407133
15080412810
15080417998
15080423491
15080428373
15080433989
15080438933
15080450102
15080455351
15080463591
15080468473
15080476530
15080480986
15080488310
15080494535
15080499723
15080505278
15080510160
15080515409
15080520292
15080526213
15080531034
15080536344
15080541715
15080546598
15080552885
15080556486
15080564054
15080568449
15080575773
15080582121
15080588468
15080594511
15080602140
15080607816
15080615507
15080620878
15080627653
15080636320
15080642973
15080652372
15080658475
15080665617
15080672941
15080677091
15080684537
15080689542
15080695096
15080701688
15080705961
15080711637
15080716031
15080722501
15080729276
15080735013
15080739896
15080744352
15080750333
15080755521
15080761014
15080766446
15080771573
15080777433
15080784513
15080789151
15080795194
15080800321
15080805753
15080811490
15080818143
15080822660
15080829679
15080834745
15080841580
15080846097
15080852750
15080858243
15080862760
15080869962
15080873502
15080878018
15080884122
15080888272
15080893765
15080899625
15080907010
15080912930
15080918118
15080922879
15080927701
15080932950
15080939481
15080943509
15080949734
15080954617
15080960477
15080967679
15080973416
15080977994
15080984341
15080990994
15080997159
15081000149
15081009610
15081013333
15081019253
15081025113
15081031460
15081037930
15081043545
15081050015
15081056729
15081062283
15081067776
15081072781
15081076870
15081081326
15081088284
15081092862
15081099270
15081104641
15081113430
15081122952
15081128933
15081132351
15081139248
15081143643
15081150906
15081156033
15081164395
15081168911
15081175686
15081182217
15081191494
15081197781
15081203518
15081211086
15081216335
15081222378
15081227749
15081236050
15081241238
15081247646
15081253994
15081259731
15081264980
15081269985
15081274013
15081278652
15081281216
15081288845
15081292873
15081298305
15081303921
15081309353
15081312282
15081320156
15081325954
15081331081
15081336269
15081344143
15081347500
15081354213
15081358608
15081364895
15081369045
15081375026
15081379726
15081387111
15081392238
15081398525
15081404811
15081409023
15081414760
15081419887
15081424160
15081430873
15081436489
15081442287
15081447231
15081454677
15081459743
15081464137
15081469936
15081474147
15081481410
15081486354
15081490993
15081496852
15081502345
15081509181
15081514613
15081520107
15081524806
15081530055
15081535548
15081537074
15081549037
15081555934
15081561732
15081566920
15081573329
15081578578
15081584010
15081589259
15081594691
15081599940
15081606776
15081612514
15081619410
15081622767
15081629847
15081633449
15081642115
15081647365
15081654322
15081658839
15081665614
15081671412
15081676722
15081681971
15081687526
15081694667
15081700953
15081707301
15081710780
15081717982
15081722865
15081728602
15081735072
15081741969
15081747401
15081753321
15081758448
15081766627
15081772364
15081778346
15081784327
15081790370
15081798731
15081808009
15081810816
15081819666
15081825404
15081831751
15081837733
15081846094
15081850489
15081855738
15081860865
15081867091
15081873743
15081877894
15081882288
15081888453
15081893030
15081899927
15081905420
15081912317
15081916834
15081923487
15081929773
15081934534
15081940027
15081946192
15081951563
15081957178
15081962427
15081967371
15081974268
15081980860
15081987268
15081992517
15081998438
15082003687
15082010706
15082015467
15082021509
15082028467
15082032801
15082037378
15082044092
15082052088
15082058374
15082063440
15082070642
15082076685
15082081751
15082090296
15082094934
15082102869
