15353051089
15353057436
15353062075
15353068667
15353072512
15353078921
15353083803
15353090090
15353094912
15353100710
15353106692
15353112185
15353118654
15353124025
15353129458
15353133852
15353140810
15353147341
15353153750
15353158571
15353165773
15353171511
15353177248
15353182192
15353189760
15353196352
15353201845
15353207033
15353214174
15353221804
15353228151
15353235475
15353239626
15353248903
15353256777
15353263857
15353271852
15353279237
15353287904
15353295229
15353303774
15353312013
15353320009
15353328127
15353336122
15353341432
15353349672
15353356996
15353362855
15353370180
15353376710
15353385438
15353390382
15353397890
15353403932
15353409913
15353418580
15353425172
15353433107
15353440248
15353446901
15353453920
15353460572
15353467286
15353473634
15353480104
15353488404
15353492433
15353501100
15353507508
15353513368
15353520753
15353526856
15353533937
15353540467
15353546510
15353552735
15353558351
15353565614
15353571168
15353578431
15353585389
15353591676
15353596925
15353603150
15353609742
15353616517
15353624329
15353628724
15353637940
15353644471
15353651185
15353659180
15353665589
15353672486
15353678834
15353685120
15353692750
15353698243
15353708314
15353714478
15353724305
15353730164
15353738221
15353744812
15353752320
15353757325
15353765686
15353772095
15353780335
15353785218
15353791138
15353797547
15353802307
15353808716
15353817261
15353823426
15353830567
15353835816
15353844422
15353850708
15353859558
15353865723
15353873779
15353879700
15353889099
15353895203
15353902100
15353909241
15353915161
15353925598
15353933228
15353940796
15353949036
15353956543
15353963684
15353970642
15353978454
15353985229
15353992554
15353999084
15354006775
15354013061
15354018615
15354026611
15354034973
15354043579
15354050537
15354055786
15354063598
15354072754
15354076904
15354086303
15354092895
15354099243
15354104858
15354111694
15354118103
15354125366
15354130371
15354140319
15354145141
15354152526
15354160522
15354166564
15354173095
15354179565
15354187866
15354193603
15354201659
15354211059
15354217223
15354224120
15354233703
15354240539
15354245971
15354252746
15354261046
15354267089
15354272948
15354278197
15354287536
15354294677
15354301024
15354308715
15354315856
15354322570
15354330687
15354336730
15354345580
15354354796
15354360839
15354369872
15354376097
15354386107
15354393798
15354402037
15354412413
15354420592
15354428832
15354436827
15354443114
15354452208
15354461363
15354467406
15354475585
15354481017
15354488402
15354491454
15354498595
15354501585
15354508116
15354512755
15354520140
15354525023
15354533812
15354539000
15354545653
15354550352
15354556944
15354562681
15354567137
15354573057
15354578673
15354583922
15354588133
15354594664
15354599608
15354605101
15354611265
15354617674
15354624266
15354631102
15354636290
15354639891
15354645079
15354650145
15354655760
15354661375
15354666563
15354671263
15354676023
15354680967
15354686338
15354691221
15354698240
15354703794
15354708860
15354715452
15354719908
15354724485
15354731504
15354734922
15354741331
15354747801
15354754942
15354759397
15354768430
15354775022
15354784177
15354791319
15354797239
15354804807
15354815672
15354823606
15354829526
15354837400
15354845762
15354850400
15354860044
15354868406
15354876523
15354881101
15354891538
15354896299
15354905637
15354913328
15354920774
15354929502
15354935788
15354943418
15354950864
15354958677
15354964536
15354973264
15354979734
15354989743
15354998654
15355005796
15355012876
15355019651
15355026670
15355032712
15355040219
15355049130
15355055234
15355064633
15355069882
15355078244
15355083859
15355091550
15355101254
15355110165
15355117429
15355125607
15355130368
15355139584
15355146420
15355155026
15355163266
15355171445
15355178036
15355185483
15355196530
15355203488
15355212948
15355221554
15355230832
15355237057
15355245114
15355252316
15355259640
15355266842
15355273190
15355280758
15355289791
15355296261
15355303585
15355309017
15355318905
15355326107
15355333920
15355342770
15355350765
15355358517
15355365658
15355370846
15355379086
15355386288
15355393856
15355402645
15355410213
15355418209
15355423702
15355431026
15355438290
15355445492
15355451046
15355461788
15355467098
15355474605
15355482113
15355488582
15355493831
15355501949
15355509578
15355517330
15355523555
15355532100
15355538509
15355547054
15355551754
15355562191
15355571590
15355577877
15355584652
15355593318
15355601375
15355607051
15355613582
15355623287
15355632015
15355638362
15355645503
15355654170
15355661800
15355669307
15355676997
15355682979
15355690669
15355700008
15355704707
15355714351
15355721858
15355730281
15355735469
15355745113
15355754024
15355762202
15355770320
15355777705
15355785335
15355793147
15355799556
15355807673
15355818293
15355824458
15355831904
15355839351
15355847529
15355855403
15355861445
15355869624
15355878779
15355886897
15355893794
15355901667
15355908076
15355915766
15355923579
15355933467
15355942805
15355949580
15355959956
15355966120
15355975764
15355981318
15355989985
15355995661
15356005122
15356011530
15356019099
15356024775
15356031672
15356036799
15356045588
15356054926
15356063593
15356072626
15356080195
15356087275
15356094477
15356099848
15356108149
15356115839
15356121943
15356126825
15356130732
15356136164
15356140802
15356146540
15356153193
15356159784
15356164850
15356170160
15356176020
15356181635
15356186945
15356192255
15356197687
15356202814
15356207941
15356214777
15356219904
15356223993
15356228876
15356240045
15356246820
15356253046
15356257990
15356263849
15356267084
15356274347
15356279535
15356286005
15356290887
15356299371
15356302789
15356310114
15356313593
15356321283
15356324335
15356331598
15356339044
15356344965
15356349725
15356356500
15356367731
15356375177
15356383478
15356395135
15356400934
15356409173
15356415826
15356425103
15356429193
15356439935
15356444574
15356455621
15356463983
15356471246
15356478387
15356485345
15356491510
15356498529
15356506036
15356511468
15356521356
15356527337
15356536920
15356542779
15356551446
15356560540
15356568108
15356574700
15356583672
15356589471
15356597344
15356606133
15356614190
15356620721
15356629510
15356636040
15356647881
15356651910
15356660576
15356666497
15356675774
15356679375
15356689019
15356693780
15356703728
15356707818
15356717095
15356724053
15356731316
15356740715
15356748284
15356755791
15356763237
15356769402
15356776665
15356785576
15356791436
15356799736
15356805718
15356814568
15356820427
15356829155
15356834892
15356843620
15356849968
15356857170
15356863091
15356870659
15356878838
15356885307
15356890984
15356900261
15356906487
15356914665
15356921806
15356929558
15356936333
15356945000
15356949577
15356959282
15356964165
15356974418
15356983207
15356993950
15356998893
15357009025
15357014152
15357025016
15357034111
15357042961
15357049858
15357059562
15357068534
15357075126
15357080436
15357090934
15357099113
15357106071
15357113517
15357123161
15357128288
15357139274
15357144340
15357155814
15357163566
15357173698
15357181815
15357190543
15357198844
15357205680
15357211600
15357220878
15357230704
15357237662
15357247001
15357253470
15357262809
15357269645
15357276114
15357284720
15357294608
15357301688
15357310843
15357319510
15357327262
15357333732
15357342826
15357349906
15357354911
15357366874
15357376883
15357383963
15357391471
15357402884
15357408255
15357418509
15357426444
15357434866
15357441763
15357450003
15357456412
15357466238
15357472098
15357480277
15357486136
15357495108
15357503409
15357510428
15357518362
15357529349
15357535696
15357543936
15357550162
15357559012
15357566702
15357573233
15357581656
15357588492
15357596121
15357601675
15357610098
15357614737
15357624624
15357633230
15357639151
15357645987
15357654959
15357658804
15357669546
15357675955
15357683767
15357690176
15357697561
15357705252
15357713919
15357720449
15357728140
15357737173
15357744497
15357752981
15357761099
15357767690
15357777212
15357784353
15357792104
15357801443
15357806631
15357816091
15357820364
15357827810
15357832326
15357839284
15357843801
15357851064
15357855703
15357860952
15357867116
15357872243
15357878652
15357880666
15357889089
15357892507
15357899160
15357904287
15357910817
15357917531
15357923879
15357928579
15357936147
15357941152
15357947377
15357951894
15357957570
15357963735
15357969960
15357974965
15357980764
15357986867
15357991689
15357997792
15358002126
15358009694
15358013783
15358021962
15358028249
15358032399
15358037465
15358043446
15358046925
15358054738
15358058461
15358065236
15358069875
15358077382
15358081105
15358089406
15358095998
15358101735
15358108632
15358116933
15358122182
15358132436
15358139577
15358148488
15358155934
15358163685
15358170643
15358179677
15358188099
15358195241
15358203541
15358211781
15358219105
15358232777
15358241200
15358248707
15358256214
15358263600
15358271351
15358280567
15358286549
15358294361
15358302906
15358310292
15358316151
15358326588
15358332997
15358340748
15358347157
15358358875
15358363575
15358374073
15358381886
15358389637
15358394093
15358404469
15358408985
15358418507
15358429066
15358436695
15358443775
15358449024
15358456898
15358463917
15358471302
15358476917
15358486988
15358493397
15358500599
15358506580
15358515430
15358521595
15358528675
15358539295
15358545215
15358552478
15358560535
15358564807
15358574390
15358580005
15358588062
15358596546
15358605701
15358614429
15358620349
15358628589
15358635608
15358646533
15358655261
15358662708
15358669971
15358677356
15358683826
15358691516
15358700061
15358706103
15358716418
15358724109
15358733264
15358740039
15358748401
15358757800
15358767749
15358776233
15358782763
15358788501
15358794848
15358800952
15358808703
15358818225
15358824694
15358837146
15358846850
15358856250
15358864733
15358872485
15358879809
15358887194
15358892871
15358901721
15358908312
15358917163
15358923144
15358932482
15358939745
15358949145
15358956347
15358964098
15358971911
15358978564
15358985949
15358992113
15359000475
15359009142
15359015002
15359023730
15359031115
15359038988
15359045031
15359054003
15359060656
15359067919
15359075243
15359082262
15359088061
15359095446
15359103197
15359111742
15359119799
15359125902
15359135973
15359141222
15359150927
15359158190
15359166429
15359173265
15359181200
15359189562
15359196153
15359206774
15359214342
15359223497
15359232347
15359239855
15359247057
15359255418
15359262621
15359272447
15359280260
15359287828
15359295213
15359305101
15359310533
15359321092
15359328722
15359338060
15359343187
15359352464
15359361802
15359371446
15359377794
15359387315
15359395494
15359405565
15359413621
15359422349
15359430528
15359438523
15359446885
15359452806
15359460740
15359469468
15359478929
15359485459
15359492845
15359499558
15359504319
15359508653
15359514390
15359519090
15359527085
15359531968
15359538316
15359543076
15359548631
15359554978
15359562730
15359566087
15359576279
15359581284
15359589402
15359595078
15359599961
15359605454
15359610337
15359617722
15359622178
15359629441
15359632615
15359640061
15359643174
15359650925
15359658066
15359663865
15359670151
15359676743
15359681870
15359686997
15359691819
15359695542
15359702744
15359709031
15359713974
15359718430
15359725327
15359730027
15359735276
15359740586
15359747055
15359750779
15359757370
15359762070
15359771408
15359775620
15359785324
15359789902
15359798996
15359809006
15359816391
15359823410
15359830551
15359837448
15359844589
15359851120
15359858688
15359867844
15359874008
15359881210
15359886703
15359896896
15359903244
15359910568
15359918625
15359927841
15359932114
15359941452
15359949447
15359955978
15359962997
15359971359
15359980575
15359987289
15359995102
15360003097
15360011825
15360019699
15360029159
15360039108
15360047409
15360056320
15360062789
15360071151
15360080307
15360090011
15360099105
15360105758
15360112838
15360119491
15360126144
15360133956
15360138229
15360146774
15360155074
15360163253
15360169051
15360181075
15360188705
15360197799
15360206100
15360214278
15360229598
15360236678
15360248824
15360255843
15360264937
15360273177
15360280745
15360288924
15360295943
15360303939
15360309920
15360319930
15360327376
15360335860
15360343001
15360353072
15360360518
15360368087
15360375899
15360384993
15360393477
15360399703
15360407576
15360415328
15360422713
15360428938
15360436873
15360444014
15360452071
15360458296
15360466658
15360474409
15360482100
15360490462
15360497237
15360503584
15360511824
15360521590
15360527449
15360535994
15360540938
15360551558
15360558943
15360566206
15360573774
15360579573
15360587507
15360596846
15360603743
15360612776
15360620283
15360627851
15360633955
15360646589
15360651533
15360664228
15360670759
15360679060
15360685957
15360691816
15360699690
15360709150
15360714094
15360722822
15360731245
15360738813
15360747846
15360754621
15360761701
15360767316
15360776228
15360784528
15360793317
15360797712
15360806989
15360815412
15360822431
15360829450
15360837690
15360843610
15360849958
15360858747
15360867170
15360875898
15360884198
15360892743
15360899946
15360907575
15360918622
15360928022
15360937726
15360945783
15360955060
15360963544
15360969525
15360977216
15360983441
15360991132
15360998517
15361008649
15361015119
15361022382
15361028241
15361035504
15361042645
15361052777
15361060956
15361068890
15361074994
15361080426
15361086041
15361091840
15361097333
15361102521
15361108746
15361113385
15361118939
15361123517
15361127484
15361131940
15361137128
15361144024
15361149457
15361153729
15361159100
15361163312
15361168683
15361173443
15361179364
15361184552
15361189801
15361196148
15361201336
15361206891
15361213238
15361219952
15361226544
15361232708
15361239178
15361243389
15361250286
15361254376
15361261822
15361266461
15361274822
15361280743
15361287029
15361292278
15361297772
15361303509
15361310528
15361315228
15361321392
15361328961
15361337505
15361343914
15361350567
15361358440
15361365093
15361372662
15361380535
15361388836
15361396648
15361405010
15361413311
15361420391
15361429180
15361436321
15361445659
15361450969
15361460796
15361465069
15361474224
15361481487
15361488689
15361493084
15361503154
15361512310
15361519695
15361526531
15361534221
15361541851
15361547832
15361555461
15361564556
15361571758
15361581584
15361589763
15361599224
15361607158
15361614482
15361620708
15361631450
15361640056
15361646831
15361655986
15361663493
15361672343
15361678691
15361687480
15361697307
15361702800
15361711650
15361719829
15361727092
15361734904
15361743876
15361749248
15361758952
15361764018
15361772746
15361781535
15361786967
15361795268
15361802836
15361806987
15361815959
15361825541
15361833110
15361840495
15361847575
15361853984
15361861247
15361867839
15361875895
15361885966
15361892436
15361899882
15361905253
15361912943
15361920634
15361927348
15361933695
15361942790
15361948893
15361957133
15361964152
15361970927
15361977579
15361987406
15361996744
15362004557
15362009135
15362019633
15362027323
15362033365
15362039774
15362048746
15362057291
15362066630
15362073832
15362081339
15362088968
15362095194
15362101725
15362110331
15362119669
15362128031
15362135843
15362144205
15362151773
15362159220
15362164896
15362173868
15362182962
15362190958
15362197000
15362206156
15362212808
15362221353
15362229105
15362235086
15362245889
15362254190
15362260477
15362268228
15362274698
15362283426
15362289346
15362301492
15362311136
15362317300
15362324869
15362332742
15362339517
15362348001
15362357156
15362363809
15362374856
15362383523
15362390970
15362396280
15362404947
15362410196
15362419229
15362425454
15362433633
15362437600
15362447488
15362453530
15362462014
15362468484
15362476052
15362488015
15362495522
15362504617
15362509988
15362517556
15362524636
15362531411
15362539285
15362548379
15362554421
15362563638
15362569863
15362578286
15362584389
15362591470
15362600930
15362607094
15362613442
15362624184
15362634865
15362646157
15362653420
15362667275
15362676552
15362689309
15362700356
15362709206
15362719948
15362732888
15362741249
15362749428
15362758461
15362767189
15362776711
15362784462
15362791847
15362801674
15362807900
15362815529
15362824013
15362831032
15362839577
15362847450
15362855202
15362863686
15362870888
15362880043
15362887733
15362895424
15362903053
15362912758
15362920631
15362930336
15362938881
15362952003
15362960975
15362967262
15362978309
15362986732
15362995765
15363003700
15363011757
15363020057
15363028297
15363036293
15363045021
15363053199
15363060646
15363068702
15363077003
15363084876
15363092262
15363101478
15363107765
15363113441
15363123267
15363130286
15363140113
15363146888
15363158118
15363165382
15363178260
15363187293
15363195350
15363204932
15363215125
15363225135
15363234168
15363246009
15363252967
15363263282
15363271338
15363286414
15363293006
15363305579
15363314551
15363323890
15363334021
15363340979
15363353675
15363361426
15363373633
15363380408
15363391028
15363400916
15363410437
15363421362
15363428503
15363439307
15363446936
15363457861
15363465063
15363478491
15363485998
15363496863
15363505224
15363516394
15363528845
15363535315
15363545141
15363549414
15363562170
15363571875
15363581396
15363591528
15363600317
15363608435
15363617346
15363626989
15363635717
15363644567
15363653967
15363667272
15363678076
15363685705
15363694311
15363706457
15363715978
15363723303
15363734045
15363744054
15363754797
15363763280
15363773717
15363783666
15363793127
15363802648
15363812047
15363824010
15363831029
15363841649
15363851720
15363862951
15363868444
15363881871
15363891027
15363900731
15363910985
15363920690
15363931920
15363939061
15363951940
15363959630
15363971654
15363977086
15363991368
15363998265
15364009374
15364020848
15364030125
15364039464
15364049840
15364060582
15364068089
15364079198
15364088597
15364098607
15364107152
15364113194
15364120701
15364126011
15364134923
15364142247
15364149205
15364155369
15364161717
15364169652
15364176304
15364183384
15364190098
15364196629
15364204014
15364210301
15364216343
15364222325
15364229039
15364238926
15364245823
15364252476
15364258518
15364264439
15364269322
15364277073
15364284947
15364290928
15364297947
15364302464
15364310948
15364317295
15364324680
15364332920
15364337742
15364345860
15364351841
15364360325
15364367527
15364374363
15364383579
15364390720
15364397556
15364405308
15364411777
15364417454
15364425510
15364432773
15364438816
15364447239
15364454319
15364460544
15364467380
15364475620
15364482273
15364491672
15364499302
15364505344
15364512607
15364520420
15364524631
15364536228
15364543552
15364550449
15364556980
15364564304
15364570651
15364578464
15364584506
15364594516
15364601352
15364608981
15364614108
15364622409
15364628207
15364636874
15364644199
15364648898
15364655307
15364663181
15364668063
15364674594
15364679355
15364684604
15364690402
15364695468
15364700778
15364706088
15364710422
15364716586
15364720981
15364726230
15364731906
15364737155
15364743686
15364749179
15364754123
15364761325
15364766574
15364772494
15364777072
15364782443
15364787021
15364791842
15364796969
15364802218
15364807772
15364812289
15364817599
15364822360
15364827182
15364831759
15364837313
15364842868
15364847140
15364851351
15364858187
15364864230
15364870455
15364873995
15364881564
15364886874
15364892062
15364896822
15364904025
15364909091
15364914767
15364921175
15364929293
15364937777
15364945345
15364951083
15364960116
15364966952
15364975680
15364984347
15364991549
15364997469
15365006136
15365015230
15365022738
15365029268
15365039339
15365046114
15365054903
15365061312
15365067904
15365073885
15365081881
15365092012
15365099642
15365106173
15365113985
15365121614
15365127047
15365135347
15365142977
15365150301
15365157747
15365167085
15365173433
15365180208
15365185640
15365194734
15365201326
15365211031
15365215547
15365225252
15365232881
15365243562
15365249788
15365258333
15365268343
15365277315
15365284578
15365292329
15365299776
15365307771
15365316682
15365325471
15365337861
15365345674
15365353181
15365360566
15365364961
15365373872
15365383943
15365391633
15365399446
15365406648
15365412812
15365420076
15365427095
15365435823
15365444490
15365452668
15365459260
15365464875
15365472993
15365480805
15365487153
15365493318
15365502839
15365511689
15365518464
15365524262
15365531464
15365538606
15365544038
15365553132
15365561311
15365569245
15365576264
15365582978
15365590302
15365598176
15365606354
15365613618
15365622346
15365628144
15365634797
15365641999
15365650361
15365658234
15365665253
15365672883
15365680695
15365687409
15365694733
15365701203
15365712311
15365721283
15365727936
15365735565
15365742462
15365749604
15365759796
15365769196
15365775238
15365784760
15365791840
15365800629
15365809418
15365819672
15365827301
15365835541
15365845062
15365850372
15365859528
15365868744
15365875091
15365884247
15365891144
15365902374
15365910309
15365920013
15365929168
15365935028
15365946197
15365953338
15365961944
15365969574
15365977752
15365984832
15365991180
15366002960
15366009735
15366019805
15366027984
15366035186
15366042144
15366051544
15366056304
15366066924
15366071197
15366080963
15366085235
15366094817
15366099090
15366108245
15366116851
15366124358
15366131500
15366139251
15366148711
15366155914
15366161590
15366169402
15366177459
15366184600
15366191863
15366199126
15366206389
15366211822
15366219451
15366227019
15366233916
15366240569
15366245940
15366250823
15366256621
15366262786
15366268401
15366273162
15366279204
15366286528
15366291899
15366298552
15366304839
15366309783
15366314727
15366321013
15366325835
15366331938
15366337248
15366343291
15366347441
15366353606
15366358122
15366364897
15366370268
15366377043
15366380583
15366387236
15366392180
15366398345
15366402861
15366408904
15366414519
15366421843
15366426909
15366434355
15366439055
15366445036
15366449492
15366452910
15366461638
15366467253
15366472624
15366479216
15366485014
15366489409
15366496794
15366501738
15366506987
15366512175
15366520842
15366526213
15366532072
15366537443
15366546415
15366554289
15366560759
15366568693
15366577238
15366583708
15366592131
15366599638
15366607206
15366616362
15366623075
15366632536
15366641203
15366647978
15366655485
15366664457
15366670988
15366678495
15366687711
15366695646
15366704557
15366712064
15366720182
15366729337
15366736295
15366742094
15366751432
15366759367
15366768827
15366773099
15366783231
15366790067
15366797269
15366802518
15366810575
15366821195
15366829069
15366836027
15366843290
15366851224
15366856656
15366864774
15366870633
15366881009
15366886808
15366895780
15366901822
15366909207
15366914762
15366923123
15366931485
15366939298
15366945767
15366954495
15366958524
15366968106
15366972074
15366981290
15366989957
15366997281
15367003873
15367011075
15367018033
15367025235
15367032620
15367041043
15367048306
15367056607
15367063870
15367071439
15367079556
15367085538
15367092923
15367100979
15367110257
15367121914
15367131680
15367143338
15367151822
15367163479
15367172696
15367182278
15367189663
15367198269
15367207791
15367216091
15367222012
15367232449
15367241604
15367249844
15367257046
15367265713
15367274258
15367279690
15367290493
15367297695
15367306851
15367317654
15367326138
15367335049
15367343899
15367353847
15367362270
15367370205
15367378811
15367388271
15367394863
15367403042
15367412746
15367420559
15367428859
15367440456
15367444851
15367457973
15367468227
15367474392
15367483486
15367490932
15367498989
15367508327
15367516384
15367523891
15367532497
15367540309
15367546718
15367554103
15367565700
15367574916
15367584316
15367592067
15367599880
15367606471
15367612209
15367621913
15367629909
15367638881
15367645839
15367651271
15367659206
15367666896
15367673793
15367679469
15367687648
15367693751
15367703395
15367709926
15367719752
15367724147
15367733790
15367742335
15367748195
15367756190
15367763942
15367770106
15367777736
15367784755
15367792384
15367799952
15367805690
15367815211
15367821376
15367829127
15367832789
15367844386
15367850245
15367859400
15367869288
15367877284
15367885157
15367890101
15367895838
15367899744
15367904505
15367910487
15367916773
15367921473
15367927821
15367932398
15367938929
15367943690
15367950220
15367956385
15367962977
15367967737
15367973536
15367976893
15367982752
15367985926
15367993128
15367999659
15368004175
15368009791
15368014002
15368019800
15368025110
15368027308
15368035914
15368043543
15368049891
15368057886
15368065760
15368072718
15368079432
15368085535
15368092066
15368099085
15368104578
15368108911
15368113794
15368118494
15368122766
15368127344
15368133509
15368138147
15368142725
15368147425
15368152124
15368158716
15368165552
15368174158
15368181055
15368187830
15368194299
15368199976
15368204614
15368212366
15368218408
15368226221
15368232263
15368238855
15368245142
15368251428
15368257776
15368265039
15368272241
15368279321
15368286523
15368292932
15368301538
15368308801
15368314844
15368321924
15368328271
15368334924
15368340356
15368348962
15368356530
15368364465
15368369836
15368378137
15368384362
15368391503
15368396997
15368404626
15368412133
15368419580
15368428308
15368434716
15368442102
15368448693
15368456506
15368463769
15368471581
15368477441
15368483666
15368491662
15368498559
15368506005
15368514245
15368520837
15368531274
15368542626
15368550988
15368559594
15368568200
15368575829
15368583947
15368593102
15368597558
15368610131
15368618615
15368624901
15368633996
15368643273
15368650414
15368658410
15368667809
15368676964
15368683678
15368692101
15368698876
15368706871
15368713341
15368720970
15368732445
15368739403
15368749901
15368757469
15368763512
15368772240
15368777306
15368784813
15368791405
15368799889
15368807030
15368815880
15368823631
15368831261
15368837608
15368844994
15368853783
15368860069
15368868858
15368875206
15368884971
15368891502
15368898826
15368904991
15368912864
15368921226
15368929161
15368937217
15368942650
15368951622
15368957115
15368966331
15368972923
15368980674
15368989585
15368996604
15369004234
15369011924
15369018455
15369027854
15369032859
15369042198
15369047935
15369056297
15369063438
15369071983
15369079429
15369085044
15369094566
15369101890
15369109031
15369114646
15369123252
15369129111
15369137229
15369144614
15369152244
15369159629
15369167686
15369174705
15369181724
15369188804
15369195762
15369205649
15369213828
15369219382
15369227988
15369233481
15369241782
15369250937
15369261069
15369269126
15369276389
15369287070
15369292807
15369301108
15369310202
15369318198
15369325400
15369334189
15369342368
15369349448
15369356894
15369363181
15369372580
15369380454
15369387290
15369394980
15369402243
15369410483
15369418417
15369426474
15369433798
15369440146
15369445822
15369455099
15369459189
15369465475
15369471579
15369478232
15369483420
15369487570
15369493429
15369498556
15369503439
15369509848
15369517355
15369523764
15369527792
15369533896
15369539389
15369546286
15369551107
15369556051
15369560934
15369565512
15369568624
15369575094
15369579733
15369584616
15369591268
15369596579
15369602255
15369609701
15369615560
15369619772
15369626669
15369632772
15369639669
15369644613
15369651693
15369657125
15369662618
15369667135
15369672506
15369677755
15369684957
15369692953
15369702230
15369709859
15369718282
15369725057
15369731527
15369741659
15369748373
15369756734
15369761983
15369772603
15369782430
15369789205
15369799398
15369806966
15369815938
15369818929
15369829976
15369839376
15369847127
15369856099
15369863363
15369871419
15369878926
15369888509
15369896199
15369905110
15369913655
15369920491
15369928426
15369935750
15369945210
15369953206
15369961751
15369970845
15369976216
15369986226
15369991292
15370001119
15370008443
15370017354
15370025410
15370033162
15370043111
15370051106
15370061787
15370068684
15370077534
15370087605
15370093953
15370099690
15370109395
15370116047
15370123189
15370129841
15370139790
15370146931
15370154255
15370161274
15370171467
15370176594
15370187336
15370194722
15370202046
15370210652
15370220295
15370227131
15370235493
15370244099
15370252400
15370260883
15370267597
15370276142
15370284199
15370292439
15370298481
15370307758
15370316181
15370324421
15370333576
15370341267
15370348469
15370357197
15370365620
15370372700
15370380146
15370387287
15370396320
15370403278
15370410419
15370417377
15370424274
15370434162
15370439167
15370449482
15370458027
15370464252
15370471576
15370480671
15370488056
15370495868
15370503681
15370510700
15370521442
15370528156
15370538043
15370544391
15370553180
15370559039
15370568561
15370577045
15370589923
15370599078
15370612628
15370619464
15370628986
15370635699
15370645221
15370654742
15370664203
15370669513
15370679950
15370689105
15370696673
15370705584
15370712726
15370722552
15370729693
15370737933
15370745990
15370754290
15370760333
15370765033
15370775653
15370787554
15370795794
15370803729
15370812335
15370818988
15370826678
15370835467
15370846881
15370857806
15370865374
15370872393
15370879717
15370887957
15370894427
15370901202
15370910235
15370917376
15370925433
15370929644
15370938799
15370945635
15370953692
15370963640
15370972002
15370977495
15370984698
15370994402
15371002459
15371009661
15371015886
15371024065
15371032976
15371040117
15371046160
15371052691
15371059649
15371064470
15371071245
15371077898
15371082537
15371088884
15371093950
15371104509
15371110063
15371116228
15371121965
15371127031
15371132829
15371137468
15371140398
15371147234
15371154680
15371160356
15371165361
15371171587
15371181474
15371187273
15371194109
15371199297
15371204973
15371210893
15371216569
15371221696
15371227312
15371232072
15371237077
15371243608
15371248613
15371253374
15371260637
15371265459
15371272233
15371276994
15371282426
15371288835
15371295915
15371300737
15371306779
15371311662
15371317277
15371324052
15371331498
15371341508
15371351457
15371359513
15371368303
15371375688
15371382951
15371391679
15371399064
15371405107
15371415849
15371422624
15371430802
15371438920
15371444779
15371454362
15371459428
15371469804
15371474381
15371483231
15371490922
15371501359
15371509965
15371516801
15371526261
15371535050
15371541459
15371548600
15371555802
15371564469
15371572526
15371578385
15371583451
15371593888
15371598465
15371609574
15371617325
15371624650
15371633255
15371639908
15371649491
15371657303
15371663834
15371671402
15371679093
15371685257
15371692704
15371700150
15371707779
15371713211
15371721939
15371730240
15371736221
15371744400
15371750199
15371758377
15371765701
15371772049
15371780350
15371786697
15371795670
15371802200
15371808670
15371817093
15371826187
15371834427
15371840652
15371848770
15371856399
15371865433
15371871902
15371880752
15371889969
15371897537
15371905899
15371914016
15371919998
15371929458
15371936355
15371947158
15371954239
15371963089
15371971023
15371977310
15371985305
15371994644
15372001052
15372010086
15372017654
15372026321
15372033401
15372042495
15372050308
15372056960
15372066848
15372073440
15372083450
15372089980
15372097793
15372104995
15372115127
15372123366
15372129348
15372137282
15372147842
15372152236
15372165420
15372172988
15372180190
15372187453
15372197158
15372204665
15372214614
15372219558
15372230544
15372239150
15372246657
15372256789
15372268019
15372277297
15372284316
15372293837
15372302931
15372311232
15372318495
15372328749
15372368300
15372376357
15372386122
15372394911
15372401381
15372411085
15372416884
15372424452
15372431959
15372438795
15372447584
15372455092
15372462843
15372469923
15372479811
15372486403
15372495436
15372504347
15372512343
15372518263
15372529554
15372535475
15372545729
15372550489
15372559950
15372566542
15372574964
15372581861
15372589552
15372598097
15372605177
15372612196
15372622022
15372629286
15372638136
15372644911
15372653272
15372661268
15372670179
15372677320
15372684888
15372693067
15372699537
15372708631
15372711805
15372719434
15372724866
15372730604
15372735731
15372741346
15372745557
15372752149
15372756727
15372762342
15372768384
15372772962
15372778821
15372784131
15372790601
15372794935
15372800367
15372804151
15372810926
15372815992
15372820813
15372824964
15372832715
15372838269
15372843824
15372850843
15372856397
15372862683
15372868665
15372874524
15372881421
15372884412
15372890637
15372895398
15372902417
15372909192
15372916150
15372922009
15372928479
15372935132
15372941358
15372951123
15372958142
15372964551
15372970227
15372974988
15372981519
15372984509
15372993115
15372998486
15373003918
15373011426
15373021191
15373025830
15373036145
15373043835
15373054639
15373063611
15373069531
15373077221
15373082776
15373094311
15373099194
15373108044
15373115368
15373121350
15373129773
15373137524
15373142773
15373152722
15373162121
15373169140
15373174206
15373184399
15373191906
15373201306
15373208203
15373215344
15373223950
15373229748
15373238781
15373245495
15373254223
15373261791
15373269421
15373278942
15373286205
15373293346
15373302990
15373310680
15373318371
15373325268
15373334118
15373341869
15373349438
15373357616
15373366344
15373374889
15373381054
15373390636
15373399242
15373405468
15373413341
15373421520
15373430431
15373436840
15373445140
15373451732
15373460155
15373467845
15373474987
15373483837
15373489696
15373500560
15373505016
15373515026
15373522838
15373530284
15373540538
15373546947
15373557445
15373565868
15373572887
15373582469
15373589549
15373599925
15373605174
15373614940
15373623424
15373631358
15373639598
15373647960
15373659251
15373669871
15373678538
15373687999
15373694407
15373703319
15373709666
15373718333
15373726085
15373734385
15373741221
15373749156
15373753367
15373764354
15373780833
15373788768
15373796092
15373804637
15373812266
15373820201
15373827342
15373833628
15373842417
15373849009
15373856455
15373864329
15373872019
15373879099
15373887522
15373908579
15373914500
15373924448
15373933115
15373940256
15373949229
15373954355
15373963816
15373970713
15373979258
15373987742
15373994089
15374004282
15374012400
15374017954
15374026316
15374032602
15374042734
15374049631
15374059336
15374068674
15374074839
15374083139
15374091745
15374099314
15374106821
15374115366
15374123850
15374132395
15374138010
15374147104
15374159982
15374166696
15374175363
15374181345
15374190256
15374198923
15374205576
15374213693
15374221689
15374228830
15374238595
15374248361
15374256418
15374263254
15374272958
15374278818
15374289071
15374298837
15374306039
15374312814
15374318246
15374326303
15374332528
15374337472
15374342904
15374351937
15374358285
15374364511
15374371652
15374378488
15374383920
15374389901
15374394967
15374399972
15374406259
15374412301
15374418405
15374425240
15374430856
15374435861
15374441842
15374447518
15374455758
15374461800
15374468331
15374472726
15374478646
15374482613
15374489022
15374493600
15374499764
15374505318
15374512582
15374517647
15374524483
15374529427
15374534676
15374540658
15374546883
15374551400
15374558541
15374565011
15374570443
15374574959
15374580391
15374587410
15374590951
15374597115
15374603524
15374613900
15374617928
15374629830
15374634285
15374642769
15374649361
15374658638
15374666451
15374675484
15374680184
15374690377
15374697579
15374704170
15374711128
15374721321
15374730232
15374740975
15374745491
15374755501
15374764351
15374770332
15374778084
15374786079
15374794991
15374803169
15374810127
15374818062
15374824348
15374832771
15374841194
15374849678
15374858711
15374866585
15374873054
15374880562
15374886726
15374894783
15374902839
15374912178
15374923591
15374929939
15374940681
15374946785
15374955207
15374963752
15374970222
15374979377
15374987251
15374996101
15375002326
15375011909
15375020027
15375026008
15375034065
15375047370
15375055488
15375063606
15375073066
15375081123
15375089179
15375097053
15375104743
15375112311
15375120673
15375127448
15375135139
15375142951
15375150702
15375157783
15375166144
15375175910
15375185492
15375194098
15375200263
15375207770
15375213324
15375221503
15375232184
15375240790
15375246344
15375257453
15375265143
15375272711
15375280829
15375288214
15375296088
15375303473
15375309760
15375318305
15375325446
15375333380
15375340277
15375348700
15375355475
15375362189
15375369330
15375375678
15375383124
15375389777
15375398321
15375402594
15375413946
15375422064
15375427984
15375437506
15375444952
15375453192
15375461981
15375468939
15375475775
15375485479
15375490545
15375501410
15375510504
15375517706
15375526983
15375534063
15375543341
15375549688
15375558966
15375565863
15375577398
15375586004
15375592657
15375601629
15375607977
15375617315
15375624517
15375633245
15375642461
15375649847
15375658514
15375665167
15375674688
15375681768
15375689092
15375698309
15375707525
15375716131
15375724248
15375732366
15375739446
15375746770
15375756902
15375760137
15375772222
15375780156
15375786687
15375795171
15375804265
15375812688
15375818914
15375828435
15375833440
15375842961
15375850896
15375858464
15375867253
15375874456
15375884160
15375888799
15375899358
15375907170
15375912786
15375922429
15375927617
15375937016
15375945500
15375952458
15375959599
15375968022
15375974797
15375983037
15375991093
15375997075
15376003972
15376009709
15376013127
15376020878
15376027104
15376032963
15376038579
15376042546
15376050053
15376056767
15376062443
15376069706
15376077214
15376087224
15376097233
15376103825
15376113713
15376121342
15376132023
15376138798
15376148564
15376157048
15376166996
15376176152
15376185612
15376193913
15376200810
15376205387
15376210392
15376217167
15376223576
15376229252
15376233708
15376240055
15376245792
15376252567
15376258549
15376263737
15376269108
15376275517
15376280399
15376284855
15376292118
15376297672
15376305607
15376315372
15376322147
15376328190
15376336796
15376342411
15376350040
15376357487
15376365848
15376371952
15376380375
15376386478
15376393985
15376401371
15376407596
15376415592
15376423832
15376430362
15376440067
15376448123
15376455265
15376462711
15376468997
15376476505
15376483341
15376491031
15376499759
15376507083
15376514713
15376520328
15376529544
15376537540
15376544193
15376550540
15376561221
15376565250
15376573978
15376582034
15376588565
15376593997
15376601871
15376610171
15376618106
15376624209
15376631717
15376639590
15376645450
15376652774
15376658938
15376666629
15376674380
15376682376
15376689517
15376695376
15376704165
15376709781
15376718264
15376723880
15376732425
15376741397
15376745913
15376755007
15376761904
15376768496
15376775088
15376783572
15376790103
15376799807
15376804507
15376814395
15376821658
15376828738
15376836062
15376843325
15376849917
15376858950
15376865786
15376876345
15376883608
15376891360
15376898196
15376908388
15376915163
15376925173
15376932802
15376940737
15376947939
15376956911
15376963808
15376974001
15376981752
15376989565
15376996462
15377005007
15377011965
15377022585
15377029604
15377038271
15377045412
15377054384
15377061342
15377069948
15377077028
15377086183
15377095278
15377103578
15377110597
15377118532
15377128053
15377136537
15377143434
15377151613
15377158449
15377166750
15377176271
15377184694
15377191774
15377200014
15377208925
15377217348
15377225587
15377233400
15377240968
15377247377
15377256959
15377263551
15377271364
15377279420
15377286989
15377293702
15377301637
15377309266
15377317506
15377324769
15377330934
15377340211
15377347413
15377354371
15377362245
15377370973
15377378785
15377384706
15377392518
15377400697
15377408570
15377415040
15377423829
15377432557
15377440919
15377447999
15377455262
15377464112
15377471619
15377480653
15377489197
15377496094
15377505311
15377512513
15377520264
15377528687
15377534546
15377543580
15377550171
15377558167
15377566224
15377575562
15377583008
15377591431
15377599060
15377608765
15377613465
15377624573
15377629700
15377638367
15377648133
15377655945
15377663574
15377672913
15377679138
15377688416
15377693665
15377704346
15377709900
15377720520
15377729065
15377736511
15377743164
15377749634
15377755188
15377760559
15377766052
15377773132
15377777954
15377784424
15377788452
15377793030
15377799927
15377804932
15377810364
15377817322
15377824158
15377828003
15377835144
15377839477
15377846863
15377853821
15377859070
15377863525
15377870300
15377875854
15377882263
15377888061
15377892761
15377899536
15377905395
15377911193
15377918335
15377926330
15377933776
15377938354
15377945495
15377950683
15377957275
15377962646
15377968933
15377975036
15377980041
15377984008
15377992980
15377996948
15378004577
15378008544
15378015930
15378020446
15378029723
15378033874
15378042358
15378048766
15378057494
15378063903
15378074828
15378079162
15378088622
15378095275
15378106139
15378113708
15378121764
15378129272
15378137328
15378143737
15378153258
15378160277
15378168578
15378177672
15378184996
15378191710
15378200255
15378206786
15378215575
15378221923
15378231017
15378237731
15378245177
15378254271
15378260863
15378269225
15378278136
15378286925
15378289977
15378302184
15378309203
15378318846
15378327513
15378335692
15378344908
15378351134
15378360777
15378369505
15378377135
15378383604
15378393492
15378401915
15378409666
15378417723
15378424925
15378432799
15378438719
15378448118
15378455870
15378465269
15378471373
15378480162
15378484922
15378495848
15378500731
15378510313
15378517881
15378527525
15378535215
15378543272
15378548216
15378558042
15378565550
15378572508
15378580931
15378589720
15378596922
15378604856
15378611997
15378619749
15378626585
15378635618
15378642576
15378650816
15378660154
15378667966
15378674375
15378680906
15378688535
15378697690
15378704954
15378711179
15378720273
15378727170
15378734434
15378741086
15378747556
15378755918
15378762754
15378768613
15378776731
15378783201
15378793332
15378797910
15378807065
15378813352
15378822141
15378829221
15378836789
15378843869
15378852902
15378860410
15378867002
15378873532
15378881894
15378891782
15378899289
15378904355
15378915463
15378921933
15378930600
15378937863
15378946103
15378953549
15378959775
15378969723
15378976315
15378984433
15378991269
15378999448
15379005551
15379016232
15379021725
15379034360
15379041134
15379048886
15379054257
15379065121
15379072873
15379082394
15379090146
15379098935
15379107418
15379114193
15379123959
15379130368
15379140438
15379147030
15379156552
15379163754
15379172177
15379179379
15379187740
15379195248
15379203121
15379211056
15379221554
15379227169
15379237484
15379243343
15379254086
15379260189
15379270321
15379275326
15379286983
15379292171
15379302547
15379309566
15379317318
15379323543
15379334835
15379340572
15379349972
15379357296
15379367000
15379375240
15379382320
15379391781
15379400264
15379407589
15379414241
15379423641
15379430172
15379438838
15379445552
15379455013
15379461605
15379471065
15379478389
15379486995
15379493343
15379501399
15379510249
15379516048
15379522334
15379528377
15379534358
15379540096
15379547908
15379554195
15379559932
15379568050
15379573238
15379578364
15379583614
15379590388
15379597713
15379603999
15379609309
15379615901
15379621516
15379626460
15379632625
15379637507
15379644282
15379649287
15379655574
15379660029
15379665522
15379670283
15379676326
15379682734
15379688533
15379692866
15379697627
15379704463
15379710017
15379715083
15379718623
15379725093
15379731623
15379737055
15379740351
15379747126
15379752009
15379758784
15379763911
15379770075
15379775263
15379781550
15379786799
15379791133
15379803523
15379810175
15379817988
15379826594
15379834406
15379839899
15379849665
15379854914
15379866999
15379874323
15379880915
15379888239
15379898249
15379901484
15379913325
15379923151
15379930109
15379939142
15379945917
15379955805
15379962336
15379972590
15379980097
15379988764
15379995966
15380005060
15380010736
15380020380
15380029352
15380036981
15380044855
15380054193
15380059870
15380069452
15380075739
15380085565
15380093561
15380103021
15380112421
15380119684
15380127679
15380136591
15380144769
15380151727
15380162225
15380168634
15380176080
15380182611
15380192499
15380196954
15380206659
15380213678
15380222650
15380227472
15380237604
15380246271
15380253351
15380259271
15380268670
15380277398
15380283197
15380290765
15380299066
15380306512
15380314874
15380320977
15380326959
15380337213
15380344354
15380352227
15380360650
15380367547
15380374871
15380380914
15380389825
15380397149
15380405938
15380412774
15380421258
15380429314
15380434625
15380446343
15380451836
15380462762
15380470452
15380478631
15380486504
15380496270
15380504693
15380511895
15380522027
15380530877
15380538201
15380546685
15380554192
15380563591
15380571343
15380578057
15380586602
15380593316
15380603447
15380610833
15380618218
15380624810
15380636406
15380641228
15380651726
15380659477
15380669304
15380678032
15380685600
15380690849
15380701103
15380706841
15380717705
15380725884
15380732658
15380741631
15380748344
15380753654
15380765495
15380774284
15380780693
15380789726
15380799370
15380807060
15380814445
15380824516
15380831413
15380841423
15380848869
15380857658
15380865165
15380874260
15380878898
15380888359
15380896904
15380906608
15380911552
15380922172
15380927238
15380937919
15380942680
15380951469
15380959159
15380969108
15380973441
15380984184
15380988578
15380997794
15381001518
15381012077
15381020499
15381027335
15381033866
15381041679
15381047904
15381055534
15381061820
15381069266
15381075858
15381084891
15381090812
15381098929
15381104667
15381113334
15381118888
15381126456
15381134940
15381142508
15381148063
15381155387
15381162833
15381169303
15381176688
15381184439
15381190543
15381196097
15381207389
15381212271
15381222159
15381227042
15381236808
15381240897
15381249564
15381256766
15381262076
15381266593
15381275626
15381282279
15381287955
15381295096
15381300711
15381308524
15381313712
15381320548
15381325797
15381333304
15381338187
15381344168
15381350211
15381356131
15381362845
15381368582
15381373038
15381378653
15381384817
15381389944
15381396231
15381404104
15381409109
15381413626
15381421499
15381425039
15381431570
15381436819
15381443533
15381449820
15381455374
15381460745
15381466177
15381470816
15381477896
15381483511
15381489492
15381495779
15381502249
15381507132
15381513479
15381520559
15381527883
15381532583
15381538565
15381543630
15381551931
15381560293
15381569326
15381575857
15381580557
15381592397
15381600515
15381608877
15381617727
15381623891
15381634267
15381638052
15381648367
15381652883
15381663747
15381670583
15381679189
15381683401
15381693288
15381701284
15381706716
15381710683
15381720998
15381729543
15381737295
15381744130
15381751943
15381760183
15381766408
15381774526
15381780690
15381788869
15381796743
15381804555
15381810475
15381818898
15381824391
15381833730
15381839650
15381847951
15381856130
15381863210
15381868947
15381877370
15381885426
15381892079
15381900502
15381908803
15381916005
15381922719
15381927541
15381940053
15381947011
15381955251
15381963002
15381971364
15381978688
15381985341
15381994740
15381999684
15382011159
15382018727
15382028065
15382037709
15382046742
15382053639
15382062672
15382071949
15382076649
15382086964
15382094288
15382101490
15382108448
15382115773
15382121998
15382132008
15382139149
15382147511
15382154041
15382163380
15382168080
15382177723
15382182484
15382191090
15382198536
15382205372
15382212025
15382220203
15382227039
15382235645
15382242725
15382250782
15382258289
15382268665
15382276234
15382282276
15382290211
15382299305
15382308399
15382314747
15382322742
15382331653
15382339710
15382348011
15382354541
15382362720
15382370716
15382379932
15382387439
15382394031
15382402881
15382409046
15382418750
15382425403
15382432727
15382438648
15382446643
15382455615
15382464404
15382471912
15382481860
15382487964
15382496204
15382503894
15382513477
15382518848
15382528857
15382536853
15382544788
15382552051
15382560413
15382567554
15382574390
15382583545
15382591662
15382598376
15382606799
15382615771
15382623218
15382630114
15382639209
15382645617
15382654590
15382661120
15382670398
15382677356
15382682605
15382693408
15382699145
15382708361
15382713366
15382723742
15382728808
15382740771
15382745898
15382757067
15382763232
15382773486
15382778796
15382787951
15382795519
15382805102
15382809557
15382820666
15382826464
15382834338
15382840746
15382850207
15382857043
15382866625
15382873095
15382882983
15382890124
15382896471
15382904833
15382912157
15382920763
15382927965
15382936449
15382942919
15382952623
15382961962
15382968554
15382976488
15382982958
15382991686
15383000475
15383004869
15383011156
15383016283
15383022753
15383028612
15383036119
15383042528
15383048326
15383054125
15383059740
15383065294
15383071031
15383078356
15383081712
15383090990
15383097521
15383105882
15383112840
15383119493
15383122911
15383132249
15383135851
15383142870
15383147630
15383152452
15383158067
15383164232
15383170213
15383176073
15383181200
15383187425
15383192735
15383199815
15383207139
15383214769
15383219835
15383226610
15383231431
15383238084
15383242967
15383248643
15383255906
15383261888
15383268296
15383275132
15383280503
15383286180
15383293138
15383299913
15383305406
15383314500
15383323167
15383331407
15383338059
15383347276
15383355882
15383358628
15383371629
15383376695
15383389024
15383395860
15383405442
15383412095
15383419541
15383426804
15383437424
15383443284
15383454575
15383461350
15383470444
15383475327
15383485459
15383489670
15383500840
15383508774
15383516160
15383522996
15383532517
15383539048
15383547471
15383554429
15383562790
15383569748
15383579209
15383585617
15383595566
15383601792
15383609848
15383618149
15383627060
15383634140
15383644272
15383651474
15383659165
15383665390
15383673630
15383681931
15383688461
15383697128
15383707260
15383713913
15383722824
15383730942
15383738144
15383744247
15383752670
15383762009
15383770553
15383780441
15383787277
15383795395
15383803695
15383809799
15383816147
15383825546
15383834152
15383844101
15383851303
15383860031
15383866684
15383875900
15383881271
15383890365
15383898849
15383907455
15383915817
15383921981
15383928756
15383937850
15383943038
15383952987
15383961349
15383970687
15383975387
15383986190
15383993514
15384002548
15384006698
15384017257
15384025558
15384035140
15384042525
15384049605
15384056563
15384064437
15384070540
15384078902
15384088180
15384095992
15384102767
15384111861
15384118148
15384128219
15384134444
15384143355
15384150374
15384159774
15384166549
15384174788
15384182845
15384190840
15384197005
15384206954
15384213546
15384222884
15384229354
15384238692
15384244917
15384253401
15384259383
15384266341
15384276045
15384284956
15384293196
15384300276
15384308577
15384314986
15384323103
15384331404
15384339644
15384347823
15384356428
15384363264
15384371260
15384376570
15384385603
15384393721
15384399763
15384407881
15384417524
15384425642
15384434187
15384439192
15384449324
15384454207
15384462873
15384474287
15384483076
15384487837
15384497969
15384506208
15384512251
15384519209
15384528059
15384535871
15384543379
15384550215
15384559614
15384566450
15384573713
15384582990
15384590986
15384599287
15384608869
15384613630
15384622602
15384631208
15384639326
15384647321
15384654951
15384661848
15384671552
15384678266
15384687482
15384695783
15384704328
15384710492
15384718427
15384726728
15384735517
15384742292
15384749189
15384754987
15384759809
15384765912
15384770734
15384779157
15384785382
15384790265
15384796918
15384801007
15384807782
15384812116
15384820111
15384826581
15384832013
15384838544
15384844098
15384850202
15384855939
15384859967
15384866254
15384871015
15384876752
15384882428
15384888165
15384893842
15384897931
15384903851
15384911176
15384916486
15384921735
15384928876
15384934674
15384938885
15384945233
15384951337
15384958600
15384964459
15384970624
15384975018
15384981183
15384985516
15384992596
15384997845
15385004193
15385010296
15385015790
15385022503
15385029583
15385036541
15385043622
15385050152
15385061200
15385068341
15385076031
15385082013
15385092083
15385098858
15385105084
15385114727
15385123211
15385129193
15385137982
15385144085
15385151776
15385159832
15385167645
15385175945
15385184124
15385192913
15385200726
15385207012
15385216717
15385222881
15385231853
15385238506
15385246990
15385255901
15385263348
15385272381
15385280071
15385286114
15385290691
15385301739
15385310894
15385319561
15385327984
15385336467
15385343120
15385351543
15385356609
15385367717
15385375286
15385384990
15385389751
15385399883
15385407634
15385414714
15385421611
15385429424
15385442241
15385448650
15385456401
15385463664
15385470805
15385480266
15385487041
15385495219
15385502544
15385511943
15385519267
15385526897
15385532939
15385541667
15385550639
15385557536
15385564128
15385574260
15385580791
15385589091
15385595500
15385605266
15385611430
15385619975
15385626262
15385637675
15385644023
15385651774
15385660075
15385667277
15385678080
15385690531
15385707194
15385723796
15385735331
15385745829
15385756144
15385766703
15385778239
15385789103
15385798563
15385806559
15385814249
15385821513
15385829935
15385838969
15385846598
15385853556
15385863688
15385871073
15385878519
15385885294
15385893778
15385900553
15385909220
15385917887
15385925882
15385930643
15385939920
15385946695
15385955545
15385963297
15385969278
15385978128
15385985147
15385991922
15386001261
15386004862
15386015177
15386021341
15386028177
15386034708
15386044901
15386052469
15386059732
15386065714
15386074442
15386082987
15386089945
15386096048
15386106180
15386115213
15386122232
15386129922
15386135355
15386145853
15386151102
15386162881
15386169046
15386180948
15386185647
15386195901
15386200418
15386209573
15386217141
15386224160
15386231607
15386239480
15386246377
15386254434
15386260659
15386267800
15386276651
15386283609
15386291604
15386300698
15386309182
15386315103
15386322915
15386331643
15386338235
15386345132
15386352151
15386362405
15386369241
15386377419
15386383523
15386392556
15386401711
15386408181
15386414284
15386423928
15386432595
15386438760
15386445718
15386453103
15386462685
15386466897
15386475991
15386483132
15386492470
15386498147
15386502968
15386508462
15386513283
15386517922
15386524636
15386529885
15386537575
15386544045
15386548684
15386555153
15386558815
15386564614
15386570717
15386575905
15386582375
15386587319
15386593483
15386598122
15386603859
15386608376
15386614357
15386622780
15386627724
15386633522
15386637428
15386643410
15386647499
15386653969
15386661354
15386666908
15386672707
15386678993
15386684425
15386690163
15386694862
15386700905
15386706032
15386713173
15386718361
15386726112
15386729225
15386738258
15386741310
15386747841
15386752968
15386761818
15386767311
15386773842
15386780739
15386786720
15386791481
15386798073
15386803077
15386810524
15386815834
15386824562
15386830726
15386836891
15386843727
15386851295
15386856910
15386864723
15386869606
15386875282
15386880836
15386885658
15386891151
15386895973
15386902442
15386908912
15386913978
15386917579
15386926917
15386931190
15386938453
15386943397
15386948219
15386954017
15386961280
15386964637
15386971595
15386975013
15386982581
15386987342
15386994239
15387001319
15387006385
15387009071
15387016151
15387021400
15387028602
15387031348
15387038550
15387043433
15387050025
15387055396
15387061866
15387067481
15387071754
15387077552
15387082618
15387089454
15387095130
15387101966
15387107093
15387111548
15387118018
15387123572
15387128272
15387134070
15387141089
15387146704
15387149939
15387157874
15387163306
15387168372
15387174720
15387179847
15387185523
15387194251
15387199439
15387204505
15387210303
15387215125
15387221411
15387226294
15387233313
15387238196
15387244788
15387250159
15387256323
15387261511
15387267554
15387272253
15387278357
15387286902
15387293066
15387295020
15387304907
15387309790
15387314551
15387320776
15387328467
15387332739
15387340613
15387343603
15387350622
15387355200
15387361609
15387366553
15387372717
15387378943
15387385046
15387390478
15387396399
15387402624
15387407812
15387413672
15387421850
15387429113
15387435522
15387440893
15387448156
15387452307
15387458471
15387463171
15387466162
15387474157
15387480322
15387486120
15387489782
15387497534
15387502966
15387507055
15387512609
15387519140
15387527624
15387535131
15387540869
15387546972
15387550573
15387560034
15387564245
15387571630
15387577734
15387584081
15387588598
15387595312
15387599889
15387607214
15387613927
15387618932
15387627294
15387632482
15387638586
15387644140
15387648412
15387656713
15387660985
15387668676
15387673009
15387681066
15387684606
15387691381
15387696264
15387702245
15387707738
15387713720
15387719884
15387725744
15387731298
15387737279
15387740819
15387747411
15387752233
15387758641
15387764684
15387772191
15387776097
15387784215
15387787633
15387794103
15387798375
15387804845
15387812169
15387818639
15387824742
15387827916
15387835179
15387838780
15387845128
15387852879
15387858678
15387864415
15387870396
15387876073
15387881810
15387886571
15387892674
15387898900
15387906102
15387912328
15387915990
15387923192
15387928624
15387935277
15387942052
15387948826
15387952183
15387958836
15387964451
15387970006
15387974583
15387979588
15387986302
15387994420
15388000035
15388005467
15388013951
15388018345
15388024998
15388029942
15388038304
15388043003
15388048680
15388054600
15388060948
15388065403
15388071141
15388077244
15388081578
15388090122
15388093479
15388100254
15388105870
15388113011
15388119847
15388124363
15388129124
15388138096
15388143101
15388149387
15388155125
15388160008
15388166660
15388171848
15388178501
15388184666
15388190891
15388196140
15388200779
15388207066
15388212925
15388218540
15388224399
15388229771
15388236301
15388241550
15388247288
15388252170
15388257603
15388263767
15388268284
15388273960
15388283359
15388288608
15388293979
15388299900
15388305210
15388310337
15388313633
15388321445
15388328037
15388332920
15388336277
15388345676
15388349094
15388356418
15388361301
15388366733
15388374301
15388380527
15388386020
15388391574
15388395969
15388401645
15388407993
15388413669
15388418064
15388424472
15388430759
15388435581
15388441318
15388446872
15388453647
15388456699
15388463962
15388469089
15388478671
15388481479
15388488559
15388492953
15388499973
15388504367
15388511691
15388517184
15388524020
15388530185
15388535129
15388540866
15388545749
15388555881
15388559115
15388567233
15388573215
15388580905
15388589206
15388594272
15388601108
15388608066
15388614291
15388619113
15388628756
15388634372
15388641024
15388645419
15388651400
15388657016
15388661532
15388667880
15388673068
15388680453
15388685519
15388692172
15388696139
15388701876
15388708590
15388718356
15388724581
15388731234
15388738497
15388743868
15388748934
15388755038
15388759249
15388765292
15388770358
15388777743
15388782504
15388789095
15388794283
15388799837
15388805697
15388811068
15388816073
15388823763
15388829500
15388835421
15388840548
15388846834
15388852144
15388856722
15388864046
15388870211
15388875521
15388880343
15388887728
15388892733
15388897677
15388903841
15388910128
15388914827
15388922823
15388927584
15388931002
15388939058
15388943026
15388950777
15388955721
15388962252
15388969026
15388975069
15388981233
15388987215
15388991732
15388997896
15389004122
15389008943
15389015474
15389021150
15389027559
15389033479
15389037935
15389044222
15389048738
15389055147
15389060213
15389066560
15389074129
15389077669
15389084077
15389089937
15389096040
15389101106
15389106782
15389111604
15389118440
15389123323
15389130220
15389136568
15389142244
15389146699
15389150239
15389159395
15389167024
15389173372
15389178621
15389184297
15389187593
15389195772
15389199251
15389205903
15389211458
15389218843
15389222139
15389231111
15389235810
15389242280
15389247590
15389254792
15389261262
15389267732
15389274018
15389279023
15389284883
15389290498
15389296845
15389301911
15389306367
15389313752
15389318757
15389323823
15389330537
15389336518
15389342866
15389347871
15389354890
15389360383
15389367402
15389372590
15389378632
15389383332
15389388886
15389395478
15389400666
15389405183
15389412019
15389418366
15389421967
15389429108
15389434296
15389440156
15389445649
15389451691
15389457184
15389464326
15389469391
15389475617
15389480134
15389485993
15389492585
15389498078
15389502655
15389510834
15389515717
15389519196
15389528534
15389532196
15389538788
15389541779
15389550080
15389555756
