14929736743
14929741442
14929747912
14929752673
14929757922
14929763171
14929767382
14929773303
14929778369
14929784960
14929789904
14929795641
14929800463
14929805895
14929812060
14929822619
14929827502
14929835314
14929844286
14929850817
14929856860
14929861681
14929868212
14929873400
14929880968
14929887011
14929894335
14929901720
14929913256
14929921374
14929928454
14929935534
14929943163
14929948168
14929956102
14929963549
14929971666
14929978197
14929985521
14929990648
14929997728
14930005663
14930010912
14930020006
14930029589
14930035631
14930041307
14930049730
14930055528
14930062486
14930069933
14930074632
14930081163
14930088976
14930094347
14930101427
14930109544
14930114549
14930121446
14930127855
14930133470
14930139268
14930146410
14930150926
14930158433
14930165880
14930170335
14930176683
14930183458
14930189073
14930195360
14930203294
14930210313
14930217332
14930223009
14930230394
14930236436
14930239732
14930249864
14930256151
14930263536
14930270433
14930276658
14930282701
14930289109
14930296739
14930303208
14930308824
14930316148
14930321031
14930327745
14930334275
14930342576
14930348496
14930356797
14930361497
14930370042
14930375779
14930384141
14930391648
14930403428
14930409531
14930416306
14930424119
14930431138
14930439072
14930445969
14930453965
14930460068
14930466416
14930472092
14930477830
14930483628
14930488999
14930497544
14930504502
14930509629
14930515366
14930522934
14930534104
14930540818
14930547593
14930554368
14930561570
14930569504
14930574509
14930583359
14930586655
14930596482
14930601914
14930609665
14930615769
14930623032
14930629257
14930636521
14930644028
14930648972
14930656845
14930662583
14930670639
14930677780
14930684067
14930690659
14930696701
14930703964
14930712082
14930718369
14930726181
14930732651
14930739487
14930749557
14930755966
14930763229
14930769089
14930777450
14930783554
14930790939
14930797836
14930804916
14930811447
14930818283
14930824630
14930832260
14930838424
14930846481
14930853866
14930861618
14930867599
14930875106
14930882553
14930889083
14930895492
14930902877
14930909652
14930915817
14930920944
14930928512
14930937057
14930943405
14930949081
14930957137
14930963363
14930969344
14930975692
14930981857
14930989791
14930996017
14931002609
14931012985
14931021651
14931027816
14931037276
14931043319
14931052108
14931059493
14931066695
14931073958
14931080977
14931088729
14931094710
14931102096
14931109359
14931114181
14931122664
14931129012
14931135360
14931141951
14931148970
14931155379
14931162642
14931170272
14931176986
14931183760
14931191268
14931198104
14931205184
14931212081
14931219161
14931226912
14931233992
14931240767
14931247847
14931254683
14931262374
14931269332
14931275618
14931282027
14931287093
14931292708
14931298872
14931304793
14931310225
14931316145
14931321761
14931328535
14931332625
14931338606
14931342818
14931347578
14931353255
14931357710
14931361983
14931368696
14931374434
14931379866
14931384688
14931391035
14931397261
14931402571
14931407088
14931413191
14931419295
14931424177
14931430708
14931437117
14931442671
14931447554
14931453596
14931459456
14931465071
14931469893
14931474897
14931482466
14931487776
14931493147
14931498762
14931503096
14931507490
14931512495
14931519514
14931524824
14931528303
14931535749
14931540754
14931546980
14931550031
14931560407
14931567365
14931576215
14931585310
14931591352
14931600813
14931607954
14931618330
14931624799
14931636335
14931645917
14931654096
14931664289
14931672590
14931681989
14931689802
14931697431
14931707319
14931714582
14931724775
14931732587
14931742170
14931749189
14931758649
14931767194
14931775556
14931781659
14931790754
14931801374
14931807233
14931815351
14931823224
14931830915
14931839887
14931847577
14931853803
14931863202
14931873151
14931880780
14931887189
14931896588
14931906537
14931914655
14931922223
14931930402
14931939435
14931947308
14931956097
14931964215
14931971234
14931981183
14931988751
14931996258
14932003705
14932013592
14932020489
14932030377
14932036053
14932045941
14932052716
14932061566
14932069378
14932079998
14932088055
14932095684
14932104473
14932112713
14932125836
14932149151
14932163006
14932173992
14932184918
14932195171
14932205425
14932217266
14932228741
14932237102
14932244488
14932251507
14932259075
14932265972
14932274273
14932281536
14932290691
14932298931
14932305584
14932312908
14932320110
14932327923
14932333416
14932341655
14932350689
14932358806
14932367046
14932374614
14932383342
14932390178
14932397380
14932405071
14932410564
14932422710
14932427959
14932435466
14932443584
14932451885
14932459636
14932467326
14932474468
14932485820
14932492290
14932501140
14932511516
14932519817
14932527080
14932535686
14932543925
14932550700
14932560100
14932566875
14932576091
14932584758
14932591044
14932598674
14932604960
14932614299
14932620158
14932628215
14932636027
14932644389
14932650981
14932658793
14932665507
14932674113
14932680949
14932689189
14932696208
14932703471
14932712992
14932718424
14932729228
14932736430
14932744242
14932751078
14932759623
14932767436
14932774882
14932781596
14932789469
14932796183
14932804118
14932810404
14932817484
14932823588
14932831034
14932839518
14932845743
14932851664
14932863199
14932870524
14932877787
14932883768
14932891154
14932899637
14932907145
14932913065
14932919901
14932929667
14932937235
14932945841
14932953898
14932960184
14932967508
14932976175
14932980631
14932991312
14932998636
14933007364
14933014933
14933021952
14933028910
14933033182
14933037699
14933044473
14933048380
14933054483
14933058939
14933063822
14933069132
14933074503
14933077066
14933085184
14933090128
14933095438
14933099405
14933105936
14933110696
14933116739
14933120889
14933125833
14933132852
14933137125
14933142862
14933147256
14933152444
14933158548
14933163797
14933169107
14933174417
14933178750
14933185525
14933190225
14933195230
14933200845
14933207559
14933214029
14933222452
14933227884
14933233621
14933238382
14933244363
14933249307
14933255594
14933261697
14933268167
14933273538
14933277993
14933282327
14933286904
14933291665
14933296243
14933300515
14933309365
14933317788
14933325112
14933331460
14933338845
14933345681
14933353921
14933360085
14933371255
14933377969
14933385232
14933393838
14933399697
14933405434
14933414162
14933421670
14933431435
14933440346
14933448281
14933452676
14933464455
14933472756
14933482949
14933491067
14933498391
14933507302
14933514748
14933522316
14933530373
14933538552
14933546914
14933551247
14933561562
14933567849
14933577675
14933583901
14933592324
14933598732
14933608620
14933616738
14933627053
14933633766
14933641823
14933650124
14933657875
14933663735
14933670204
14933679054
14933686867
14933696510
14933702187
14933711403
14933718605
14933725197
14933731544
14933740700
14933746986
14933756569
14933764015
14933773781
14933778541
14933788002
14933795265
14933800697
14933809364
14933818824
14933825721
14933833168
14933839882
14933847145
14933856056
14933863746
14933869545
14933878456
14933886512
14933894203
14933900001
14933906227
14933915504
14933920814
14933930641
14933937477
14933947852
14933956031
14933965980
14933972877
14933980506
14933989356
14933997169
14934007117
14934015418
14934022864
14934032569
14934040687
14934048316
14934054175
14934062598
14934069678
14934078284
14934085242
14934092994
14934100989
14934109717
14934116126
14934123999
14934131141
14934139380
14934146094
14934153174
14934159583
14934167212
14934173072
14934181678
14934190284
14934195227
14934205908
14934210852
14934219763
14934225501
14934234595
14934241309
14934248938
14934258093
14934266333
14934273230
14934280188
14934287207
14934295508
14934300147
14934313086
14934319922
14934329321
14934336706
14934344519
14934351294
14934359473
14934366247
14934374609
14934381445
14934391028
14934397375
14934404699
14934413488
14934418921
14934428686
14934436132
14934443213
14934450659
14934459753
14934466528
14934473730
14934482214
14934490087
14934497656
14934504736
14934511328
14934520422
14934527868
14934533605
14934542578
14934550817
14934558935
14934565649
14934574499
14934582616
14934590429
14934598791
14934605322
14934612951
14934620702
14934625890
14934633276
14934641820
14934649816
14934659948
14934666234
14934674657
14934681676
14934689428
14934699071
14934706334
14934713842
14934719945
14934725194
14934729894
14934735509
14934742040
14934748265
14934755468
14934761937
14934768285
14934774511
14934777318
14934785009
14934789342
14934795934
14934801122
14934809728
14934814366
14934819493
14934825231
14934831151
14934835484
14934841527
14934845921
14934855504
14934859776
14934866124
14934870702
14934875523
14934881932
14934887303
14934892308
14934896581
14934904637
14934910497
14934915746
14934920445
14934925877
14934931554
14934937596
14934942601
14934948460
14934954503
14934958470
14934964818
14934968907
14934975560
14934980015
14934986851
14934991978
14934998753
14935002903
14935007542
14935015660
14935023777
14935031590
14935039097
14935044712
14935052464
14935061436
14935068211
14935077488
14935085179
14935094212
14935106175
14935119053
14935129551
14935139744
14935153233
14935163242
14935173252
14935186863
14935198338
14935211826
14935220432
14935229526
14935238010
14935247410
14935255710
14935266086
14935275791
14935284580
14935297214
14935306858
14935317356
14935328403
14935338474
14935348789
14935358677
14935371128
14935382663
14935393039
14935403049
14935414707
14935426669
14935434238
14935447177
14935458347
14935468173
14935479099
14935490695
14935499301
14935511325
14935522922
14935534274
14935545505
14935560824
14935572116
14935584445
14935597506
14935606845
14935620700
14935628207
14935638827
14935650729
14935659457
14935671176
14935677706
14935689547
14935699069
14935710665
14935724703
14935734835
14935744113
14935753756
14935763949
14935774813
14935784090
14935800936
14935819674
14935835055
14935858309
14935875704
14935896151
14935916903
14935934298
14935952181
14935970308
14935990145
14936005709
14936014864
14936023409
14936032564
14936051851
14936071321
14936091829
14936109529
14936120698
14936130159
14936140169
14936149263
14936160127
14936169282
14936178438
14936189180
14936198823
14936208528
14936217439
14936227082
14936236360
14936247590
14936256684
14936266206
14936275727
14936284333
14936294221
14936303193
14936313447
14936322907
14936333772
14936347138
14936359162
14936369843
14936378388
14936389252
14936398164
14936407014
14936418244
14936428254
14936437165
14936447053
14936456025
14936465119
14936474763
14936484406
14936494599
14936504548
14936515046
14936524567
14936534455
14936545624
14936553376
14936567047
14936575836
14936588410
14936596466
14936608246
14936617035
14936627472
14936634674
14936645050
14936654327
14936665070
14936674957
14936681976
14936694122
14936702484
14936711822
14936721710
14936732941
14936742889
14936750519
14936759430
14936769439
14936777069
14936788177
14936797455
14936807159
14936816803
14936823272
14936834320
14936841705
14936850311
14936859466
14936867950
14936875579
14936883697
14936892547
14936898651
14936906829
14936914764
14936923004
14936928802
14936931793
14936938079
14936943267
14936947601
14936953033
14936958465
14936963592
14936967742
14936973296
14936977142
14936984161
14936986785
14936995086
14937000335
14937005279
14937010711
14937014617
14937021392
14937025115
14937031707
14937037017
14937041717
14937047820
14937053313
14937059051
14937063506
14937069671
14937075042
14937079802
14937084868
14937090300
14937097869
14937105193
14937110381
14937119109
14937123992
14937131377
14937138640
14937145781
14937153533
14937159575
14937168059
14937175688
14937186309
14937194487
14937200713
14937207366
14937218718
14937228056
14937235381
14937243254
14937249236
14937256682
14937264861
14937270537
14937277373
14937284331
14937291533
14937296477
14937303984
14937311980
14937317534
14937325774
14937333281
14937339262
14937347624
14937355681
14937363432
14937370756
14937377653
14937384977
14937392363
14937400419
14937408537
14937414457
14937423185
14937432951
14937439360
14937446684
14937455473
14937462248
14937470243
14937477629
14937484709
14937491728
14937503507
14937510343
14937519132
14937527982
14937534147
14937541471
14937548429
14937555021
14937561918
14937570646
14937576322
14937585905
14937592069
14937599577
14937607450
14937615140
14937622648
14937630338
14937637723
14937643278
14937652372
14937660184
14937667875
14937675809
14937684537
14937694791
14937701566
14937710843
14937718473
14937726346
14937732816
14937741788
14937749662
14937757962
14937764737
14937773892
14937781949
14937787808
14937795987
14937803556
14937811856
14937820828
14937828885
14937837979
14937844693
14937851590
14937861783
14937867947
14937877042
14937889310
14937896756
14937907437
14937916470
14937921597
14937935330
14937943265
14937952115
14937959256
14937967373
14937974515
14937981350
14937990994
14937996548
14938004239
14938010464
14938018521
14938024441
14938032803
14938038906
14938046902
14938054409
14938059780
14938070034
14938076199
14938083218
14938090237
14938097256
14938103481
14938112393
14938119106
14938127773
14938132839
14938142300
14938149990
14938158474
14938165005
14938172268
14938182400
14938190578
14938200222
14938207668
14938215053
14938223293
14938230434
14938238979
14938246059
14938254116
14938262417
14938271572
14938279629
14938287563
14938295131
14938302822
14938310329
14938316860
14938325161
14938331203
14938339443
14938346096
14938352443
14938359096
14938366054
14938371425
14938377590
14938382717
14938390102
14938394252
14938397792
14938403530
14938407680
14938412929
14938419643
14938424404
14938429347
14938437038
14938443385
14938455592
14938460231
14938468105
14938472377
14938476711
14938481105
14938486903
14938493190
14938503627
14938507716
14938513454
14938521754
14938527736
14938534144
14938539760
14938545192
14938550563
14938555202
14938561305
14938567409
14938573085
14938578456
14938585353
14938589625
14938595912
14938601771
14938606898
14938610560
14938615504
14938621119
14938626857
14938632045
14938638819
14938642665
14938653712
14938661586
14938669520
14938677333
14938684474
14938690821
14938699305
14938705348
14938712489
14938718714
14938727686
14938734339
14938742152
14938749171
14938758631
14938765589
14938772974
14938780116
14938787440
14938794398
14938802943
14938810145
14938818079
14938825037
14938832361
14938838099
14938847193
14938853358
14938861048
14938866663
14938874781
14938880396
14938889307
14938896143
14938902735
14938912012
14938916956
14938925196
14938932520
14938939661
14938948084
14938955408
14938962732
14938972254
14938979639
14938987390
14938993677
14939004114
14939010767
14939018945
14939027063
14939035547
14939039636
14939050378
14939056604
14939066797
14939075586
14939081079
14939086938
14939096399
14939104211
14939111597
14939119104
14939125696
14939134790
14939139978
14939148523
14939156518
14939163843
14939170923
14939177820
14939185022
14939195703
14939201562
14939209253
14939216821
14939224511
14939232141
14939240014
14939249292
14939258874
14939265649
14939274133
14939278710
14939291284
14939295190
14939307153
14939314050
14939323144
14939331628
14939338281
14939344445
14939353295
14939359704
14939366601
14939373315
14939383446
14939388329
14939396813
14939402795
14939410119
14939416588
14939425072
14939428673
14939440148
14939445458
14939454003
14939460412
14939467248
14939473595
14939480675
14939488366
14939496239
14939503319
14939512536
14939519677
14939527489
14939534630
14939542504
14939550377
14939559471
14939566185
14939573571
14939579369
14939588036
14939596276
14939602257
14939610802
14939616905
14939626122
14939632835
14939642052
14939647850
14939656639
14939662071
14939669823
14939677452
14939685936
14939690758
14939703026
14939710533
14939718284
14939725975
14939733299
14939739708
14939748558
14939756248
14939764366
14939770591
14939779625
14939785606
14939794700
14939800804
14939810325
14939817344
14939825523
14939834251
14939840110
14939848899
14939855430
14939864158
14939871910
14939879966
14939888755
14939895530
14939902854
14939910240
14939917198
14939924583
14939931602
14939939658
14939947898
14939955650
14939964256
14939971702
14939979636
14939985801
14939991599
14940003501
14940009727
14940018882
14940024253
14940027915
14940033530
14940040854
14940045920
14940052512
14940059470
14940063865
14940070701
14940074729
14940079184
14940085898
14940091452
14940096763
14940102195
14940107383
14940112754
14940118308
14940122947
14940129599
14940133811
14940141074
14940146384
14940151023
14940156638
14940161093
14940165793
14940172202
14940176718
14940183249
14940189047
14940193320
14940199118
14940202963
14940209555
14940213767
14940222373
14940228964
14940234519
14940239462
14940244711
14940250815
14940255515
14940261740
14940267233
14940272238
14940276816
14940282919
14940289328
14940297812
14940304526
14940311972
14940321860
14940328390
14940337485
14940346029
14940353232
14940361410
14940369772
14940377401
14940385702
14940395529
14940403341
14940411398
14940420431
14940428488
14940435934
14940446066
14940454245
14940459677
14940469259
14940477072
14940487020
14940494711
14940505148
14940512777
14940520162
14940527425
14940535055
14940545126
14940552877
14940560201
14940569540
14940575094
14940584676
14940592855
14940598714
14940610982
14940618612
14940628133
14940636495
14940642782
14940651815
14940660360
14940672994
14940682393
14940690023
14940699544
14940708333
14940716695
14940723348
14940735189
14940742025
14940749532
14940756673
14940764546
14940772481
14940779317
14940788594
14940794148
14940802632
14940808492
14940816914
14940823689
14940830647
14940839925
14940851216
14940863545
14940872212
14940878743
14940885518
14940894551
14940902058
14940910481
14940918721
14940925069
14940934285
14940942463
14940948811
14940956807
14940964924
14940972126
14940980488
14940988484
14940996479
14941004292
14941012715
14941020283
14941028706
14941033528
14941042378
14941049275
14941057392
14941065388
14941072041
14941080647
14941089192
14941095844
14941104695
14941113239
14941122761
14941130207
14941136921
14941146748
14941153584
14941161152
14941168415
14941178547
14941185444
14941193439
14941200703
14941207477
14941216511
14941224628
14941234516
14941240986
14941249042
14941255939
14941262531
14941272358
14941279743
14941286518
14941295185
14941303486
14941311237
14941317951
14941324970
14941333026
14941341938
14941355731
14941364582
14941373615
14941381000
14941391681
14941401325
14941408099
14941417133
14941424030
14941434222
14941440936
14941452106
14941456500
14941465228
14941473590
14941480975
14941488910
14941496722
14941504413
14941512836
14941519427
14941530353
14941539447
14941546405
14941551715
14941560504
14941568194
14941575824
14941582721
14941591754
14941600238
14941604937
14941610675
14941614520
14941621539
14941625933
14941634539
14941639422
14941644549
14941649615
14941654864
14941659320
14941665789
14941670123
14941677935
14941682452
14941688677
14941693316
14941700640
14941705645
14941711566
14941718951
14941723650
14941729571
14941735674
14941740435
14941745501
14941750323
14941756487
14941761797
14941769305
14941774981
14941781451
14941786639
14941792376
14941797137
14941804034
14941810869
14941817644
14941823687
14941829485
14941834856
14941839556
14941844256
14941850481
14941855425
14941862322
14941869097
14941874773
14941881121
14941890093
14941898088
14941904497
14941911577
14941920793
14941930010
14941939287
14941946978
14941953081
14941962175
14941968523
14941977922
14941985674
14941997209
14942003984
14942013567
14942023210
14942031084
14942037309
14942050798
14942062334
14942070695
14942079362
14942087419
14942098527
14942108171
14942118181
14942126726
14942136369
14942142412
14942148637
14942158159
14942167497
14942175126
14942181596
14942189164
14942196672
14942204606
14942211930
14942219438
14942225785
14942235795
14942242021
14942249711
14942262895
14942272111
14942277360
14942285661
14942292863
14942301164
14942307328
14942316422
14942325700
14942333207
14942342179
14942350724
14942357987
14942366044
14942374467
14942383378
14942390763
14942399674
14942406388
14942417435
14942424271
14942433426
14942442521
14942450944
14942457413
14942466507
14942475358
14942483048
14942491105
14942498917
14942507523
14942516068
14942524247
14942532059
14942542008
14942548600
14942556961
14942564347
14942571854
14942580826
14942586991
14942597611
14942606583
14942613358
14942620316
14942629654
14942635574
14942643997
14942653336
14942662003
14942669510
14942673355
14942683792
14942690140
14942699234
14942706558
14942715957
14942722854
14942731155
14942738601
14942746902
14942753799
14942763626
14942769302
14942777176
14942786331
14942795303
14942803787
14942812210
14942819107
14942828018
14942837539
14942845230
14942853408
14942860610
14942868484
14942875991
14942883132
14942891433
14942900588
14942910171
14942916946
14942924087
14942931960
14942941726
14942951125
14942957351
14942965224
14942975478
14942984206
14942991592
14942999404
14943006728
14943016555
14943036880
14943042800
14943054397
14943063002
14943071792
14943079909
14943090590
14943098464
14943104018
14943113417
14943120925
14943131667
14943139907
14943146132
14943155287
14943163405
14943171157
14943178725
14943187758
14943195265
14943203627
14943210829
14943218581
14943226393
14943235121
14943241713
14943245863
14943251662
14943255995
14943260634
14943268141
14943272353
14943279005
14943283339
14943288893
14943294142
14943298903
14943304823
14943311232
14943316176
14943320265
14943325697
14943331312
14943338514
14943343825
14943349257
14943353956
14943360060
14943365431
14943371656
14943376173
14943382277
14943387281
14943392714
14943398573
14943403517
14943410231
14943416761
14943421095
14943425795
14943432630
14943438063
14943443556
14943446485
14943453565
14943459181
14943464979
14943469557
14943476087
14943481214
14943488905
14943494398
14943501722
14943506849
14943513868
14943518446
14943524305
14943530409
14943537000
14943544813
14943551038
14943558118
14943566480
14943576063
14943582960
14943590772
14943600416
14943606519
14943613050
14943622266
14943629651
14943637037
14943645459
14943653577
14943658948
14943668653
14943674939
14943683362
14943691724
14943697889
14943704114
14943712598
14943719556
14943729200
14943735486
14943742993
14943750012
14943757764
14943764844
14943772595
14943780774
14943789319
14943796765
14943803845
14943811475
14943818860
14943828320
14943834485
14943846021
14943854749
14943862134
14943870373
14943877698
14943887036
14943894849
14943903332
14943912549
14943920422
14943928052
14943933911
14943942456
14943950146
14943957592
14943963940
14943973401
14943982373
14943990551
14943998242
14944004834
14944012158
14944020336
14944028271
14944036938
14944044018
14944051342
14944058727
14944066723
14944074169
14944081127
14944091015
14944098461
14944106518
14944114269
14944121777
14944128796
14944136730
14944143993
14944153332
14944159435
14944167065
14944175121
14944181164
14944189464
14944197582
14944205822
14944215038
14944220775
14944230480
14944236645
14944246654
14944253002
14944263805
14944277233
14944284496
14944292797
14944300670
14944308300
14944315929
14944324474
14944333141
14944339733
14944347118
14944355724
14944364940
14944372997
14944381358
14944389049
14944396495
14944403758
14944411266
14944420055
14944427623
14944436046
14944440379
14944450938
14944458324
14944465953
14944473033
14944481273
14944488719
14944496959
14944503123
14944508983
14944518687
14944526500
14944535533
14944543590
14944550975
14944558299
14944567332
14944574168
14944583445
14944590342
14944598582
14944604686
14944613536
14944621470
14944627146
14944633982
14944643077
14944650462
14944656260
14944664073
14944669871
14944678416
14944686595
14944696055
14944702464
14944711741
14944718089
14944727732
14944734873
14944744089
14944752329
14944759409
14944766733
14944773691
14944780405
14944789561
14944797068
14944804209
14944811838
14944821909
14944827341
14944836558
14944843821
14944853159
14944859385
14944868174
14944873911
14944882883
14944888742
14944897654
14944905161
14944911264
14944917978
14944925119
14944931589
14944936960
14944942148
14944947885
14944953623
14944958078
14944963388
14944968149
14944975290
14944984506
14944990915
14944997446
14945003244
14945013132
14945020151
14945027536
14945035287
14945040048
14945045297
14945050363
14945056650
14945062570
14945068063
14945074655
14945079233
14945085153
14945089670
14945095956
14945101327
14945106576
14945111337
14945118051
14945122201
14945127756
14945133798
14945137582
14945144845
14945148935
14945155404
14945159555
14945166391
14945170724
14945178048
14945184213
14945190011
14945195932
14945202768
14945209542
14945217721
14945224862
14945234384
14945239694
14945247567
14945256417
14945265756
14945270394
14945281014
14945289010
14945296761
14945304574
14945312020
14945320138
14945326730
14945337045
14945346322
14945354134
14945358956
14945370309
14945378609
14945385995
14945394417
14945402596
14945410958
14945417245
14945423653
14945431588
14945436776
14945444527
14945451546
14945460823
14945468880
14945475350
14945483651
14945490670
14945498848
14945507271
14945514717
14945520394
14945528694
14945534554
14945542122
14945548592
14945556648
14945565682
14945575691
14945582588
14945590584
14945599068
14945606514
14945613411
14945621162
14945628426
14945638435
14945645088
14945652901
14945660652
14945669197
14945677132
14945684822
14945692268
14945702461
14945709602
14945717598
14945726326
14945735664
14945745491
14945756050
14945762825
14945770759
14945778877
14945785591
14945793891
14945800972
14945809577
14945816719
14945825996
14945831672
14945840217
14945847846
14945853828
14945861762
14945868232
14945876899
14945885810
14945895881
14945901618
14945909980
14945922919
14945935126
14945944404
14945953681
14945960517
14945969184
14945975471
14945984077
14945991462
14945997321
14946004462
14946012824
14946020392
14946028510
14946036323
14946044562
14946052253
14946059638
14946065375
14946070929
14946079963
14946086982
14946095954
14946102240
14946109381
14946116400
14946123542
14946129889
14946138251
14946145941
14946152411
14946158270
14946167182
14946173468
14946182990
14946194769
14946202033
14946213080
14946223639
14946232184
14946239813
14946248724
14946255865
14946263190
14946269232
14946277106
14946283514
14946291083
14946297735
14946305487
14946312079
14946319159
14946326178
14946332342
14946340155
14946347052
14946352911
14946360785
14946368536
14946376226
14946382879
14946390692
14946400518
14946406866
14946415838
14946423468
14946432073
14946439276
14946447454
14946455389
14946465399
14946471319
14946478948
14946486028
14946493169
14946501043
14946507879
14946514593
14946521429
14946527105
14946534673
14946541204
14946547918
14946554266
14946560979
14946564764
14946570074
14946573919
14946579656
14946584966
14946590642
14946597906
14946602239
14946607549
14946611577
14946616887
14946622686
14946627874
14946634160
14946640630
14946647161
14946652105
14946655706
14946661870
14946666509
14946672673
14946678228
14946685796
14946690801
14946695623
14946700811
14946705632
14946709050
14946717046
14946723332
14946730657
14946734685
14946740239
14946743901
14946749639
14946754277
14946758733
14946764348
14946769658
14946776494
14946781255
14946786015
14946790410
14946795232
14946799687
14946806950
14946813298
14946820500
14946827824
14946836430
14946843388
14946851933
14946857854
14946869145
14946875920
14946883305
14946891911
14946900334
14946908574
14946917790
14946925053
14946931401
14946940983
14946946843
14946957035
14946964848
14946975468
14946984318
14946992985
14947002934
14947012821
14947021366
14947031376
14947043583
14947052677
14947062077
14947070744
14947077885
14947086186
14947092472
14947102543
14947109318
14947117130
14947123661
14947133244
14947138798
14947147037
14947156620
14947164921
14947170597
14947180118
14947185489
14947195438
14947202884
14947210148
14947216984
14947228214
14947235294
14947244022
14947251712
14947260624
14947267398
14947272464
14947283939
14947290226
14947297245
14947308902
14947314701
14947323856
14947330692
14947337833
14947346805
14947355594
14947362979
14947371036
14947378299
14947386539
14947393924
14947402042
14947410159
14947417300
14947424625
14947431766
14947439517
14947448001
14947456729
14947462283
14947471316
14947480044
14947487430
14947494388
14947504031
14947511661
14947518069
14947526187
14947534243
14947542300
14947548831
14947559878
14947568118
14947574343
14947583316
14947591128
14947599063
14947606204
14947615786
14947622622
14947631899
14947638980
14947645022
14947654055
14947662417
14947670229
14947678652
14947686953
14947694094
14947701418
14947708620
14947716372
14947726260
14947733034
14947740908
14947749453
14947757571
14947765322
14947774050
14947781191
14947789736
14947800661
14947807497
14947816897
14947825075
14947830141
14947837954
14947846560
14947851442
14947860659
14947867373
14947877748
14947885439
14947893251
14947900148
14947909181
14947916262
14947923525
14947931337
14947938661
14947945864
14947953371
14947959780
14947968202
14947975527
14947984316
14947988527
14948000063
14948009462
14948020876
14948028078
14948037599
14948044923
14948054323
14948062135
14948067995
14948077089
14948083375
14948094606
14948101503
14948109376
14948119264
14948126649
14948134462
14948139711
14948146241
14948152955
14948158570
14948163514
14948168092
14948173158
14948177552
14948184144
14948189515
14948195191
14948199403
14948207093
14948212709
14948218568
14948224916
14948230287
14948236817
14948244203
14948248719
14948255982
14948261903
14948268433
14948274110
14948280091
14948286073
14948290833
14948296265
14948302125
14948308411
14948313844
14948320191
14948326417
14948329652
14948339539
14948345643
14948352235
14948357484
14948364442
14948369141
14948376343
14948380982
14948390259
14948395936
14948403077
14948408631
14948415894
14948421875
14948429261
14948434266
14948448182
14948458191
14948465271
14948475159
14948484131
14948491822
14948499817
14948507752
14948512146
14948523133
14948530152
14948539917
14948550049
14948556152
14948564819
14948571106
14948580017
14948588989
14948596191
14948600647
14948612915
14948621399
14948628967
14948636597
14948643677
14948650818
14948659729
14948667053
14948673401
14948682068
14948691284
14948698730
14948708130
14948715393
14948721985
14948730041
14948737549
14948747680
14948755920
14948763794
14948772827
14948780822
14948786804
14948796020
14948802001
14948811279
14948820312
14948827758
14948836059
14948842773
14948852355
14948860412
14948867736
14948875488
14948883727
14948890502
14948897704
14948906188
14948912475
14948924010
14948930785
14948937194
14948945617
14948952819
14948961364
14948967895
14948976317
14948984191
14948993529
14949001464
14949008300
14949016601
14949023742
14949033324
14949040587
14949047667
14949054625
14949063170
14949072997
14949082152
14949088195
14949095885
14949103514
14949111876
14949120848
14949128905
14949141783
14949152770
14949161620
14949169493
14949178343
14949186522
14949196104
14949204588
14949217406
14949221739
14949232848
14949242430
14949248656
14949257811
14949265196
14949274412
14949281737
14949288939
14949295714
14949304075
14949311155
14949318480
14949327269
14949336058
14949342405
14949350950
14949359068
14949366819
14949372984
14949383604
14949391294
14949399900
14949407713
14949414244
14949423338
14949430845
14949439146
14949447813
14949455198
14949462644
14949470945
14949478941
14949486631
14949497862
14949502439
14949512937
14949520628
14949527769
14949535398
14949541502
14949557126
14949565549
14949575010
14949582517
14949588804
14949597654
14949604368
14949613950
14949621518
14949630185
14949638242
14949645444
14949654538
14949659665
14949671201
14949677610
14949687192
14949695432
14949702024
14949713071
14949722104
14949729489
14949738278
14949746945
14949752011
14949758786
14949764401
14949768308
14949776425
14949780942
14949786374
14949792844
14949796994
14949802365
14949807431
14949812985
14949819394
14949825375
14949831479
14949838559
14949845700
14949852170
14949857419
14949867062
14949873776
14949879574
14949887082
14949891720
14949898007
14949903012
14949909054
14949914547
14949920163
14949924740
14949930966
14949936276
14949942624
14949949093
14949955258
14949960751
14949965878
14949972287
14949976986
14949982418
14949988400
14949994992
14950001583
14950008297
14950011593
14950019222
14950025265
14950034176
14950042721
14950050350
14950057675
14950065975
14950074154
14950082638
14950090694
14950098080
14950106380
14950113583
14950123043
14950129940
14950139278
14950146114
14950156063
14950165768
14950171322
14950180721
14950188778
14950197445
14950205868
14950215023
14950222164
14950231929
14950239193
14950247432
14950256527
14950263607
14950272457
14950278255
14950284603
14950294307
14950301509
14950308711
14950317623
14950322872
14950332576
14950340694
14950347774
14950353145
14950361873
14950368465
14950377193
14950386714
14950392635
14950401363
14950407344
14950415462
14950424922
14950431819
14950440486
14950446834
14950453792
14950460994
14950469966
14950477046
14950485347
14950492305
14950499629
14950507930
14950514583
14950522517
14950529719
14950536250
14950542659
14950552546
14950560054
14950570002
14950577449
14950587763
14950594783
14950602107
14950610469
14950620295
14950629145
14950639033
14950646906
14950656184
14950662409
14950668940
14950676997
14950685114
14950693964
14950698359
14950707453
14950714655
14950722651
14950730585
14950737726
14950743525
14950752192
14950760309
14950768671
14950775263
14950783075
14950790400
14950796564
14950806086
14950812494
14950819635
14950826471
14950834406
14950839228
14950848871
14950855280
14950864130
14950874506
14950881098
14950888056
14950895319
14950903314
14950910883
14950919367
14950926203
14950931635
14950941889
14950947443
14950955682
14950962213
14950970331
14950977472
14950985223
14950992731
14951002313
14951008051
14951016351
14951025629
14951031610
14951040094
14951046258
14951055475
14951063898
14951072626
14951079400
14951088373
14951094110
14951100396
14951110406
14951116510
14951126642
14951132989
14951144708
14951151910
14951160943
14951168328
14951174127
14951183221
14951191033
14951198602
14951206109
14951213616
14951222283
14951229974
14951234429
14951248589
14951257256
14951265191
14951272149
14951282525
14951288567
14951298211
14951305596
14951315850
14951322991
14951330743
14951340752
14951348015
14951356927
14951364556
14951371819
14951381280
14951388848
14951398003
14951407158
14951415215
14951424492
14951432366
14951439934
14951448357
14951454399
14951458794
14951464897
14951471062
14951475640
14951481438
14951486565
14951489128
14951497002
14951502495
14951509270
14951514641
14951519768
14951524590
14951529961
14951535332
14951540947
14951545281
14951553520
14951557732
14951565056
14951570366
14951575371
14951579460
14951585259
14951591423
14951595207
14951601677
14951607292
14951611504
14951617607
14951623161
14951626884
14951633049
14951637382
14951645561
14951650139
14951656730
14951661918
14951667167
14951671867
14951677421
14951684013
14951690239
14951695854
14951702018
14951707206
14951712761
14951717094
14951723625
14951729789
14951733879
14951743644
14951752861
14951759391
14951766960
14951775016
14951782951
14951790275
14951798088
14951807731
14951816215
14951824516
14951831596
14951839652
14951846610
14951856132
14951862541
14951872977
14951879325
14951888725
14951895499
14951902030
14951910209
14951917411
14951926993
14951934928
14951943534
14951952750
14951960135
14951967643
14951975577
14951983085
14951991385
14951999686
14952008292
14952016166
14952023917
14952030997
14952037101
14952043265
14952051810
14952059378
14952070365
14952077323
14952087393
14952093619
14952103079
14952109488
14952120474
14952128348
14952140372
14952146781
14952160758
14952169608
14952178275
14952182364
14952193472
14952200003
14952211600
14952220450
14952228812
14952232962
14952241934
14952250906
14952256888
14952263479
14952273123
14952282034
14952286978
14952295645
14952301870
14952309683
14952318167
14952325369
14952331167
14952342764
14952347525
14952356985
14952364431
14952374319
14952383230
14952390432
14952396108
14952404531
14952411123
14952418752
14952425466
14952434255
14952446035
14952454519
14952466604
14952472402
14952481130
14952486990
14952495229
14952500539
14952508291
14952516347
14952526174
14952533987
14952543569
14952550954
14952556386
14952563161
14952572988
14952581533
14952587148
14952594961
14952600454
14952609426
14952615346
14952624379
14952630544
14952639882
14952648610
14952654897
14952664235
14952671926
14952679189
14952685048
14952696523
14952703969
14952711110
14952717275
14952726125
14952733144
14952740773
14952748464
14952756337
14952764882
14952771474
14952777760
14952787038
14952793019
14952802235
14952808461
14952818471
14952825551
14952832692
14952839162
14952848744
14952855275
14952866383
14952872731
14952884144
14952895802
14952903126
14952913380
14952921193
14952928456
14952935414
14952946461
14952953968
14952962452
14952969593
14952978199
14952984181
14952994129
14953000904
14953010121
14953018482
14953024159
14953033009
14953040760
14953047413
14953055225
14953064137
14953071522
14953078358
14953085194
14953094593
14953100758
14953109486
14953115833
14953125416
14953132557
14953140613
14953144703
14953149402
14953154712
14953160877
14953165699
14953171314
14953178394
14953182972
14953189136
14953192981
14953199024
14953203418
14953211170
14953216236
14953221424
14953224475
14953231189
14953237415
14953244129
14953249805
14953256885
14953262195
14953268238
14953273242
14953280323
14953286609
14953291370
14953296558
14953303577
14953309924
14953316272
14953321155
14953327442
14953334277
14953339526
14953346545
14953353442
14953359180
14953365772
14953370959
14953376575
14953382739
14953388110
14953392200
14953401172
14953406299
14953413013
14953419299
14953424243
14953433093
14953439136
14953450244
14953459094
14953467456
14953475329
14953484912
14953490283
14953499743
14953508105
14953520984
14953530566
14953537707
14953547595
14953556811
14953565173
14953572009
14953581652
14953592028
14953600451
14953608386
14953616198
14953624499
14953632006
14953638110
14953648364
14953656725
14953663195
14953671618
14953678271
14953684496
14953694933
14953702196
14953711169
14953719713
14953726977
14953735399
14953741259
14953749254
14953757006
14953766955
14953772448
14953783800
14953791063
14953799608
14953805895
14953814562
14953819811
14953828295
14953839403
14953847338
14953854601
14953863268
14953869615
14953876085
14953887010
14953897447
14953904589
14953911302
14953919664
14953926683
14953932420
14953944688
14953953172
14953961351
14953967149
14953975633
14953983141
14953991075
14954000597
14954006639
14954015550
14954022264
14954030137
14954036546
14954044969
14954051073
14954062181
14954071763
14954077134
14954085435
14954092454
14954100755
14954107225
14954115709
14954126573
14954132859
14954142076
14954147264
14954155931
14954162828
14954171128
14954180100
14954188462
14954195237
14954202378
14954209519
14954216538
14954225816
14954234849
14954240464
14954249375
14954258225
14954266038
14954272691
14954284287
14954291550
14954299851
14954309678
14954317124
14954323533
14954333420
14954342148
14954352097
14954358689
14954366746
14954374253
14954381638
14954386826
14954395981
14954404282
14954414414
14954421982
14954428452
14954435715
14954443283
14954450302
14954455857
14954467819
14954474594
14954481369
14954488999
14954498276
14954503586
14954512619
14954519943
14954528427
14954538620
14954546127
14954552841
14954559677
14954568588
14954573471
14954584396
14954591598
14954600082
14954607590
14954614731
14954621811
14954630356
14954637497
14954644638
14954653183
14954660629
14954668930
14954674240
14954682724
14954689804
14954698898
14954707992
14954714706
14954723556
14954729782
14954737716
14954745285
14954752548
14954758651
14954763961
14954768783
14954773910
14954779830
14954783431
14954792343
14954798263
14954802719
14954807968
14954817184
14954823409
14954827926
14954837692
14954843856
14954850570
14954855453
14954862655
14954868209
14954873214
14954880538
14954887557
14954893783
14954896896
14954906295
14954912765
14954917220
14954923751
14954932296
14954942122
14954947249
14954956283
14954962325
14954969527
14954975570
14954981673
14954988021
14954995650
14955000960
14955006514
14955012252
14955017989
14955022933
14955028548
14955034835
14955040816
14955048690
14955054305
14955062239
14955070784
14955075911
14955086104
14955092208
14955099288
14955107283
14955114424
14955123213
14955131331
14955139754
14955146101
14955152083
14955161177
14955166853
14955176070
14955184553
14955194380
14955200178
14955212263
14955221663
14955227583
14955236372
14955242476
14955252241
14955258955
14955268171
14955274031
14955282820
14955288923
14955296919
14955303755
14955312910
14955320601
14955328474
14955335188
14955343611
14955350202
14955357527
14955364607
14955373762
14955381147
14955389387
14955395979
14955401899
14955410993
14955418134
14955423567
14955432356
14955440962
14955448530
14955456403
14955462202
14955471113
14955476911
14955485883
14955492231
14955498945
14955508283
14955518110
14955523847
14955532209
14955539045
14955547101
14955553754
14955562909
14955570539
14955579145
14955586530
14955593488
14955600202
14955606855
14955614728
14955623578
14955632672
14955640180
14955647992
14955654950
14955662397
14955673078
14955685529
14955695111
14955702619
14955713605
14955721967
14955729535
14955738080
14955745282
14955754315
14955762006
14955769635
14955776471
14955784405
14955792157
14955800763
14955805463
14955815167
14955821332
14955827435
14955836651
14955843854
14955852093
14955860394
14955867413
14955873089
14955883709
14955888104
14955897320
14955903973
14955912335
14955919537
14955927472
14955936200
14955945111
14955953350
14955959454
14955968365
14955974529
14955983074
14955988018
14955997601
14956004254
14956014202
14956020672
14956027752
14956037457
14956044476
14956055218
14956062908
14956070415
14956077190
14956084759
14956093120
14956100750
14956107708
14956115459
14956123089
14956131206
14956138164
14956145977
14956154827
14956164959
14956171612
14956181438
14956191265
14956197429
14956204815
14956213970
14956222637
14956228862
14956237468
14956243694
14956252849
14956258831
14956267864
14956276164
14956285747
14956293620
14956301372
14956308513
14956316325
14956326518
14956336406
14956343730
14956348247
14956360210
14956368571
14956377544
14956386577
14956395305
14956403483
14956409282
14956414104
14956420329
14956426616
14956431132
14956438273
14956443522
14956451884
14956460612
14956467143
14956473918
14956483439
14956489909
14956496745
14956503032
14956509257
14956514262
14956518779
14956523478
14956528483
14956533976
14956541728
14956547404
14956552226
14956557658
14956562663
14956569316
14956575846
14956581828
14956586344
14956591899
14956595866
14956602213
14956608622
14956613810
14956618754
14956625285
14956631510
14956636332
14956641093
14956647685
14956653605
14956660746
14956665079
14956672892
14956678812
14956684122
14956689982
14956696390
14956701334
14956711100
14956717509
14956725321
14956733317
14956743021
14956749918
14956757364
14956765299
14956772745
14956782450
14956788431
14956798624
14956807047
14956814310
14956820841
14956831278
14956838663
14956847879
14956857218
14956864847
14956875467
14956882913
14956891458
14956899820
14956907694
14956914224
14956927042
14956935648
14956944742
14956954263
14956963296
14956971902
14956979349
14956985879
14956995340
14957004007
14957010782
14957017984
14957026834
14957034036
14957045205
14957052591
14957060464
14957068338
14957074746
14957083780
14957091531
14957100930
14957109536
14957116067
14957125100
14957132180
14957141763
14957147134
14957158486
14957168069
14957181252
14957191323
14957203347
14957213357
14957227151
14957239053
14957245889
14957255837
14957261636
14957272378
14957279397
14957285928
14957295571
14957303750
14957311013
14957318398
14957324868
14957332924
14957341347
14957347146
14957354470
14957363320
14957372414
14957380043
14957387490
14957394387
14957403847
14957409645
14957415810
14957424538
14957433510
14957438698
14957448525
14957456581
14957463600
14957471657
14957478615
14957485695
14957492653
14957499672
14957508522
14957515541
14957523598
14957529762
14957537758
14957546852
14957554848
14957563454
14957570656
14957578163
14957586464
14957593788
14957601356
14957609779
14957618629
14957626320
14957635475
14957643532
14957652199
14957660194
14957670204
14957678993
14957688636
14957696632
14957705482
14957714820
14957721412
14957731178
14957737525
14957746742
14957757545
14957764137
14957773780
14957780677
14957791358
14957797828
14957806739
14957813209
14957822364
14957831031
14957838660
14957849220
14957857459
14957865577
14957872596
14957880836
14957889258
14957898780
14957908362
14957916968
14957922156
14957932837
14957941382
14957949317
14957955726
14957966163
14957972632
14957982459
14957990027
14957997779
14958008582
14958019080
14958026221
14958033179
14958046363
14958056739
14958063941
14958072730
14958081030
14958089697
14958096961
14958105078
14958111365
14958121253
14958128149
14958138281
14958144690
14958150671
14958156897
14958162207
14958168921
14958173376
14958179602
14958184485
14958191687
14958195898
14958202673
14958209265
14958214148
14958219397
14958224341
14958230871
14958236670
14958242468
14958247900
14958252478
14958259375
14958265173
14958271277
14958276159
14958282202
14958286718
14958292761
14958299170
14958304541
14958311254
14958316565
14958322363
14958328222
14958334509
14958338964
14958343969
14958349035
14958356665
14958362524
14958368200
14958373266
14958378759
14958383398
14958389379
14958393774
14958401403
14958405798
14958412450
14958417638
14958424902
14958430456
14958436010
14958443090
14958450109
14958460424
14958466650
14958476537
14958484655
14958493139
14958503637
14958511938
14958519689
14958527318
14958536718
14958544469
14958551244
14958561620
14958569677
14958577123
14958586644
14958594152
14958602575
14958609960
14958616796
14958624974
14958634435
14958642613
14958649571
14958658910
14958668065
14958676366
14958683690
14958694920
14958701451
14958712743
14958721959
14958732335
14958743077
14958751561
14958759496
14958770360
14958776890
14958786351
14958797581
14958806309
14958814549
14958822606
14958830662
14958838719
14958846470
14958855381
14958863987
14958872532
14958879063
14958887303
14958894017
14958904698
14958911106
14958918675
14958928135
14958935215
14958945164
14958952732
14958959995
14958968479
14958976353
14958985264
14958992466
14959001621
14959011021
14959017918
14959025486
14959034946
14959042942
14959049229
14959059483
14959065464
14959075474
14959082554
14959091221
14959098362
14959106357
14959112705
14959122043
14959128696
14959139683
14959146030
14959155552
14959161899
14959169529
14959179050
14959185886
14959195591
14959204013
14959211887
14959219821
14959227207
14959234592
14959242771
14959251193
14959259372
14959268466
14959277072
14959283908
14959292209
14959299960
14959308200
14959314670
14959324130
14959330966
14959338779
14959348666
14959356479
14959364596
14959373202
14959380344
14959387302
14959397311
14959404330
14959412936
14959421054
14959429110
14959436801
14959445407
14959453341
14959461215
14959465487
14959475619
14959481784
14959492038
14959498080
14959506991
14959515719
14959523349
14959531954
14959541110
14959548556
14959556735
14959565219
14959574313
14959581942
14959591708
14959601717
14959610995
14959618441
14959632784
14959642001
14959650362
14959658480
14959666415
14959673373
14959683565
14959690523
14959699251
14959707979
14959715914
14959723421
14959731356
14959738192
14959748629
14959755159
14959764315
14959772738
14959779268
14959788912
14959794710
14959804598
14959812471
14959822420
14959827730
14959837923
14959844393
14959852632
14959859590
14959870027
14959876558
14959887178
14959895235
14959903658
14959911958
14959919954
14959929292
14959935884
14959941988
14959952852
14959958833
14959963472
14959970979
14959977754
14959981050
14959988496
14959992830
14959998384
14960005586
14960011873
14960016755
14960023897
14960030305
14960036287
14960041536
14960052156
14960056611
14960062532
14960068452
14960073640
14960077852
14960084504
14960089265
14960094514
14960101533
14960107148
14960111116
14960117280
14960123811
14960127900
14960133821
14960137910
14960145234
14960151399
14960155976
14960161836
14960166596
14960171174
14960177339
14960181672
14960187165
14960192353
14960197480
14960202546
14960208161
14960213899
14960219086
14960224274
14960231171
14960235505
14960243195
14960250092
14960258515
14960267548
14960275422
14960282685
14960293244
14960300080
14960307587
14960316559
14960322480
14960332551
14960341645
14960349152
14960358124
14960367951
14960373322
14960382050
14960388031
14960396515
14960404877
14960411713
14960419586
14960428498
14960434845
14960443024
14960449066
14960457550
14960463959
14960471039
14960477753
14960487579
14960494476
14960501312
14960508637
14960515778
14960523529
14960532318
14960540436
14960555817
14960564789
14960575470
14960584503
14960593109
14960601715
14960610321
14960614837
14960625519
14960631927
14960640899
14960647491
14960657501
14960664215
14960674163
14960680389
14960687530
14960698944
14960709564
14960719573
14960726898
14960734283
14960743011
14960750884
14960760528
14960767974
14960774383
14960782440
14960791839
14960800079
14960804412
14960814788
14960822906
14960832671
14960839751
14960850066
14960857391
14960866363
14960872710
14960882903
14960889922
14960897002
14960906707
14960913726
14960923308
14960929168
14960939177
14960945159
14960955840
14960961516
14960972014
14960978484
14960986663
14960994597
14961002593
14961009124
14961019072
14961026213
14961036894
14961043852
14961050444
14961060027
14961066069
14961075347
14961082427
14961091643
14961099455
14961107146
14961115874
14961123564
14961133330
14961142729
14961150236
14961160979
14961167937
14961179594
14961185820
14961197600
14961203886
14961213774
14961222685
14961230620
14961238554
14961247831
14961253874
14961261320
14961269316
14961282194
14961288603
14961299223
14961305815
14961315153
14961324125
14961332243
14961339201
14961347807
14961354154
14961363554
14961369840
14961381681
14961389799
14961398344
14961404630
14961413664
14961419950
14961428678
14961436246
14961443388
14961452909
14961458402
14961469083
14961477018
14961484342
14961490690
14961498990
14961507657
14961516202
14961524137
14961532438
14961539274
14961547086
14961553556
14961563810
14961570890
14961578153
14961587735
14961596830
14961603299
14961610807
14961618680
14961626370
14961634549
14961643827
14961651212
14961658597
14961667325
14961676358
14961682401
14961689114
14961700101
14961707669
14961715848
14961722073
14961730740
14961739529
14961745755
14961753201
14961757046
14961764004
14961769986
14961775723
14961781521
14961786526
14961791653
14961797818
14961803372
14961808926
14961815030
14961821072
14961826077
14961831692
14961836392
14961842617
14961847928
14961854580
14961859524
14961865078
14961873745
14961878506
14961885525
14961889859
14961897915
14961902005
14961909573
14961913052
14961923489
14961929531
14961936978
14961942471
14961950527
14961955532
14961963040
14961968228
14961975613
14961980679
14961986111
14961992214
14961998318
14962003811
14962009365
14962014004
14962020962
14962025967
14962030666
14962037258
14962042141
14962048733
14962053249
14962060940
14962067776
14962077053
14962083828
14962093654
14962101345
14962108608
14962114773
14962124904
14962131801
14962140651
14962148098
14962156215
14962165249
14962171474
14962177700
14962187770
14962194667
14962204982
14962211879
14962222133
14962228420
14962236293
14962245510
14962252345
14962262477
14962271022
14962278652
14962286891
14962294276
14962300746
14962311427
14962317287
14962327724
14962334865
14962344142
14962348842
14962360255
14962370631
14962377345
14962384364
14962392848
14962403224
14962410121
14962418239
14962428981
14962437220
14962444728
14962452784
14962461573
14962468043
14962477381
14962485377
14962492335
14962500880
14962507228
14962516749
14962523158
14962532801
14962539820
14962548060
14962557459
14962563502
14962572901
14962581080
14962589015
14962597437
14962604823
14962613856
14962621607
14962628382
14962638819
14962646387
14962653773
14962660853
14962669092
14962677027
14962685450
14962695032
14962702173
14962712671
14962722498
14962732752
14962741175
14962754725
14962767481
14962773340
14962782312
14962790613
14962798975
14962806299
14962813990
14962820642
14962829004
14962836572
14962842981
14962852503
14962858423
14962865564
14962874231
14962882532
14962891016
14962898279
14962904504
14962912500
14962920557
14962928918
14962936426
14962945825
14962953454
14962961389
14962968469
14962976221
14962980676
14962990930
14963000146
14963008874
14963013330
14963025171
14963031823
14963040368
14963046411
14963053003
14963063317
14963072534
14963079370
14963086999
14963096582
14963102807
14963112756
14963118249
14963127831
14963135522
14963142480
14963149865
14963157983
14963166467
14963173852
14963180505
14963188439
14963197106
14963205346
14963212609
14963220361
14963227502
14963235131
14963243432
14963251366
14963258752
14963267968
14963272545
14963282372
14963288476
14963297631
14963305077
14963313622
14963319848
14963327050
14963334740
14963341698
14963352013
14963358056
14963365197
14963371605
14963379601
14963389305
14963397606
14963406029
14963413231
14963418602
14963427025
14963435448
14963443321
14963450096
14963458824
14963466820
14963475487
14963483238
14963488365
14963495628
14963503807
14963515404
14963522789
14963530601
14963536278
14963541893
14963548790
14963553368
14963558922
14963564049
14963571373
14963575523
14963581261
14963586204
14963590538
14963594322
14963600120
14963604820
14963610496
14963614952
14963619041
14963624046
14963630027
14963635338
14963642357
14963648277
14963654564
14963658714
14963665611
14963670250
14963675621
14963678489
14963688255
14963690940
14963698936
14963704978
14963709068
14963715965
14963722373
14963727073
14963734031
14963739036
14963745567
14963749900
14963755088
14963761375
14963766685
14963772300
14963778526
14963785178
14963790977
14963796592
14963803733
14963808677
14963813255
14963820335
14963826377
14963831687
14963837730
14963845237
14963850913
14963857017
14963862266
14963868552
14963874778
14963880210
14963883323
14963892478
14963897239
14963904929
14963911887
14963915915
14963920432
14963928611
14963931907
14963938926
14963945945
14963949668
14963956015
14963961753
14963966758
14963971885
14963978781
14963985251
14963991233
14963996360
14964003867
14964008933
14964015219
14964021445
14964028159
14964031455
14964042380
14964048117
14964053916
14964059836
14964065939
14964069602
14964078024
14964084616
14964088889
14964095725
14964103354
14964108969
14964118735
14964122519
14964131003
14964135886
14964141318
14964149252
14964157675
14964164511
14964170370
14964176230
14964182028
14964187277
14964193197
14964198385
14964204550
14964208395
14964215292
14964220419
14964227194
14964231955
14964239279
14964244406
14964251364
14964256857
14964261862
14964268026
14964273275
14964279379
14964287496
14964292379
14964297750
14964303915
14964310873
14964315573
14964321127
14964328207
14964334310
14964339010
14964344503
14964350302
14964355734
14964362020
14964368063
14964373068
14964378988
14964384237
14964389913
14964394247
14964402181
14964407003
14964412557
14964416952
14964424215
14964429159
14964436605
14964441366
14964449361
14964453756
14964459005
14964465719
14964470907
14964478597
14964484884
14964490499
14964496480
14964500631
14964505758
14964512594
14964518209
14964523763
14964530660
14964535787
14964541707
14964548421
14964553670
14964558675
14964564717
14964572042
14964577474
14964584798
14964588216
14964595845
14964600484
14964605977
14964611531
14964618123
14964623372
14964628804
14964633138
14964640401
14964647664
14964652608
14964658711
14964664998
14964671163
14964677022
14964683736
14964689717
14964694966
14964701131
14964708211
14964715291
14964719991
14964727010
14964732747
14964739339
14964744343
14964752095
14964756612
14964762715
14964769795
14964775288
14964779439
14964786091
14964791462
14964797505
14964802327
14964808918
14964813740
14964820942
14964825337
14964831379
14964838154
14964843831
14964848469
14964854756
14964861409
14964866413
14964872822
14964878804
14964885395
14964891804
14964896626
14964902546
14964909138
14964913838
14964921955
14964927265
14964934284
14964938435
14964945515
14964952229
14964957905
14964963642
14964970356
14964974506
14964981098
14964987019
14964992451
14964998188
14965006306
14965011860
14965017109
14965024677
14965029621
14965035908
14965041706
14965046345
14965053852
14965059467
14965066974
14965070759
14965076191
14965080585
14965088093
14965094684
14965099506
14965105427
14965110859
14965115864
14965121479
14965128193
14965132831
14965139057
14965144977
14965151630
14965156086
14965162799
14965167560
14965174579
14965179035
14965185565
14965190692
14965195941
14965201984
14965207111
14965212421
14965217853
14965224140
14965230365
14965235614
14965242328
14965248004
14965255328
14965260883
14965266681
14965270160
14965277667
14965284381
14965290241
14965295428
14965300861
14965305438
14965312579
14965319415
14965325763
14965330218
14965335773
14965344989
14965354938
14965359393
14965366229
14965373004
14965379169
14965384540
14965391070
14965396075
14965401141
14965407550
14965413470
14965419024
14965425433
14965431231
14965439105
14965444903
14965451068
14965456439
14965461932
14965466388
14965473040
14965477923
14965484698
14965489032
14965495928
14965500506
14965507098
14965514849
14965519976
14965524859
14965530352
14965537310
14965542803
14965547930
14965554278
14965559771
14965565630
14965572405
14965577471
14965582720
14965588091
14965593890
14965599932
14965606219
14965611346
14965616778
14965622332
14965628680
14965631914
14965641802
14965651385
14965659746
14965667620
14965677019
14965684405
14965695025
14965705401
14965714678
14965723284
14965735186
14965743853
14965750872
14965758135
14965765154
14965772966
14965781145
14965788164
14965799333
14965818254
14965825517
14965831865
14965840532
14965848650
14965857012
14965865617
14965873979
14965881853
14965889421
14965897356
14965905412
14965913530
14965922624
14965932939
14965943803
14965952226
14965959917
14965969316
14965976274
14965990556
14965999284
14966008012
14966017167
14966023088
14966032731
14966042497
14966052873
14966061967
14966070390
14966080278
14966086625
14966095964
14966104020
14966112443
14966119218
14966127763
14966136613
14966144731
14966151933
14966161332
14966169694
14966177201
14966185441
14966194291
14966203019
14966211991
14966220170
14966228959
14966235245
14966243607
14966253068
14966260270
14966269669
14966276322
14966286332
14966296341
14966303422
14966311722
14966321244
14966329178
14966337296
14966348404
14966355729
14966365860
14966372574
14966380265
14966388687
14966396256
14966404251
14966411759
14966421951
14966431473
14966439285
14966445511
14966452530
14966461197
14966467972
14966476456
14966484451
14966492020
14966500381
14966508194
14966516983
14966524307
14966531631
14966539139
14966547439
14966557144
14966564346
14966573196
14966581192
14966589920
14966595657
14966603775
14966612808
14966619766
14966626602
14966636001
14966642837
14966650467
14966659256
14966666336
14966675430
14966683486
14966691177
14966697525
14966706314
14966714797
14966720962
14966731521
14966737624
14966747939
14966752822
14966765701
14966769790
14966781387
14966785598
14966797195
14966803786
14966813857
14966822707
14966829787
14966837844
14966846450
14966852492
14966861403
14966870437
14966876662
14966884475
14966893203
14966901626
14966907668
14966916823
14966919448
14966926955
14966933181
14966938796
14966944289
14966950087
14966954970
14966958998
14966964247
14966968886
14966974623
14966978224
14966983412
14966988722
14966992873
14967000075
14967005629
14967011000
14967017043
14967021620
14967025649
14967031386
14967035109
14967040968
14967045607
14967049941
14967055800
14967060133
14967065321
