14852563539
14852567446
14852570558
14852573854
14852577699
14852581850
14852585695
14852594484
14852602419
14852607973
14852617189
14852624574
14852630006
14852640504
14852648561
14852657533
14852665163
14852675416
14852682802
14852689821
14852696718
14852707033
14852714052
14852721803
14852729616
14852737123
14852745790
14852753297
14852761293
14852768556
14852777589
14852783632
14852792237
14852799134
14852806947
14852814637
14852820130
14852829225
14852837220
14852843873
14852852479
14852860780
14852869081
14852875611
14852881227
14852888978
14852897218
14852903932
14852911744
14852920655
14852929383
14852936097
14852942445
14852949342
14852955994
14852961427
14852968201
14852974000
14852980164
14852985902
14852992493
14852996888
14853004029
14853009339
14853016236
14853021363
14853028687
14853033326
14853037415
14853046509
14853051636
14853059815
14853066895
14853079834
14853085083
14853096070
14853104065
14853109436
14853118470
14853129578
14853134888
14853143128
14853146363
14853154175
14853162171
14853169251
14853177002
14853182556
14853188904
14853193848
14853201050
14853205994
14853213440
14853220825
14853226868
14853233398
14853239807
14853245544
14853251953
14853258057
14853264160
14853270142
14853275146
14853282959
14853289307
14853295227
14853301758
14853307983
14853313415
14853319153
14853327209
14853331787
14853338012
14853344238
14853351806
14853358337
14853364380
14853371399
14853377136
14853383239
14853388977
14853394836
14853401550
14853407592
14853413757
14853419311
14853424255
14853430908
14853435729
14853443725
14853448120
14853455993
14853462402
14853468261
14853475463
14853480651
14853488098
14853495971
14853502990
14853508544
14853517455
14853523132
14853529479
14853536803
14853542785
14853549560
14853557006
14853562804
14853570434
14853577636
14853584167
14853588195
14853596191
14853604613
14853611999
14853619567
14853627013
14853634398
14853639831
14853646911
14853654357
14853662597
14853668578
14853676574
14853685302
14853695617
14853706359
14853719908
14853730529
14853740355
14853751158
14853758727
14853764769
14853773314
14853778990
14853787535
14853795348
14853802245
14853808409
14853815062
14853822691
14853828734
14853836607
14853842101
14853849852
14853856200
14853861754
14853869017
14853876890
14853884093
14853890196
14853896910
14853902952
14853911070
14853919676
14853926329
14853934691
14853942808
14853949583
14853956358
14853964109
14853970884
14853979124
14853985960
14853994383
14854000303
14854011778
14854018553
14854026731
14854033506
14854041746
14854047972
14854056089
14854062254
14854071287
14854078855
14854086912
14854094602
14854103880
14854114256
14854123289
14854129697
14854135313
14854140928
14854148313
14854153501
14854159666
14854164365
14854169797
14854175169
14854181028
14854185789
14854190000
14854196287
14854202939
14854206235
14854213193
14854218625
14854223508
14854228147
14854233518
14854238584
14854243039
14854248227
14854253598
14854259031
14854262815
14854267820
14854273191
14854280088
14854285520
14854290525
14854293821
14854299863
14854305234
14854310605
14854318112
14854323850
14854330869
14854335935
14854342771
14854348935
14854355710
14854361753
14854368711
14854373960
14854381223
14854387265
14854394406
14854400632
14854406552
14854413205
14854418332
14854426083
14854429684
14854436887
14854443784
14854450742
14854456601
14854463315
14854471188
14854477109
14854484494
14854491269
14854499997
14854506161
14854514096
14854520321
14854525937
14854531430
14854540829
14854548459
14854555233
14854561581
14854571042
14854580441
14854587155
14854595456
14854603878
14854611691
14854616452
14854624630
14854633663
14854640011
14854648251
14854654904
14854665341
14854672665
14854680050
14854684933
14854696774
14854704037
14854712826
14854720150
14854727596
14854735287
14854741451
14854749264
14854755123
14854764645
14854771908
14854781429
14854790890
14854797664
14854807003
14854812923
14854820553
14854828060
14854838802
14854844539
14854856014
14854860714
14854872432
14854882015
14854890987
14854900631
14854906490
14854914180
14854920162
14854927059
14854934627
14854941707
14854949214
14854956233
14854963375
14854970149
14854977840
14854985835
14854993465
14855001949
14855012874
14855016597
14855027827
14855032344
14855040584
14855049129
14855054073
14855059505
14855068172
14855075496
14855080684
14855088496
14855093928
14855101924
14855109370
14855113704
14855123347
14855127559
14855136836
14855141047
14855150142
14855154231
14855162471
14855168452
14855176631
14855180781
14855190303
14855196650
14855203059
14855208979
14855217341
14855223384
14855231379
14855237605
14855244929
14855251338
14855260371
14855266779
14855273982
14855280146
14855287776
14855295222
14855303095
14855308650
14855316401
14855324335
14855329585
14855339228
14855346003
14855353449
14855360895
14855366938
14855374384
14855382136
14855389460
14855395380
14855403132
14855412348
14855416865
14855426325
14855432734
14855439448
14855447870
14855455072
14855463862
14855470209
14855478571
14855485956
14855492121
14855499872
14855505670
14855514398
14855520380
14855530023
14855536127
14855544061
14855549982
14855557367
14855564997
14855569452
14855580988
14855588556
14855594354
14855601862
14855609369
14855616815
14855623102
14855629449
14855639581
14855645013
14855653863
14855661188
14855670160
14855676568
14855682489
14855687494
14855692621
14855697992
14855707330
14855712457
14855720514
14855724664
14855732049
14855737420
14855744745
14855750421
14855757806
14855763604
14855770807
14855776727
14855781854
14855786309
14855791192
14855796868
14855801385
14855805963
14855811944
14855817987
14855822442
14855827264
14855833428
14855838738
14855844049
14855847222
14855853204
14855858026
14855863152
14855867730
14855872369
14855881036
14855885430
14855890923
14855896172
14855901727
14855907769
14855912835
14855919305
14855925042
14855930474
14855936211
14855942498
14855948235
14855954766
14855961297
14855967583
14855976189
14855983452
14855991936
14855999077
14856007439
14856014641
14856021355
14856028374
14856036309
14856043511
14856053154
14856060418
14856068108
14856074517
14856082634
14856091423
14856098015
14856106316
14856113579
14856122429
14856127312
14856136223
14856143181
14856152764
14856159783
14856167107
14856173699
14856182060
14856190300
14856197685
14856206474
14856214470
14856220879
14856225822
14856237053
14856245415
14856251823
14856258781
14856266350
14856273308
14856281792
14856288078
14856298698
14856305839
14856314018
14856322258
14856329338
14856338005
14856344536
14856352714
14856357780
14856368034
14856373222
14856382377
14856389457
14856397209
14856406913
14856414970
14856421745
14856429923
14856439628
14856447563
14856459281
14856469413
14856477226
14856487541
14856493217
14856503410
14856511710
14856518729
14856527641
14856535087
14856542411
14856550895
14856557426
14856566215
14856575675
14856584037
14856589652
14856598319
14856604606
14856612723
14856618644
14856627067
14856634940
14856641288
14856649222
14856656119
14856663932
14856671317
14856677054
14856684623
14856692740
14856700614
14856706473
14856712882
14856720511
14856727042
14856736258
14856742789
14856750540
14856757804
14856766287
14856772635
14856781302
14856787894
14856796744
14856803153
14856808035
14856819693
14856826346
14856834708
14856842764
14856849295
14856856863
14856864920
14856871268
14856880606
14856887930
14856896597
14856904837
14856912466
14856918875
14856928030
14856934439
14856943411
14856951895
14856960623
14856967093
14856972097
14856982656
14856989859
14856997671
14857004202
14857013784
14857020803
14857030264
14857036550
14857045461
14857053823
14857060659
14857069082
14857075552
14857084219
14857093435
14857100332
14857107229
14857115224
14857124563
14857131521
14857137929
14857146596
14857155447
14857162710
14857171071
14857177663
14857186147
14857194692
14857201772
14857211233
14857224111
14857237417
14857249685
14857265737
14857278615
14857288869
14857297536
14857307912
14857315419
14857325124
14857329885
14857340688
14857347707
14857355885
14857363088
14857370595
14857378774
14857384694
14857391652
14857399403
14857407399
14857413625
14857421010
14857426686
14857430165
14857435841
14857441640
14857447621
14857451466
14857458729
14857465260
14857470570
14857475026
14857480153
14857485707
14857490101
14857496266
14857501576
14857507618
14857512929
14857518666
14857523549
14857530568
14857536122
14857540577
14857544667
14857552845
14857557911
14857565052
14857570607
14857576954
14857582997
14857587513
14857592091
14857598988
14857604481
14857611134
14857617359
14857622669
14857630116
14857635182
14857640919
14857644947
14857652394
14857658375
14857665638
14857671192
14857675770
14857683582
14857689259
14857694141
14857698109
14857707996
14857713306
14857720142
14857724415
14857732838
14857739979
14857748890
14857757130
14857765125
14857774280
14857780750
14857789905
14857796802
14857805164
14857812244
14857818714
14857828113
14857834583
14857843616
14857850086
14857857349
14857866199
14857873523
14857882129
14857889148
14857898304
14857907581
14857915637
14857922046
14857931201
14857937549
14857946094
14857955188
14857961292
14857972339
14857984424
14857993518
14858002551
14858009448
14858018909
14858026111
14858035327
14858042407
14858050220
14858059924
14858067065
14858074451
14858081103
14858089343
14858097766
14858105517
14858114367
14858121997
14858130298
14858137927
14858144336
14858152942
14858159228
14858168933
14858179858
14858185595
14858196765
14858201953
14858210925
14858219775
14858227099
14858232226
14858243151
14858248828
14858257128
14858263903
14858271960
14858279955
14858289965
14858296557
14858305407
14858312060
14858320483
14858327257
14858335741
14858343493
14858353319
14858360583
14858367907
14858374743
14858384142
14858391222
14858400622
14858407152
14858414965
14858423693
14858431444
14858438158
14858445360
14858457384
14858462633
14858474108
14858479052
14858491930
14858497301
14858507433
14858515001
14858524950
14858532884
14858542223
14858549791
14858558641
14858566942
14858577196
14858585008
14858594408
14858600694
14858609972
14858616563
14858625169
14858633592
14858640367
14858649583
14858657762
14858666185
14858673936
14858682481
14858688585
14858696946
14858705369
14858713914
14858722459
14858730638
14858736680
14858744981
14858754136
14858760423
14858769273
14858777696
14858783067
14858793992
14858799424
14858811143
14858818711
14858827622
14858835557
14858844224
14858854905
14858863511
14858873277
14858880296
14858886643
14858895005
14858903977
14858911851
14858918259
14858927476
14858933762
14858942490
14858951096
14858958237
14858966599
14858973618
14858981980
14858991318
14858997666
14859006577
14859015000
14859022080
14859030625
14859038071
14859046494
14859052536
14859062668
14859071335
14859077683
14859084580
14859092881
14859099961
14859109848
14859117600
14859128342
14859135239
14859143295
14859149521
14859158676
14859165146
14859179306
14859185349
14859195908
14859203598
14859210129
14859215073
14859220383
14859226669
14859231125
14859238022
14859243027
14859249435
14859256393
14859262070
14859270004
14859274460
14859279831
14859284042
14859289840
14859295761
14859301803
14859307846
14859313034
14859318283
14859323898
14859328598
14859332199
14859338852
14859342392
14859350448
14859354293
14859361435
14859366989
14859372177
14859377304
14859383468
14859389266
14859394943
14859399826
14859406417
14859412216
14859418868
14859425216
14859431808
14859436324
14859442245
14859448043
14859453903
14859458358
14859464095
14859470382
14859475448
14859480819
14859486129
14859491622
14859498031
14859504256
14859514022
14859521529
14859528854
14859538375
14859549911
14859558639
14859568221
14859575667
14859585250
14859593184
14859602096
14859609054
14859617537
14859622603
14859633651
14859638900
14859649031
14859656050
14859663497
14859670089
14859679000
14859685286
14859694503
14859700850
14859710066
14859716658
14859721785
14859732527
14859738143
14859748396
14859755538
14859763777
14859770918
14859779829
14859787093
14859795088
14859801680
14859810164
14859816573
14859821516
14859833418
14859841597
14859848860
14859856428
14859865095
14859872542
14859882307
14859889692
14859897871
14859904951
14859911726
14859920210
14859928389
14859934736
14859943464
14859951887
14859958845
14859967756
14859972639
14859982710
14859990888
14859997236
14860004499
14860012617
14860021955
14860028608
14860037702
14860044538
14860050947
14860059858
14860068464
14860076643
14860082929
14860091718
14860098249
14860103376
14860113752
14860122541
14860128644
14860135847
14860144147
14860153120
14860159894
14860166486
14860175519
14860181989
14860190961
14860199933
14860207502
14860215925
14860223371
14860230024
14860239301
14860246686
14860254438
14860266339
14860271649
14860282331
14860287458
14860298322
14860303693
14860314740
14860321210
14860331342
14860343854
14860353070
14860359052
14860373639
14860382855
14860390179
14860400739
14860407941
14860422162
14860430218
14860439252
14860447491
14860453595
14860458295
14860468365
14860476361
14860482159
14860490582
14860497174
14860503521
14860512310
14860520184
14860526043
14860532757
14860541851
14860548199
14860555035
14860563336
14860570294
14860576153
14860582989
14860590863
14860599102
14860605206
14860613995
14860619854
14860628094
14860633953
14860641766
14860649639
14860654339
14860664532
14860669109
14860678997
14860683575
14860693157
14860699322
14860707073
14860714458
14860723003
14860729900
14860737896
14860745098
14860752483
14860761883
14860768169
14860780315
14860788433
14860795574
14860802471
14860808757
14860818523
14860824932
14860833843
14860842266
14860850505
14860857097
14860865825
14860872295
14860880107
14860887432
14860894634
14860902202
14860912334
14860918498
14860926860
14860935527
14860942485
14860950542
14860956950
14860965556
14860972148
14860979289
14860983867
14860990031
14860994914
14861000285
14861006450
14861011272
14861018230
14861022807
14861030192
14861036113
14861041728
14861046123
14861052409
14861057780
14861064250
14861068217
14861073100
14861082561
14861086284
14861093059
14861096904
14861104350
14861111003
14861116313
14861121684
14861131022
14861137858
14861144023
14861151103
14861156169
14861159953
14861166667
14861173014
14861176982
14861182292
14861187724
14861192607
14861198527
14861203654
14861210246
14861216166
14861222270
14861227213
14861231791
14861235941
14861242350
14861249186
14861255045
14861260294
14861266337
14861273417
14861279765
14861288248
14861293253
14861302958
14861307780
14861317179
14861324564
14861335795
14861342875
14861349772
14861358622
14861365885
14861372477
14861380045
14861388651
14861397501
14861403849
14861410868
14861418558
14861424173
14861433085
14861437540
14861448099
14861454020
14861466104
14861472635
14861485025
14861492533
14861500955
14861507486
14861516519
14861523172
14861530374
14861538736
14861545816
14861552713
14861560098
14861570291
14861576517
14861582864
14861591592
14861598367
14861604776
14861613382
14861620401
14861626443
14861631265
14861643533
14861651346
14861658060
14861665323
14861672525
14861679727
14861687173
14861695962
14861706826
14861711587
14861721536
14861726053
14861736001
14861740274
14861750222
14861756875
14861765115
14861772561
14861779946
14861786355
14861794656
14861800942
14861807412
14861813516
14861821816
14861831033
14861840188
14861848855
14861858254
14861868630
14861875161
14861886452
14861896462
14861904580
14861914895
14861922036
14861929726
14861936257
14861943642
14861954018
14861961220
14861967385
14861976845
14861983071
14861989602
14861998147
14862004616
14862013649
14862020485
14862027504
14862033425
14862040139
14862048073
14862054726
14862062294
14862069924
14862074868
14862083840
14862088417
14862096657
14862101967
14862111489
14862117714
14862124550
14862130837
14862137856
14862143227
14862150124
14862156166
14862164894
14862170815
14862178688
14862184486
14862192055
14862198708
14862203163
14862212929
14862217506
14862225258
14862232094
14862239723
14862246864
14862254127
14862260536
14862269691
14862277015
14862286049
14862292274
14862298866
14862307777
14862314857
14862323585
14862328468
14862337379
14862342628
14862352821
14862359413
14862367652
14862375953
14862383033
14862389381
14862397865
14862404945
14862411598
14862419959
14862424781
14862435767
14862441139
14862451392
14862456702
14862467262
14862474403
14862482764
14862490272
14862497230
14862503822
14862512550
14862521216
14862528785
14862537574
14862545936
14862552283
14862556983
14862568580
14862574561
14862585853
14862590735
14862599585
14862606849
14862617652
14862625769
14862638404
14862649573
14862657202
14862667395
14862672400
14862677954
14862684790
14862688697
14862695471
14862701209
14862705542
14862710669
14862716345
14862721716
14862727271
14862731909
14862737402
14862742957
14862747046
14862752783
14862757117
14862762915
14862768286
14862772376
14862777930
14862781653
14862788672
14862791968
14862799109
14862804053
14862810400
14862815161
14862820898
14862825842
14862832312
14862837561
14862843542
14862848120
14862853735
14862859411
14862864538
14862869726
14862877539
14862883642
14862889135
14862893347
14862896704
14862903662
14862907080
14862913855
14862920874
14862927160
14862931799
14862937719
14862942541
14862949621
14862956640
14862964941
14862971899
14862981298
14862990881
14862993749
14863005285
14863011755
14863020666
14863025427
14863035131
14863043005
14863052160
14863058996
14863069067
14863076269
14863083593
14863089880
14863099645
14863107030
14863116491
14863124547
14863131872
14863140172
14863148229
14863154699
14863159643
14863170873
14863175512
14863184911
14863191869
14863201329
14863208715
14863216649
14863224218
14863232824
14863241246
14863250035
14863256139
14863264928
14863271276
14863275975
14863287938
14863292882
14863304173
14863309789
14863319615
14863329137
14863336278
14863343907
14863352635
14863362889
14863370824
14863382176
14863390233
14863399937
14863407078
14863414769
14863421910
14863426427
14863436070
14863444981
14863451512
14863458104
14863467320
14863472264
14863481785
14863487889
14863496556
14863503758
14863511998
14863518711
14863526951
14863533360
14863539830
14863547825
14863555149
14863561741
14863573277
14863579380
14863588780
14863595432
14863605015
14863611973
14863620823
14863627232
14863633335
14863644444
14863649509
14863660801
14863665195
14863674412
14863680698
14863688450
14863694981
14863703403
14863710789
14863719089
14863725376
14863734836
14863741550
14863749668
14863759128
14863768101
14863775120
14863784519
14863792637
14863799411
14863807834
14863815525
14863821811
14863830906
14863837253
14863844516
14863853855
14863861240
14863868991
14863876010
14863885410
14863895420
14863904209
14863911228
14863920932
14863928684
14863934238
14863943698
14863952182
14863961704
14863968906
14863977023
14863984103
14863992770
14863998935
14864005954
14864014377
14864022983
14864031772
14864038974
14864047397
14864053866
14864062228
14864067599
14864077792
14864084811
14864092624
14864100436
14864110019
14864117038
14864125094
14864131198
14864140658
14864150302
14864159945
14864167697
14864178561
14864190463
14864201022
14864206637
14864217196
14864225009
14864233248
14864243380
14864250643
14864256991
14864266268
14864272555
14864282381
14864288973
14864297335
14864320894
14864326388
14864334933
14864342562
14864350191
14864355074
14864365694
14864370943
14864380404
14864387728
14864395784
14864400240
14864408236
14864414522
14864421480
14864426546
14864431490
14864437227
14864442293
14864447176
14864452913
14864458773
14864462984
14864471346
14864477632
14864482759
14864486727
14864490877
14864496797
14864502046
14864507234
14864512056
14864518953
14864523409
14864527620
14864532747
14864538179
14864543184
14864548128
14864555330
14864560884
14864565523
14864569307
14864576509
14864580354
14864587312
14864592561
14864599519
14864605501
14864611482
14864616426
14864623262
14864629121
14864634798
14864639253
14864645662
14864651582
14864657136
14864662263
14864665986
14864674897
14864679292
14864687104
14864692415
14864697725
14864703218
14864714753
14864722505
14864731538
14864738923
14864745210
14864754243
14864760408
14864769929
14864778291
14864785859
14864794526
14864804109
14864812043
14864819550
14864830110
14864835725
14864847627
14864853486
14864865693
14864871430
14864881440
14864890534
14864902192
14864909943
14864919282
14864925080
14864933259
14864940522
14864949311
14864956208
14864964264
14864972321
14864979645
14864986542
14864994111
14865001069
14865008210
14865016144
14865022431
14865031769
14865040436
14865046662
14865054596
14865062836
14865067902
14865079071
14865084198
14865092743
14865100311
14865108734
14865115265
14865125153
14865131317
14865139740
14865147797
14865155731
14865162567
14865171661
14865177887
14865186127
14865192108
14865196747
14865207794
14865214203
14865221588
14865229462
14865238800
14865243500
14865252289
14865259063
14865268219
14865274322
14865282257
14865288726
14865298126
14865306671
14865315094
14865320831
14865328582
14865334503
14865342498
14865350799
14865360198
14865366973
14865371368
14865382110
14865386505
14865395538
14865401946
14865409515
14865416961
14865425811
14865432281
14865439971
14865446380
14865454986
14865462920
14865471526
14865477813
14865485870
14865492217
14865501067
14865507537
14865516021
14865524077
14865530547
14865539153
14865545745
14865554229
14865558806
14865567107
14865573699
14865583281
14865590178
14865596404
14865603850
14865613799
14865620269
14865627471
14865634490
14865642485
14865648528
14865657073
14865664092
14865675444
14865682463
14865691191
14865697722
14865706389
14865715117
14865723174
14865732512
14865740141
14865748381
14865754546
14865762175
14865770354
14865776457
14865782866
14865791106
14865796355
14865807402
14865812041
14865822050
14865828337
14865836394
14865842863
14865850798
14865858671
14865866606
14865872587
14865880095
14865886564
14865894499
14865900908
14865907988
14865914701
14865923735
14865930204
14865940092
14865945951
14865953581
14865961271
14865967558
14865976042
14865983366
14865992765
14865995207
14866006681
14866013944
14866020170
14866026762
14866034879
14866042204
14866052946
14866059538
14866066190
14866074430
14866081083
14866086942
14866095914
14866102506
14866108243
14866113004
14866119962
14866124235
14866130094
14866136197
14866141446
14866145597
14866153043
14866158658
14866163297
14866169156
14866172574
14866179288
14866184598
14866188565
14866194364
14866200711
14866205106
14866210416
14866215421
14866221158
14866225492
14866230069
14866237577
14866243558
14866249478
14866254911
14866259976
14866263089
14866270719
14866274198
14866280423
14866288419
14866293668
14866298612
14866304471
14866308743
14866314847
14866320706
14866326016
14866331326
14866337857
14866344205
14866350247
14866356473
14866360440
14866368253
14866373990
14866380337
14866386014
14866393216
14866397610
14866407864
14866414944
14866422635
14866431180
14866438199
14866444974
14866452420
14866458951
14866468716
14866475308
14866483181
14866490933
14866497647
14866504239
14866512600
14866521267
14866527432
14866535244
14866539700
14866548672
14866554959
14866562893
14866570584
14866580532
14866587551
14866594570
14866600979
14866609890
14866616848
14866624050
14866631008
14866641445
14866648342
14866655727
14866661343
14866669338
14866677456
14866683498
14866692898
14866700161
14866708767
14866716640
14866722561
14866729763
14866737942
14866742580
14866752224
14866758449
14866768276
14866774624
14866782436
14866789089
14866796596
14866802394
14866811367
14866818019
14866826564
14866835353
14866841396
14866849697
14866856472
14866864101
14866870021
14866878017
14866886684
14866892970
14866901943
14866907741
14866912563
14866923061
14866929958
14866937221
14866944240
14866954860
14866959315
14866968959
14866975551
14866983302
14866989589
14866996364
14867005275
14867012477
14867021266
14867028285
14867034022
14867043300
14867049098
14867056727
14867065394
14867072108
14867080287
14867086696
14867094203
14867098780
14867109034
14867114283
14867124903
14867134181
14867143153
14867148158
14867157557
14867164942
14867173365
14867180201
14867190150
14867196803
14867206812
14867213221
14867220606
14867227442
14867234827
14867243250
14867250819
14867257594
14867266260
14867272608
14867279688
14867288111
14867297022
14867303492
14867311426
14867317652
14867326624
14867334803
14867341700
14867347986
14867354395
14867364283
14867368860
14867378199
14867385645
14867392847
14867399195
14867407618
14867414392
14867421778
14867429895
14867436121
14867442835
14867451746
14867460291
14867468592
14867474329
14867482385
14867489893
14867497278
14867503320
14867511743
14867520410
14867530908
14867541162
14867553552
14867561426
14867568262
14867578699
14867585779
14867592981
14867603540
14867611413
14867622705
14867635217
14867648218
14867658532
14867667688
14867675500
14867687402
14867696374
14867705102
14867714624
14867724816
14867735314
14867746423
14867754113
14867761132
14867772424
14867777673
14867788659
14867799401
14867807458
14867818017
14867827538
14867835229
14867843041
14867849938
14867860070
14867865258
14867877038
14867884423
14867892541
14867900780
14867907677
14867918481
14867927941
14867938744
14867951317
14867957848
14867967675
14867980553
14867989464
14867999779
14868012108
14868020958
14868028954
14868036949
14868044884
14868053185
14868061058
14868068932
14868077477
14868083946
14868092186
14868101036
14868108238
14868116295
14868125328
14868133751
14868140587
14868149315
14868159813
14868168114
14868176414
14868183678
14868189964
14868199852
14868207786
14868215965
14868227501
14868237388
14868245506
14868253685
14868266624
14868276939
14868287071
14868296836
14868306053
14868316612
14868324607
14868337730
14868342918
14868354820
14868366661
14868375755
14868386009
14868394187
14868403159
14868413413
14868422874
14868431724
14868442100
14868454368
14868463096
14868471336
14868480369
14868491111
14868500754
14868508567
14868520164
14868528831
14868538718
14868547568
14868558127
14868567710
14868576011
14868585959
14868592795
14868604087
14868615500
14868624961
14868634055
14868643027
14868653220
14868662924
14868672812
14868680380
14868694541
14868704184
14868711630
14868725180
14868732504
14868744589
14868758444
14868771567
14868782187
14868797690
14868807150
14868821493
14868832235
14868842489
14868856405
14868864523
14868874594
14868884848
14868894796
14868905905
14868913839
14868924276
14868934957
14868943930
14868954367
14868961141
14868972433
14868982748
14868992208
14869003133
14869011923
14869017416
14869030477
14869039999
14869049642
14869061422
14869072896
14869080587
14869085348
14869094503
14869098653
14869107747
14869115438
14869123067
14869129720
14869135579
14869143880
14869148824
14869157308
14869164083
14869171529
14869177205
14869188741
14869196309
14869201802
14869213094
14869220174
14869229695
14869236531
14869245015
14869252767
14869259297
14869266744
14869276082
14869281087
14869290547
14869298299
14869302083
14869310811
14869319783
14869326497
14869331929
14869338521
14869344868
14869350667
14869358296
14869367146
14869376057
14869379964
14869391316
14869400166
14869406453
14869415364
14869420735
14869431355
14869438435
14869445820
14869453511
14869459309
14869466938
14869476094
14869483357
14869492451
14869500691
14869508992
14869515217
14869524800
14869534504
14869541584
14869549946
14869557759
14869564228
14869572285
14869578144
14869585957
14869592854
14869599873
14869602619
14869613117
14869621845
14869627644
14869635395
14869644123
14869651264
14869657490
14869664570
14869669453
14869675861
14869681171
14869688496
14869691852
14869697895
14869701130
14869708149
14869714313
14869719074
14869725178
14869730793
14869736957
14869743183
14869747394
14869753071
14869757953
14869762653
14869767170
14869771015
14869775776
14869780841
14869785114
14869789142
14869795490
14869798725
14869805378
14869809772
14869816669
14869821979
14869827045
14869830829
14869837116
14869840717
14869847187
14869853961
14869860370
14869865009
14869870929
14869875873
14869880695
14869885516
14869891010
14869897113
14869902057
14869908283
14869913348
14869917682
14869923297
14869930011
14869939288
14869946002
14869953021
14869961993
14869970782
14869980365
14869989093
14869995807
14870004230
14870013507
14870021441
14870028155
14870037616
14870044146
14870051837
14870060504
14870068377
14870075152
14870084674
14870091204
14870099078
14870105487
14870114886
14870121112
14870130145
14870140277
14870150164
14870162554
14870170062
14870183856
14870192034
14870201678
14870208270
14870216265
14870222857
14870229205
14870236956
14870243670
14870253252
14870259844
14870268572
14870275225
14870284380
14870290728
14870299334
14870305803
14870313738
14870320879
14870326433
14870337908
14870340593
14870353106
14870358110
14870367632
14870373125
14870382036
14870389482
14870396379
14870403032
14870411028
14870417192
14870424944
14870433855
14870436601
14870448625
14870455644
14870463213
14870468218
14870477678
14870484514
14870493059
14870500566
14870507219
14870513445
14870521867
14870528520
14870535600
14870543718
14870551347
14870558122
14870562822
14870572587
14870577959
14870588151
14870593278
14870603654
14870611345
14870619462
14870627031
14870633378
14870639604
14870648637
14870655473
14870664140
14870670121
14870678666
14870685624
14870690507
14870698503
14870705827
14870714189
14870721574
14870729753
14870736650
14870743363
14870749711
14870758683
14870767838
14870775407
14870781938
14870791581
14870798234
14870807023
14870813126
14870822648
14870831498
14870839616
14870845780
14870853898
14870860612
14870869218
14870877946
14870880692
14870891801
14870900651
14870907609
14870912369
14870924943
14870930375
14870940873
14870948868
14870960465
14870966874
14870978043
14870991166
14870997025
14871006729
14871013260
14871022843
14871031510
14871034317
14871046341
14871053421
14871060684
14871065811
14871076981
14871084061
14871092728
14871100601
14871108536
14871115616
14871121964
14871130875
14871139236
14871145462
14871151565
14871161575
14871166580
14871177688
14871182632
14871192581
14871199905
14871208145
14871214371
14871224075
14871231033
14871239944
14871246231
14871255264
14871261917
14871266922
14871276870
14871284072
14871293472
14871298782
14871309280
14871316299
14871323074
14871332595
14871339187
14871343948
14871349441
14871355728
14871360977
14871367263
14871372573
14871376968
14871380325
14871388625
14871391982
14871398757
14871404495
14871410842
14871415969
14871420913
14871425185
14871432326
14871436782
14871440261
14871447829
14871451308
14871458449
14871462356
14871468886
14871474135
14871480849
14871485915
14871491286
14871496413
14871503127
14871509963
14871514785
14871521071
14871525344
14871531997
14871537368
14871543776
14871549147
14871561171
14871566420
14871573867
14871579238
14871585402
14871590712
14871596144
14871601638
14871608290
14871613173
14871620558
14871625319
14871629164
14871637953
14871641616
14871653151
14871659560
14871670729
14871678969
14871689162
14871697707
14871707594
14871715041
14871722609
14871732436
14871742506
14871749342
14871758253
14871764540
14871773024
14871781691
14871789198
14871795546
14871804640
14871810988
14871818556
14871827101
14871834181
14871843031
14871850050
14871856642
14871866224
14871873549
14871880384
14871889479
14871897779
14871904432
14871913343
14871920668
14871927015
14871933058
14871944410
14871949171
14871960768
14871965833
14871975904
14871983412
14871991590
14871999647
14872006971
14872013380
14872021375
14872030225
14872037672
14872046705
14872052198
14872064100
14872069654
14872079481
14872087720
14872096998
14872103284
14872112317
14872119153
14872127393
14872135755
14872142774
14872151014
14872157056
14872165723
14872170972
14872181043
14872188123
14872196729
14872205213
14872213941
14872220777
14872227735
14872237195
14872245008
14872252149
14872261426
14872269727
14872275952
14872287610
14872297925
14872309216
14872318860
14872328625
14872338391
14872345837
14872358533
14872368298
14872381055
14872390881
14872402234
14872411694
14872417614
14872432385
14872441418
14872445507
14872461193
14872469189
14872484265
14872490795
14872502392
14872514782
14872518872
14872533398
14872543163
14872558178
14872568371
14872573193
14872588757
14872600353
14872613049
14872625195
14872642284
14872652172
14872669567
14872678417
14872695080
14872703563
14872717602
14872724376
14872742565
14872749767
14872760265
14872770580
14872781627
14872791637
14872796215
14872808971
14872819591
14872827770
14872837963
14872845165
14872857677
14872866710
14872878734
14872884349
14872895763
14872904430
14872911266
14872921886
14872931956
14872940745
14872950816
14872961986
14872971019
14872977244
14872991710
14873002086
14873011729
14873021007
14873029063
14873040843
14873052501
14873059581
14873069529
14873077281
14873088816
14873100169
14873109507
14873119700
14873124034
14873141368
14873151438
14873161509
14873172617
14873182810
14873193369
14873197764
14873215769
14873223399
14873234751
14873244456
14873255991
14873265635
14873272898
14873287668
14873294810
14873309336
14873319651
14873330820
14873341867
14873354013
14873365549
14873373667
14873381723
14873389109
14873395639
14873403269
14873410105
14873415964
14873427011
14873433420
14873441721
14873448618
14873457346
14873464548
14873472177
14873478891
14873488657
14873498422
14873506601
14873514658
14873527170
14873533517
14873543588
14873548959
14873559152
14873567514
14873573862
14873582895
14873592233
14873600778
14873608529
14873616769
14873623910
14873634286
14873640695
14873648690
14873659005
14873667367
14873671884
14873684884
14873690744
14873700387
14873708383
14873717050
14873725045
14873728524
14873742196
14873751351
14873761239
14873767342
14873777291
14873781869
14873791268
14873799386
14873808480
14873815804
14873825936
14873833993
14873838265
14873848763
14873855965
14873864937
14873873055
14873882454
14873890328
14873900155
14873907540
14873915047
14873921334
14873929757
14873936837
14873945260
14873954659
14873961556
14873968148
14873976937
14873985482
14873993416
14874000557
14874009224
14874016121
14874025521
14874034004
14874041268
14874047798
14874056221
14874064705
14874070015
14874081734
14874090218
14874097054
14874101875
14874112617
14874117805
14874128120
14874133308
14874144478
14874152962
14874159309
14874166572
14874174080
14874183235
14874191108
14874197334
14874205940
14874213020
14874222358
14874231208
14874239265
14874245613
14874253547
14874262580
14874267585
14874277290
14874284553
14874293830
14874301521
14874309455
14874316474
14874324104
14874330818
14874339851
14874349799
14874356757
14874365424
14874371833
14874380866
14874385993
14874395087
14874402168
14874410590
14874419868
14874427619
14874434638
14874443000
14874449348
14874458442
14874464789
14874474006
14874480292
14874485297
14874496955
14874502082
14874513007
14874518012
14874529059
14874537055
14874545234
14874552680
14874563544
14874572455
14874582038
14874590644
14874597907
14874611823
14874622992
14874634833
14874647955
14874660101
14874670233
14874681891
14874692328
14874700690
14874713385
14874723517
14874736212
14874745734
14874750006
14874764349
14874774847
14874785711
14874794439
14874804449
14874816290
14874824164
14874836493
14874846685
14874856573
14874865423
14874875738
14874884588
14874891363
14874902899
14874913214
14874921270
14874934515
14874945867
14874954962
14874962042
14874973638
14874983587
14874995306
14875004156
14875014349
14875023992
14875031194
14875044256
14875054021
14875064702
14875073553
14875077642
14875093572
14875103521
14875112249
14875122869
14875137517
14875144231
14875154912
14875163640
14875176885
14875185613
14875196965
14875205693
14875212956
14875224370
14875233220
14875243840
14875253423
14875261784
14875276799
14875283635
14875295171
14875305363
14875320012
14875330449
14875335393
14875350468
14875362187
14875372197
14875382573
14875387272
14875404973
14875414311
14875424626
14875435734
14875440129
14875455143
14875463627
14875477299
14875484318
14875496159
14875508854
14875518070
14875528385
14875535526
14875543583
14875549870
14875552799
14875563664
14875571781
14875579899
14875585270
14875595158
14875602055
14875608097
14875617252
14875624271
14875627506
14875639225
14875644474
14875654056
14875661930
14875665714
14875678409
14875683658
14875693058
14875701114
14875710025
14875716922
14875722171
14875729190
14875745304
14875751957
14875758365
14875768497
14875776676
14875783634
14875791141
14875797000
14875807071
14875815311
14875824588
14875829044
14875837283
14875843692
14875849918
14875855838
14875861331
14875869022
14875874515
14875879092
14875884158
14875888431
14875895572
14875901065
14875907474
14875913943
14875920169
14875925296
14875931888
14875937625
14875947146
14875952945
14875960208
14875968143
14875976932
14875983035
14875990909
14875996768
14876007510
14876014102
14876022708
14876031436
14876040103
14876046328
14876054141
14876062381
14876071048
14876077578
14876081973
14876092959
14876102664
14876109194
14876113772
14876124880
14876129519
14876140200
14876145083
14876154849
14876164187
14876172671
14876177370
14876186587
14876192995
14876201174
14876208193
14876214663
14876225222
14876233401
14876240176
14876248415
14876254763
14876263003
14876268801
14876277834
14876285158
14876293459
14876302126
14876309206
14876316897
14876323732
14876331362
14876336061
14876346498
14876354189
14876360659
14876367067
14876375246
14876381594
14876389833
14876396303
14876404360
14876412416
14876420839
14876430483
14876437685
14876443483
14876451784
14876457826
14876468141
14876478273
14876485780
14876494630
14876502931
14876512392
14876521303
14876529420
14876538881
14876546998
14876562135
14876572206
14876580446
14876589113
14876596742
14876608094
14876613588
14876623658
14876630677
14876640138
14876647340
14876656190
14876663270
14876671144
14876677857
14876686341
14876695314
14876702149
14876708863
14876715760
14876723817
14876730470
14876738709
14876744080
14876754640
14876759278
14876768678
14876773316
14876783875
14876790284
14876798768
14876805054
14876815858
14876822633
14876829102
14876835084
14876842652
14876851258
14876857789
14876867554
14876875794
14876882630
14876890442
14876896119
14876904480
14876912781
14876919312
14876927796
14876937256
14876943848
14876952454
14876960572
14876967163
14876975220
14876981751
14876990235
14876997803
14877006043
14877013916
14877020813
14877025330
14877034424
14877040894
14877050354
14877055847
14877066162
14877073242
14877080627
14877086975
14877095642
14877102112
14877109497
14877118835
14877126892
14877133423
14877141174
14877147461
14877154602
14877163147
14877170349
14877178833
14877187195
14877193542
14877202331
14877210388
14877217346
14877223266
14877231506
14877237732
14877245849
14877255554
14877260253
14877269714
14877276977
14877284545
14877292663
14877301147
14877311218
14877320129
14877328491
14877335449
14877344299
14877349181
14877354919
14877360107
14877367187
14877373290
14877380248
14877385253
14877390990
14877395263
14877401122
14877406982
14877414367
14877419433
14877424255
14877429809
14877435790
14877439818
14877446288
14877450988
14877457213
14877461913
14877467956
14877472289
14877478576
14877483764
14877489684
14877494872
14877502623
14877507567
14877513976
14877518554
14877524901
14877529479
14877535277
14877540221
14877545714
14877552001
14877558043
14877562621
14877566405
14877573851
14877578307
14877585021
14877589598
14877599242
14877608092
14877614073
14877619933
14877627135
14877633849
14877643248
14877649413
14877657042
14877666014
14877671874
14877679747
14877688475
14877697752
14877704832
14877713438
14877720030
14877728148
14877734373
14877743834
14877748350
14877757017
14877765013
14877775511
14877783079
14877790770
14877795164
14877804869
14877809263
14877820494
14877825315
14877836119
14877843687
14877851377
14877858030
14877865477
14877869810
14877881101
14877889952
14877898435
14877904356
14877912168
14877919065
14877926756
14877935423
14877941465
14877950559
14877956846
14877964231
14877972349
14877979978
14877989744
14878002561
14878009885
14878020261
14878026548
14878035459
14878042051
14878052976
14878059507
14878067869
14878073789
14878082273
14878091062
14878098874
14878104673
14878113462
14878119199
14878127134
14878136106
14878143857
14878150937
14878159543
14878166074
14878174008
14878180173
14878188169
14878195615
14878204709
14878211057
14878219480
14878226010
14878234799
14878241391
14878248837
14878255551
14878265012
14878271725
14878281186
14878285519
14878294431
14878300839
14878309323
14878317624
14878326230
14878332516
14878340268
14878346737
14878356442
14878361203
14878371640
14878380612
14878386837
14878394833
14878402523
14878410519
14878416134
14878423825
14878432309
14878442257
14878448483
14878456784
14878462643
14878471127
14878479428
14878485531
14878493405
14878502072
14878507931
14878515927
14878523800
14878531613
14878538998
14878545284
14878553341
14878561092
14878569332
14878577328
14878585140
14878592586
14878600033
14878605648
14878613766
14878622005
14878630428
14878637203
14878644893
14878653011
14878658687
14878666439
14878674556
14878684322
14878690059
14878698543
14878704403
14878711727
14878719539
14878727962
14878734676
14878744319
14878751400
14878760433
14878766658
14878775386
14878785396
14878794856
14878802852
14878811885
14878821040
14878827876
14878833736
14878841487
14878847286
14878855769
14878864192
14878873775
14878878108
14878889033
14878893550
14878903865
14878912837
14878921382
14878930293
14878940364
14878948054
14878954219
14878962459
14878968928
14878976619
14878983210
14878992915
14878997310
14879006648
14879013972
14879018306
14879022822
14879029475
14879033808
14879042048
14879045710
14879052058
14879055781
14879061335
14879066645
14879073298
14879077998
14879085322
14879089045
14879096369
14879100764
14879107478
14879112300
14879118098
14879124995
14879132441
14879138484
14879143305
14879149714
14879154292
14879158747
14879164118
14879169733
14879176081
14879181696
14879186945
14879191584
14879198176
14879203303
14879209040
14879215143
14879220698
14879227106
14879233088
14879237787
14879244623
14879249384
14879252985
14879260309
14879267756
14879273066
14879278864
14879285090
14879290583
14879296991
14879301935
14879309626
14879316889
14879328058
14879335504
14879344843
14879351252
14879359308
14879367670
14879375604
14879382685
14879392572
14879400263
14879408014
14879416437
14879424860
14879433466
14879442743
14879452325
14879461847
14879471185
14879478998
14879488336
14879495294
14879501520
14879510248
14879519281
14879526544
14879535455
14879542901
14879549310
14879557855
14879564508
14879571832
14879580682
14879588861
14879595330
14879603326
14879609552
14879617242
14879622857
14879632501
14879639886
14879647393
14879655938
14879663629
14879669915
14879677056
14879685418
14879692315
14879699029
14879708795
14879715020
14879723626
14879730096
14879737908
14879744378
14879752313
14879760491
14879769891
14879776421
14879784051
14879791070
14879799309
14879805840
14879814873
14879821648
14879831170
14879837945
14879847222
14879856865
14879864251
14879871026
14879880486
14879887322
14879893731
14879905449
14879910393
14879919976
14879927483
14879939629
14879948052
14879954827
14879965630
14879972649
14879982414
14879989311
14879995659
14880005303
14880011772
14880016716
14880028191
14880037224
14880046257
14880053093
14880061394
14880066704
14880076530
14880083672
14880092888
14880100700
14880109367
14880116875
14880125053
14880131462
14880140922
14880147514
14880155937
14880162956
14880168266
14880181328
14880186210
14880196220
14880201225
14880213066
14880220024
14880226554
14880237724
14880246940
14880254936
14880265434
14880276054
14880285087
14880294914
14880304862
14880312797
14880321403
14880329398
14880335990
14880344901
14880351310
14880358207
14880368888
14880375846
14880382316
14880390372
14880396598
14880404288
14880410819
14880419120
14880427360
14880436271
14880442069
14880449882
14880456290
14880465140
14880469657
14880479117
14880489737
14880497611
14880504813
14880512748
14880520255
14880526175
14880534537
14880540335
14880551139
14880559256
14880566031
14880573783
14880580802
14880588614
14880595694
14880604300
14880611380
14880619559
14880626456
14880634146
14880640860
14880648856
14880653372
14880662833
14880671561
14880679922
14880687918
14880693899
14880702627
14880708243
14880715750
14880724051
14880732474
14880737539
14880742850
14880748038
14880752188
14880758536
14880764090
14880769339
14880776968
14880783621
14880785452
14880795157
14880800344
14880806814
14880808950
14880817862
14880824514
14880829946
14880834158
14880840506
14880846182
14880853689
14880857351
14880864675
14880870291
14880876699
14880882498
14880889395
14880894827
14880899587
14880905447
14880911550
14880917532
14880923757
14880928823
14880935354
14880940359
14880947622
14880952688
14880960989
14880966299
14880974477
14880979848
14880983694
14880993703
14880999197
14881005483
14881010732
14881016286
14881021108
14881028432
14881031728
14881040578
14881044851
14881055471
14881060048
14881070363
14881078908
14881086721
14881094655
14881100698
14881108876
14881116384
14881122426
14881130605
14881135793
14881146718
14881153676
14881161550
14881165944
14881176015
14881180532
14881189870
14881198476
14881206593
14881213674
14881221547
14881228139
14881235707
14881244008
14881250111
14881259755
14881267751
14881274342
14881281789
14881289906
14881295888
14881300465
14881311818
14881321461
14881327870
14881336537
14881342152
14881350392
14881359059
14881366566
14881373219
14881383900
14881392689
14881400929
14881407643
14881412526
14881423756
14881428883
14881439686
14881450672
14881457630
14881466053
14881474476
14881479420
14881488026
14881495045
14881505421
14881512196
14881524098
14881529224
14881539051
14881545887
14881554981
14881561939
14881570484
14881578175
14881587818
14881595020
14881604298
14881608997
14881618946
14881625049
14881633350
14881642444
14881651478
14881656238
14881666187
14881673267
14881681629
14881688831
14881698230
14881706531
14881717334
14881723316
14881733814
14881739063
14881749866
14881758533
14881765186
14881774829
14881783801
14881789356
14881800464
14881808826
14881814380
14881822620
14881831104
14881840259
14881846423
14881854602
14881860522
14881869861
14881875781
14881884265
14881890430
14881900134
14881906543
14881915332
14881920947
14881930163
14881936694
14881945483
14881951892
14881962085
14881971057
14881976733
14881984973
14881992907
14881998767
14882006091
14882015795
14882023364
14882032031
14882038195
14882046618
14882053759
14882059374
14882067004
14882075305
14882083483
14882092578
14882099597
14882105212
14882113757
14882119494
14882128405
14882134997
14882144823
14882150988
14882160204
14882166125
14882174548
14882180346
14882188830
14882195238
14882205126
14882214098
14882220385
14882228319
14882234972
14882241259
14882251146
14882258043
14882266588
14882273363
14882281176
14882289415
14882296007
14882304369
14882310350
14882319078
14882326219
14882332445
14882341173
14882347826
14882356310
14882362535
14882370165
14882378282
14882387865
14882395860
14882405321
14882410021
14882419420
14882425829
14882433092
14882440538
14882447191
14882450487
14882458055
14882461778
14882469163
14882475511
14882482103
14882488023
14882497972
14882502367
14882509752
14882514329
14882522508
14882526536
14882534105
14882539842
14882547960
14882553087
14882558458
14882561876
14882570421
14882573961
14882580430
14882585740
14882592820
14882596055
14882602586
14882608934
14882613572
14882617173
14882624375
14882631333
14882637315
14882643357
14882647813
14882653184
14882658860
14882664903
14882670762
14882675828
14882682298
14882687608
14882692979
14882697251
14882704026
14882708421
14882715562
14882721482
14882727342
14882734361
14882741013
14882748399
14882754807
14882762559
14882770921
14882776963
14882785691
14882793687
14882800767
14882808396
14882815110
14882822983
14882829331
14882837327
14882846787
14882852829
14882861802
14882867356
14882871872
14882882065
14882890732
14882896958
14882908066
14882913926
14882922776
14882928513
14882933152
14882944504
14882949448
14882960983
14882970688
14882977646
14882982590
14882993942
14882999130
14883009628
14883014267
14883024155
14883036240
14883044846
14883049667
14883059555
14883068649
14883076828
14883081772
14883091965
14883097763
14883110580
14883115707
14883125046
14883131943
14883142013
14883147140
14883156173
14883164535
14883176010
14883180954
14883190841
14883198227
14883208908
14883216781
14883225448
14883233322
14883244064
14883248947
14883260299
14883264755
14883274337
14883280746
14883290023
14883295272
14883304672
14883310897
14883319747
14883324325
14883333907
14883340560
14883350448
14883355758
14883366744
14883371139
14883380782
14883385360
14883395797
14883400313
14883411178
14883416793
14883427535
14883434920
14883440841
14883449569
14883457015
14883461348
14883473067
14883480635
14883488509
14883495955
14883503646
14883510543
14883518294
14883526107
14883533919
14883540816
14883549239
14883559004
14883567793
14883575118
14883581526
14883590010
14883599349
14883607527
14883616560
14883623763
14883632246
14883640364
14883648604
14883651228
14883668623
14883679182
14883686201
14883690962
14883701582
14883710371
14883717085
14883724898
14883732832
14883742903
14883749251
14883755720
14883765791
14883772810
14883781599
14883790266
14883793196
14883806929
14883812239
14883823408
14883828840
14883839582
14883846907
14883854597
14883861433
14883869673
14883877302
14883886091
14883895246
14883899214
14883911726
14883914961
14883925947
14883930341
14883945112
14883952314
14883962751
14883969038
14883979414
14883984479
14883995710
14884006574
14884013776
14884024457
14884031110
14884040387
14884049848
14884057172
14884065839
14884073346
14884079694
14884087568
14884095319
14884101911
14884109845
14884117475
14884123639
14884132489
14884138898
14884147748
14884156415
14884163190
14884171918
14884177411
14884181561
14884186444
14884192792
14884198712
14884204205
14884210675
14884215558
14884220868
14884226117
14884232587
14884238385
14884242718
14884249982
14884253705
14884261700
14884265424
14884274701
14884278790
14884288922
14884294415
14884299359
14884308148
14884314068
14884320477
14884324689
14884330914
14884337079
14884342999
14884348004
14884354901
14884362408
14884370404
14884374737
14884381207
14884386395
14884393841
14884398724
14884404950
14884411663
14884417157
14884421429
14884426983
14884432232
14884439984
14884446514
14884451336
14884457012
14884459393
14884468304
14884471661
14884481121
14884486675
14884497845
14884502361
14884512371
14884516766
14884526836
14884535564
14884543560
14884549358
14884560162
14884567974
14884575420
14884578045
14884588726
14884597637
14884603924
14884613323
14884622478
14884630779
14884639263
14884642254
14884653362
14884658367
14884669780
14884675518
14884686870
14884697795
14884705974
14884719585
14884728862
14884737712
14884746868
14884755718
14884766460
14884771343
14884781597
14884786846
14884798259
14884804546
14884813640
14884818340
14884828532
14884835796
14884844096
14884853618
14884859904
14884869060
14884877299
14884886699
14884893840
14884902141
14884909343
14884918925
14884923930
14884933940
14884939250
14884950053
14884957316
14884965251
14884975200
14884982524
14884990702
14884999430
14885006266
14885014994
14885021586
14885027323
14885036357
14885045512
14885055583
14885060771
14885071635
14885081767
14885088297
14885098795
14885109171
14885119242
14885126017
14885135722
14885141520
14885152994
14885162821
14885169352
14885180033
14885188212
14885196268
14885202982
14885212137
14885220743
14885229227
14885236063
14885245951
14885252115
14885260416
14885269022
14885275309
14885281168
14885289652
14885301004
14885308512
14885316751
14885324747
14885331888
14885340189
14885347635
14885353922
14885363077
14885373026
14885379862
14885386820
14885395181
14885402078
14885411173
14885417459
14885428751
14885436502
14885444070
14885449930
14885458536
14885464029
14885476480
14885486673
14885492959
14885503091
14885512918
14885519876
14885530679
14885538980
14885544229
14885551126
14885559976
14885567361
14885576272
14885583963
14885593118
14885600869
14885609292
14885616616
14885625588
14885633401
14885641152
14885647988
14885656716
14885664590
14885672891
14885680703
14885686929
14885697183
14885704141
14885712930
14885719399
14885727578
14885736306
14885744485
14885751504
14885760537
14885765420
14885775368
14885783486
14885790993
14885800027
14885806618
14885811501
14885823464
14885832314
14885838967
14885843911
14885855263
14885863625
14885869484
14885874672
14885880593
14885886086
14885892495
14885897255
14885903298
14885908730
14885913796
14885918434
14885925148
14885930825
14885937355
14885944863
14885949806
14885956032
14885961586
14885967507
14885974404
14885976906
14885985756
14886024208
14886029701
14886034584
14886039223
14886044594
14886049538
14886054420
14886059914
14886064979
14886070045
14886074440
14886079262
14886083351
14886088295
14886093849
14886099037
14886105079
14886110451
14886117042
14886124244
14886131874
14886142677
14886149208
14886157020
14886162880
14886169654
14886177040
14886184181
14886190345
14886197059
14886204628
14886211097
14886217567
14886222572
14886231056
14886236427
14886242591
14886247352
14886255348
14886262977
14886269935
14886275306
14886281532
14886288856
14886296119
14886301917
14886306739
14886314307
14886322913
14886329078
14886337012
14886342261
14886349891
14886356544
14886364234
14886370338
14886375709
14886385230
14886390845
14886397437
14886403785
14886412269
14886418189
14886424964
14886432044
14886438147
14886445899
14886451880
14886459876
14886465796
14886474341
14886481971
14886489661
14886495948
14886504859
14886513220
14886521216
14886527930
14886535071
14886540991
14886550269
14886556494
14886564978
14886569678
14886578650
14886585974
14886593848
14886600928
14886609534
14886618994
14886624792
14886634009
14886639014
14886647620
14886653052
14886662878
14886669226
14886679602
14886684729
14886693762
14886699011
14886710425
14886724096
14886731970
14886744055
14886752356
14886767126
14886776648
14886786718
14886792028
14886802771
14886807104
14886817297
14886821691
14886829992
14886836279
14886841833
14886850988
14886858618
14886865820
14886873022
14886879186
14886887975
14886895178
14886902685
14886910986
14886919408
14886926000
14886933141
14886939489
14886944128
14886955968
14886961278
14886969518
14886977697
14886985815
14886993749
14887002050
14887008275
14887010961
14887024083
14887031041
14887037572
14887045202
14887051976
14887061010
14887067174
14887073888
14887081334
14887088475
14887096471
14887103185
14887111058
14887116979
14887125768
14887134313
14887140233
14887148717
14887154027
14887164342
14887169469
14887178502
14887186376
14887194188
14887200902
14887208958
14887216100
14887224400
14887231480
14887240269
14887246983
14887255162
14887261937
14887267552
14887278844
14887284154
14887293248
14887303502
14887310154
14887319310
14887327244
14887334874
14887341526
14887350621
14887357762
14887368199
14887377720
14887384861
14887394200
14887401463
14887408360
14887414646
14887419407
14887426426
14887432286
14887437229
14887440647
14887448094
14887453587
14887460606
14887463108
14887472996
14887479160
14887486302
14887493809
14887500462
14887505772
14887511631
14887519199
14887526401
14887532810
14887538425
14887543919
14887548740
14887554905
14887560337
14887566013
14887569248
14887575596
14887580906
14887586643
14887592014
14887597812
14887604099
14887608372
14887614292
14887620334
14887624851
14887630771
14887634922
14887639682
14887645908
14887650608
14887655796
14887661655
14887666904
14887671665
14887676914
14887683872
14887689975
14887694187
14887701084
14887706272
14887712375
14887716953
14887723911
14887731052
14887735629
14887740451
14887747714
14887751132
14887758518
14887763400
14887769016
14887775424
14887782993
14887786350
14887793552
14887799106
14887804477
14887808383
14887814914
14887821994
14887826572
14887833713
14887838290
14887843600
14887849338
14887854526
14887859653
14887865939
14887869418
14887877109
14887879916
14887887546
14887893161
14887900363
14887907382
14887914218
14887920382
14887924167
14887930819
14887935824
14887942599
14887949679
14887954745
14887960727
14887966281
14887973056
14887978060
14887982699
14887989962
14887994967
14888002413
14888008029
14888013705
14888019808
14888027743
14888033724
14888042086
14888050753
14888059542
14888069735
14888074740
14888087374
14888095370
14888105685
14888113924
14888120211
14888129549
14888135653
14888148348
14888156344
14888159395
14888171053
14888178988
14888187227
14888193453
14888196322
14888206759
14888217501
14888224398
14888231051
14888238314
14888244234
14888252474
14888258760
14888263582
14888274141
14888283724
14888292086
14888298738
14888307466
14888314424
14888322054
14888327974
14888335298
14888340792
14888351106
14888362459
14888370943
14888377779
14888386324
14888393465
14888398897
14888408113
14888415010
14888423616
14888431123
14888437105
14888446504
14888453218
14888462129
14888468965
14888475496
14888486909
14888495210
14888502534
14888511506
14888522615
14888530366
14888536165
14888545442
14888554048
14888560640
14888567414
14888573274
14888583589
14888592439
14888599763
14888606660
14888614533
14888621675
14888626863
14888635957
14888643464
14888651093
14888658418
14888668183
14888675385
14888678376
14888688691
14888696137
14888703828
14888710175
14888719086
14888725922
14888732758
14888741975
14888749055
14888758027
14888765473
14888770966
14888779450
14888787201
14888790497
14888801728
14888810761
14888821930
14888830536
14888838715
14888845490
14888848664
14888859589
14888867463
14888875336
14888883149
14888893219
14888900482
14888906586
14888914765
14888921662
14888930023
14888937226
14888942536
14888953461
14888963287
14888971039
14888978424
14888987030
14888997284
14889005280
14889014801
14889027740
14889034210
14889043793
14889056915
14889068329
14889075226
14889081695
14889089691
14889095489
14889102813
14889108978
14889114166
14889124908
14889132476
14889141143
14889148285
14889155426
14889161956
14889168731
14889175872
14889181915
14889190948
14889196685
14889203155
14889210906
14889218048
14889224517
14889232757
14889240692
14889247894
14889259551
14889267242
14889274688
14889282745
14889287505
14889297332
14889305450
14889312774
14889321319
14889327605
14889336455
14889343169
14889350738
14889357390
14889362334
14889371795
14889378509
14889386016
14889395476
14889402495
14889409514
14889417876
14889425506
14889430205
14889439177
14889445830
14889451140
14889461150
14889468413
14889477385
14889484099
14889491545
14889497649
14889506072
14889512602
14889517729
14889527312
14889537078
14889545439
14889551970
14889560149
14889566313
14889571440
14889581633
14889590117
14889595488
14889602751
14889611723
14889619231
14889623991
14889634184
14889640715
14889648833
14889655180
14889663359
14889670378
14889680571
14889687163
14889691984
14889701079
14889708037
14889714811
14889721647
14889729643
14889736052
14889741484
14889750029
14889756620
14889764616
14889770597
14889777067
14889782988
14889789457
14889797880
14889806059
14889811918
14889817961
14889825956
14889832426
14889837003
14889845854
14889853483
14889861784
14889868681
14889878690
14889888395
14889896940
14889904813
14889912748
14889920560
14889923551
14889936368
14889943876
14889952116
14889958097
14889966215
14889974271
14889976835
14889986844
14889994169
14890001188
14890008817
14890016874
14890023954
14890032987
14890039457
14890044278
14890053983
14890058011
14890067044
14890073941
14890080533
14890091642
14890099271
14890107144
14890114285
14890122769
14890129788
14890137418
14890146878
14890152677
14890165494
14890173428
14890179166
14890188626
14890194241
14890202298
14890210477
14890219083
14890228604
14890234341
14890245328
14890254422
14890261624
14890268277
14890277371
14890283902
14890289029
14890298123
14890308438
14890317288
