15006299840
15006305089
15006310033
15006315282
15006320653
15006326451
15006331029
15006337132
15006341466
15006346715
15006352880
15006357457
15006363439
15006369054
15006375279
15006381932
15006388036
15006392674
15006400243
15006406773
15006412145
15006419774
15006427464
15006432713
15006441502
15006447972
15006455418
15006461339
15006467564
15006474888
15006482518
15006490025
15006495579
15006504735
15006512425
15006519566
15006526158
15006531956
15006539219
15006547398
15006552464
15006561070
15006566990
15006574559
15006580662
15006585789
15006591526
15006597813
15006602879
15006610020
15006617222
15006623387
15006628880
15006635044
15006640232
15006647495
15006651341
15006659641
15006663365
15006673252
15006679234
15006684849
15006690220
15006696568
15006702549
15006708469
15006713963
15006718357
15006725132
15006731480
15006738316
15006744541
15006751438
15006757603
15006764683
15006773289
15006779697
15006783665
15006792270
15006796177
15006805210
15006811252
15006816196
15006822849
15006830173
15006836216
15006842563
15006846653
15006854343
15006860752
15006865696
15006872776
15006879245
15006885410
15006891941
15006896762
15006903232
15006907321
15006915927
15006922946
15006928928
15006933750
15006939914
15006946140
15006953159
15006958591
15006965122
15006972385
15006979953
15006986240
15006993381
15006999484
15007004794
15007011081
15007016818
15007023349
15007028415
15007039035
15007046359
15007052158
15007059054
15007065585
15007072726
15007079928
15007086520
15007090243
15007098178
15007104892
15007111606
15007120212
15007127292
15007135348
15007143466
15007149630
15007156588
15007161837
15007170932
15007176303
15007183749
15007190219
15007196322
15007202609
15007209384
15007218173
15007224032
15007232699
15007236849
15007245577
15007253085
15007260165
15007268099
15007274081
15007282321
15007287875
15007295748
15007303317
15007308016
15007314730
15007321566
15007325777
15007333773
15007337496
15007346896
15007354403
15007360934
15007367831
15007374605
15007381197
15007386629
15007395724
15007401034
15007408236
15007415987
15007423128
15007429903
15007437655
15007443819
15007450350
15007455660
15007462923
15007468477
15007476046
15007483248
15007489046
15007494417
15007501070
15007509188
15007515657
15007522005
15007529512
15007537691
15007540254
15007552522
15007558809
15007566255
15007572725
15007581209
15007589082
15007595796
15007603853
15007609651
15007616853
15007624300
15007628999
15007636751
15007644014
15007652925
15007657930
15007667451
15007674715
15007682527
15007688997
15007695588
15007701692
15007709443
15007718355
15007725801
15007731660
15007738801
15007744478
15007752168
15007760774
15007768098
15007773896
15007778413
15007788301
15007796357
15007803010
15007807710
15007815156
15007820466
15007824800
15007828279
15007835725
15007840486
15007845979
15007850495
15007854707
15007861360
15007866975
15007871247
15007876618
15007881745
15007886994
15007891023
15007899201
15007905793
15007910798
15007914338
15007922822
15007926972
15007935334
15007938813
15007946809
15007954255
15007958527
15007961579
15007967805
15007970795
15007977143
15007980012
15007986420
15007990815
15007996735
15007999848
15008005402
15008009675
15008015229
15008020600
15008026886
15008032074
15008037995
15008043244
15008049775
15008055024
15008061005
15008065888
15008071869
15008077973
15008084076
15008093109
15008101471
15008107025
15008117157
15008125641
15008132050
15008139069
15008146637
15008153595
15008161652
15008170990
15008177521
15008185883
15008188873
15008199432
15008205048
15008215851
15008220978
15008231903
15008238129
15008246857
15008253815
15008260284
15008268890
15008275177
15008282196
15008290863
15008297577
15008306244
15008312042
15008319305
15008326019
15008335174
15008343597
15008350128
15008355987
15008360504
15008369476
15008373931
15008383636
15008389679
15008399383
15008404083
15008414459
15008419464
15008428314
15008436309
15008444793
15008451934
15008458709
15008465728
15008476043
15008482391
15008490386
15008497833
15008502837
15008515411
15008522613
15008528777
15008534087
15008545806
15008551116
15008559295
15008566558
15008576140
15008584441
15008593291
15008601104
15008609893
15008617949
15008626738
15008633635
15008640960
15008650054
15008657378
15008664885
15008671904
15008680144
15008687957
15008697478
15008705840
15008711638
15008720976
15008727019
15008734770
15008740447
15008748808
15008755095
15008764494
15008770293
15008778349
15008786467
15008792998
15008802580
15008809843
15008816924
15008824187
15008832365
15008839506
15008848051
15008855070
15008862639
15008869169
15008877470
15008883452
15008888090
15008899809
15008909025
15008915861
15008923735
15008931486
15008936064
15008946379
15008953337
15008962065
15008970671
15008978727
15008985319
15008992948
15008998808
15009006864
15009015043
15009022734
15009029020
15009037626
15009045927
15009053373
15009061857
15009069853
15009076139
15009084745
15009090665
15009100187
15009108488
15009113432
15009122037
15009129179
15009139310
15009144620
15009155485
15009165006
15009171842
15009178739
15009187467
15009194120
15009202299
15009209501
15009216947
15009224515
15009232328
15009238858
15009246671
15009254972
15009263700
15009271878
15009279447
15009287870
15009295072
15009303922
15009312284
15009319119
15009328153
15009335111
15009343411
15009352933
15009360440
15009369595
15009377652
15009384549
15009392789
15009401944
15009409451
15009420010
15009428677
15009437772
15009445401
15009451871
15009461087
15009469144
15009478238
15009485135
15009496792
15009503384
15009507962
15009519436
15009522854
15009529751
15009533047
15009541775
15009549282
15009554287
15009559536
15009565335
15009570767
15009575100
15009580899
15009586087
15009592434
15009598294
15009604092
15009607632
15009614773
15009618191
15009626614
15009633633
15009639248
15009644253
15009648831
15009654385
15009660427
15009666226
15009672573
15009678738
15009683071
15009688686
15009692654
15009699062
15009703640
15009708889
15009714870
15009719570
15009725124
15009731411
15009736477
15009742214
15009746731
15009751858
15009758816
15009766811
15009771633
15009777859
15009782985
15009789516
15009793911
15009801296
15009811428
15009818996
15009826015
15009835109
15009841152
15009849147
15009857265
15009863979
15009872158
15009880336
15009888637
15009895900
15009902187
15009908840
15009917629
15009924587
15009933254
15009940395
15009949977
15009954738
15009964382
15009970973
15009978786
15009986415
15009994350
15010000758
15010009486
15010019130
15010025600
15010032313
15010040797
15010046779
15010055141
15010061976
15010071193
15010078273
15010083217
15010094081
15010098964
15010109523
15010114345
15010125819
15010132045
15010143031
15010148280
15010158351
15010165919
15010173426
15010181910
15010188563
15010198146
15010206507
15010213954
15010221400
15010229823
15010235682
15010243922
15010252039
15010258204
15010268580
15010274806
15010283289
15010289210
15010293726
15010305323
15010313990
15010320338
15010331324
15010337916
15010342737
15010353174
15010357935
15010368067
15010375391
15010382227
15010389490
15010397730
15010404261
15010413599
15010420008
15010429407
15010435633
15010444300
15010450647
15010459497
15010466455
15010475794
15010481714
15010489893
15010498560
15010506616
15010513758
15010521936
15010530725
15010536890
15010544580
15010549402
15010560144
15010564783
15010574609
15010583154
15010590051
15010596643
15010606287
15010612634
15010619287
15010626245
15010636987
15010644800
15010653100
15010659753
15010668786
15010674768
15010683618
15010690149
15010698449
15010704797
15010714502
15010722680
15010728357
15010736352
15010742273
15010751123
15010755822
15010765527
15010771203
15010781274
15010787866
15010796289
15010803552
15010810449
15010816796
15010825341
15010832482
15010843224
15010850121
15010858910
15010865197
15010874902
15010881005
15010887963
15010897301
15010905297
15010914269
15010917138
15010930016
15010938256
15010944543
15010953393
15010962609
15010965783
15010976708
15010984093
15010993187
15010998070
15011006615
15011015343
15011022973
15011030053
15011039208
15011046654
15011056054
15011062645
15011070153
15011076439
15011084069
15011092308
15011100670
15011107262
15011115746
15011123863
15011129601
15011137474
15011145653
15011153954
15011162254
15011168968
15011176415
15011184349
15011189293
15011198875
15011205833
15011214378
15011221397
15011229210
15011232567
15011239342
15011245079
15011252281
15011255821
15011264183
15011271568
15011277366
15011282554
15011286400
15011293052
15011298424
15011303611
15011308067
15011314781
15011321556
15011327171
15011331627
15011337242
15011342979
15011348167
15011353477
15011360679
15011367027
15011374290
15011380394
15011385765
15011392417
15011397727
15011402305
15011408958
15011413902
15011419151
15011425010
15011431724
15011436424
15011442466
15011448509
15011454063
15011460471
15011465965
15011469932
15011475974
15011480064
15011485862
15011490989
15011498496
15011504783
15011508384
15011517783
15011525352
15011533774
15011538291
15011548789
15011554282
15011564780
15011569724
15011578757
15011586448
15011594260
15011600669
15011609275
15011616843
15011627768
15011634726
15011643882
15011650718
15011657920
15011663901
15011673362
15011679953
15011688559
15011695151
15011703757
15011712729
15011718833
15011726950
15011734885
15011741538
15011751059
15011759482
15011767111
15011775046
15011779868
15011789572
15011794455
15011804892
15011813437
15011823813
15011828574
15011838583
15011845541
15011852865
15011859457
15011867575
15011875265
15011884848
15011891623
15011899618
15011905539
15011913656
15011922140
15011930624
15011937277
15011945211
15011953939
15011962606
15011969015
15011977621
15011983969
15011988607
15012000936
15012007894
15012016561
15012023153
15012030905
15012035909
15012047140
15012051656
15012061056
15012067281
15012076620
15012083761
15012094198
15012101522
15012109579
15012116598
15012122884
15012132101
15012139425
15012145894
15012155599
15012161580
15012169759
15012176046
15012184347
15012192830
15012200277
15012208211
15012214620
15012223287
15012231954
15012240133
15012246297
15012254171
15012259664
15012269979
15012274800
15012284749
15012289754
15012298787
15012307149
15012313497
15012322896
15012329305
15012338094
15012344930
15012350789
15012358724
15012367390
15012376973
15012384053
15012393391
15012400594
15012409871
15012416280
15012425252
15012433247
15012438130
15012448567
15012454243
15012463521
15012470662
15012480122
15012486714
15012493672
15012500447
15012511372
15012518940
15012528096
15012532734
15012543965
15012549153
15012558430
15012565266
15012574177
15012581135
15012589863
15012596638
15012603596
15012609944
15012619343
15012625324
15012630024
15012640949
15012649311
15012657917
15012662678
15012673542
15012678303
15012687946
15012695759
15012702656
15012710102
15012719807
15012726765
15012733539
15012739399
15012749164
15012755695
15012763996
15012770344
15012780536
15012788959
15012795673
15012804218
15012806842
15012818500
15012826313
15012832843
15012842975
15012849567
15012857441
15012865314
15012870136
15012879779
15012887104
15012894977
15012902362
15012910541
15012917072
15012926349
15012933368
15012940387
15012946430
15012950885
15012955585
15012961749
15012967181
15012975299
15012979205
15012987567
15012991901
15012998920
15013004413
15013011310
15013016193
15013021564
15013026202
15013031573
15013036212
15013042071
15013048358
15013053912
15013057086
15013065082
15013071490
15013075702
15013081073
15013085101
15013091571
15013096942
15013104266
15013109515
15013115680
15013123614
15013130206
15013137408
15013139666
15013147845
15013153582
15013158831
15013164935
15013169940
15013174334
15013179400
15013184283
15013189410
15013194049
15013198809
15013203814
15013209307
15013215106
15013222979
15013231158
15013236895
15013244463
15013251727
15013259539
15013264544
15013271807
15013279681
15013287798
15013293841
15013301958
15013309283
15013315081
15013322832
15013329363
15013336993
15013344927
15013352862
15013359209
15013366533
15013371782
15013379107
15013387346
15013395281
15013404436
15013410479
15013414751
15013425066
15013432940
15013438311
15013445085
15013453508
15013462114
15013470171
15013474932
15013482988
15013489031
15013497270
15013503557
15013512590
15013522783
15013529741
15013536882
15013545183
15013551836
15013559160
15013568193
15013575700
15013584489
15013590715
15013600053
15013607988
15013614336
15013623918
15013629838
15013637346
15013643571
15013653703
15013662370
15013668962
15013676896
15013681535
15013691362
15013699540
15013706376
15013713701
15013721269
15013727983
15013737016
15013743669
15013751115
15013757646
15013767411
15013773759
15013783708
15013790116
15013797563
15013805680
15013813493
15013819413
15013824235
15013835893
15013845231
15013854630
15013861649
15013870072
15013877824
15013884232
15013892411
15013898942
15013908585
15013917191
15013922562
15013932084
15013939591
15013945817
15013953019
15013961930
15013970902
15013980118
15013987381
15013994584
15014003251
15014009110
15014018204
15014025162
15014031876
15014042313
15014048966
15014056961
15014065445
15014071732
15014079666
15014084488
15014096207
15014104996
15014113724
15014120316
15014128616
15014133988
15014144302
15014149124
15014160111
15014165360
15014175980
15014181412
15014191238
15014198624
15014205948
15014211868
15014220840
15014227920
15014238052
15014245560
15014253738
15014263138
15014269974
15014276199
15014289200
15014295608
15014303726
15014313919
15014322769
15014329483
15014337051
15014345962
15014352798
15014359146
15014369094
15014375564
15014383682
15014390212
15014399002
15014407668
15014414138
15014422561
15014430496
15014438979
15014445205
15014453445
15014458022
15014468459
15014473098
15014484817
15014493240
15014502090
15014511489
15014518203
15014526321
15014532363
15014538955
15014546889
15014558974
15014565444
15014572463
15014581496
15014588149
15014596938
15014604018
15014611892
15014619521
15014627578
15014636245
15014642043
15014646987
15014654921
15014660170
15014666884
15014672377
15014679030
15014685744
15014691786
15014697829
15014703322
15014709426
15014713698
15014719435
15014725844
15014729750
15014735121
15014740859
15014745314
15014751173
15014756300
15014760634
15014766737
15014772597
15014776747
15014783156
15014788405
15014792372
15014798598
15014803114
15014808729
15014814955
15014820509
15014824965
15014830214
15014835890
15014841139
15014845900
15014852186
15014858046
15014862745
15014866774
15014873121
15014877882
15014883436
15014889235
15014895094
15014901381
15014907423
15014911818
15014917982
15014926222
15014933302
15014941420
15014949720
15014956312
15014961134
15014971266
15014977857
15014987257
15014992140
15015001905
15015010816
15015016737
15015024122
15015031385
15015035597
15015045118
15015049452
15015060255
15015067396
15015077344
15015082105
15015090345
15015099256
15015106458
15015113172
15015120618
15015129957
15015138257
15015145215
15015153455
15015161023
15015167005
15015175000
15015182874
15015190076
15015198987
15015205640
15015214490
15015220899
15015230054
15015237806
15015245374
15015251660
15015260938
15015269361
15015276441
15015284619
15015289441
15015299268
15015304273
15015315381
15015325269
15015331616
15015338391
15015345837
15015353467
15015363355
15015370801
15015377881
15015384595
15015393323
15015402356
15015410901
15015417981
15015424939
15015431286
15015440259
15015446484
15015454968
15015463147
15015471936
15015477917
15015482556
15015492566
15015499890
15015508191
15015515515
15015524731
15015529980
15015538952
15015546276
15015555615
15015562268
15015569714
15015576611
15015587170
15015594738
15015601147
15015608959
15015615734
15015623791
15015632519
15015638744
15015643993
15015654797
15015662914
15015668896
15015673534
15015684093
15015692028
15015700146
15015705700
15015714916
15015721508
15015730663
15015737682
15015745373
15015751232
15015760265
15015766796
15015776317
15015783336
15015790966
15015799266
15015808178
15015813915
15015818615
15015829540
15015839366
15015846202
15015853527
15015861461
15015867076
15015876720
15015881481
15015890575
15015898815
15015908519
15015913402
15015923473
15015930736
15015940257
15015946971
15015953990
15015961070
15015970348
15015977855
15015986156
15015992869
15015999156
15016007701
15016015513
15016021983
15016031138
15016039561
15016046397
15016055003
15016062022
15016069957
15016074778
15016083934
15016089244
15016100718
15016105418
15016116160
15016123790
15016132457
15016139842
15016149180
15016157298
15016165843
15016172557
15016180125
15016187693
15016196116
15016202281
15016209910
15016218638
15016227488
15016233897
15016241465
15016249827
15016258921
15016264902
15016273692
15016282725
15016290476
15016299326
15016305796
15016313608
15016321177
15016327830
15016336252
15016342234
15016347727
15016354136
15016360544
15016365000
15016371836
15016376291
15016379892
15016386850
15016394541
15016400522
15016406382
15016412851
15016418100
15016424265
15016429758
15016437204
15016444040
15016449167
15016454721
15016458322
15016477671
15016484018
15016489939
15016494943
15016500864
15016506784
15016511728
15016518381
15016523630
15016528940
15016533762
15016538522
15016544382
15016549570
15016554636
15016559457
15016563913
15016569284
15016573679
15016579294
15016582834
15016588998
15016592538
15016599802
15016603586
15016612253
15016617807
15016626291
15016633432
15016641061
15016648507
15016656930
15016663644
15016672555
15016679391
15016687997
15016694406
15016699533
15016710824
15016713693
15016725473
15016731759
15016742013
15016747201
15016755441
15016762826
15016771310
15016777658
15016785775
15016793527
15016802682
15016811532
15016818307
15016825326
15016834115
15016843148
15016848458
15016858590
15016866402
15016876839
15016884042
15016891732
15016898080
15016908333
15016914742
15016923958
15016930428
15016938790
15016947274
15016956063
15016962533
15016967721
15016978951
15016984200
15016993416
15017000740
15017008431
15017018135
15017024544
15017033089
15017040169
15017048592
15017057564
15017064644
15017073372
15017079903
15017085030
15017096260
15017103340
15017112251
15017119515
15017126839
15017136177
15017142525
15017150948
15017158821
15017167244
15017173408
15017182136
15017190620
15017197395
15017205147
15017213997
15017221260
15017229744
15017237312
15017244331
15017253608
15017259834
15017268928
15017277900
15017284492
15017289680
15017301399
15017306465
15017316230
15017323371
15017332832
15017340278
15017348884
15017356025
15017363410
15017370124
15017379157
15017387519
15017395149
15017404121
15017412055
15017419257
15017427985
15017434516
15017441657
15017451240
15017458686
15017466132
15017473334
15017482062
15017490058
15017496589
15017503303
15017513068
15017519355
15017522162
15017535712
15017543586
15017549872
15017555060
15017566291
15017571662
15017579779
15017586188
15017596259
15017603034
15017611274
15017617804
15017626837
15017634162
15017639716
15017650153
15017655646
15017665412
15017671515
15017683234
15017688727
15017697089
15017705084
15017714118
15017720526
15017728400
15017735724
15017745490
15017752264
15017761237
15017767767
15017773077
15017783026
15017788092
15017796942
15017805121
15017813666
15017820868
15017830084
15017837530
15017844855
15017851507
15017859686
15017868780
15017872137
15017883551
15017891974
15017898687
15017906805
15017915289
15017923773
15017931890
15017940069
15017949224
15017956488
15017964666
15017971807
15017980291
15017987493
15017995794
15018002630
15018012701
15018019109
15018026189
15018034368
15018041326
15018049200
15018054082
15018065435
15018070745
15018083074
15018090337
15018096319
15018102849
15018107183
15018110967
15018121953
15018128606
15018134588
15018140203
15018144353
15018150213
15018154424
15018160100
15018166326
15018171819
15018178411
15018184148
15018188848
15018194646
15018199895
15018204717
15018210759
15018216619
15018220159
15018227483
15018232854
15018238164
15018241277
15018247502
15018254033
15018259954
15018265569
15018269597
15018275090
15018280461
15018285100
15018290837
15018296819
15018300969
15018307073
15018313054
15018318120
15018322331
15018326421
15018335271
15018340947
15018346623
15018353215
15018360539
15018366582
15018375066
15018383916
15018391545
15018399968
15018405644
15018413823
15018419499
15018427189
15018432744
15018442143
15018448308
15018455937
15018463200
15018469487
15018477238
15018485417
15018490971
15018499211
15018507084
15018514592
15018522282
15018529240
15018534794
15018542179
15018549687
15018554081
15018564091
15018568608
15018577946
15018583012
15018591801
15018599369
15018607243
15018612064
15018622685
15018629154
15018640018
15018644840
15018653568
15018660648
15018668095
15018676701
15018682926
15018692936
15018701847
15018709171
15018717350
15018724003
15018731510
15018738163
15018747684
15018754581
15018763187
15018771366
15018778507
15018784671
15018793827
15018800052
15018808231
15018816165
15018821537
15018831363
15018839237
15018846256
15018852970
15018862918
15018869998
15018877811
15018885318
15018893619
15018902713
15018909305
15018915530
15018925784
15018931888
15018939395
15018948062
15018956302
15018962711
15018967593
15018977969
15018986026
15018992374
15018999209
15019009646
15019019534
15019025943
15019031131
15019042056
15019049563
15019056643
15019063601
15019072696
15019080203
15019087100
15019096316
15019103640
15019110171
15019118838
15019127261
15019130068
15019141848
15019152224
15019158999
15019164065
15019174990
15019180300
15019190920
15019195864
15019205142
15019214358
15019222231
15019229250
15019238100
15019244753
15019253420
15019260500
15019267763
15019276980
15019284914
15019292116
15019299135
15019307558
15019315005
15019321413
15019329897
15019336367
15019346682
15019353273
15019359987
15019368227
15019375429
15019383303
15019388308
15019398867
15019404848
15019415285
15019419985
15019429506
15019436220
15019444582
15019450991
15019458559
15019467958
15019476015
15019482851
15019492189
15019498049
15019507021
15019513185
15019523317
15019530397
15019538576
15019547548
15019550172
15019562807
15019569398
15019577455
15019586061
15019592226
15019598451
15019610048
15019615175
15019624940
15019631593
15019640321
15019650636
15019659730
15019668336
15019675721
15019683351
15019692079
15019700380
15019708863
15019714234
15019723390
15019731141
15019740052
15019747865
15019756593
15019764039
15019773194
15019778565
15019787415
15019795167
15019804994
15019812135
15019818055
15019822144
15019832154
15019838013
15019843507
15019851563
15019857484
15019863770
15019869446
15019875245
15019881409
15019887513
15019894898
15019902833
15019908753
15019915711
15019922242
15019930115
15019934266
15019942627
15019947693
15019953614
15019958680
15019964234
15019968811
15019974732
15019978821
15019984803
15019990113
15019995545
15020000489
15020006165
15020011231
15020017639
15020022766
15020028137
15020032898
15020039917
15020044861
15020052246
15020057312
15020064209
15020068909
15020076233
15020081177
15020086670
15020094055
15020097656
15020106751
15020113892
15020122498
15020129883
15020137878
15020145081
15020153259
15020162476
15020170288
15020178772
15020185974
15020194397
15020201599
15020210510
15020220337
15020226745
15020235351
15020242004
15020249328
15020258667
15020266540
15020275207
15020282653
15020289733
15020298462
15020306396
15020313476
15020321960
15020328613
15020337768
15020347106
15020354064
15020362792
15020370178
15020379150
15020381957
15020394714
15020402709
15020409057
15020414489
15020425292
15020430175
15020441344
15020446288
15020454528
15020461059
15020469909
15020476989
15020484435
15020493712
15020499755
15020508178
15020514770
15020523009
15020529784
15020538024
15020546752
15020555480
15020562987
15020570739
15020576964
15020585143
15020589904
15020601134
15020606871
15020615966
15020623473
15020630492
15020638182
15020646483
15020653197
15020661498
15020672240
15020679198
15020688170
15020696043
15020702147
15020710570
15020718687
15020725890
15020732359
15020741881
15020750304
15020757628
15020764220
15020768736
15020779600
15020784300
15020794554
15020799742
15020812071
15020816771
15020827269
15020831846
15020841978
15020848692
15020856932
15020864134
15020871763
15020878782
15020885801
15020894896
15020901182
15020909178
15020916075
15020924681
15020933714
15020940245
15020947630
15020955869
15020963865
15020969908
15020978513
15020984922
15020995969
15021002500
15021011167
15021017820
15021024778
15021032102
15021038755
15021046995
15021056821
15021065122
15021072202
15021080015
15021085996
15021094419
15021101011
15021110471
15021116941
15021125669
15021134214
15021142087
15021148374
15021155271
15021163450
15021168332
15021180906
15021188901
15021197629
15021202268
15021212400
15021220456
15021226621
15021233579
15021242978
15021248227
15021257565
15021264890
15021272580
15021278684
15021288266
15021294614
15021304135
15021310666
15021319821
15021326230
15021334409
15021342282
15021350522
15021356869
15021364804
15021372983
15021382443
15021390988
15021399533
15021406491
15021416745
15021423703
15021433713
15021441037
15021451657
15021458493
15021468136
15021474789
15021484860
15021492062
15021498349
15021508541
15021514035
15021525631
15021531063
15021541928
15021549069
15021556515
15021561215
15021567684
15021573361
15021580624
15021585140
15021590511
15021595516
15021601193
15021606808
15021611446
15021619259
15021625607
15021631100
15021635555
15021640682
15021644894
15021650448
15021657589
15021663448
15021667110
15021674618
15021679256
15021684933
15021689754
15021695309
15021703365
15021709530
15021714779
15021720821
15021726192
15021732174
15021738460
15021743404
15021749874
15021755733
15021760738
15021766658
15021771968
15021778072
15021784175
15021789547
15021796749
15021801082
15021808834
15021812618
15021820369
15021823665
15021832332
15021842037
15021848201
15021856746
15021862666
15021867122
15021878719
15021883235
15021892635
15021900569
15021909358
15021915889
15021924678
15021931148
15021938716
15021948848
15021954768
15021961360
15021972041
15021978511
15021986934
15021993281
15022000789
15022008601
15022014949
15022023555
15022032405
15022041194
15022048457
15022054988
15022062007
15022073848
15022080073
15022091914
15022101252
15022109553
15022115107
15022126033
15022131465
15022140925
15022146784
15022157343
15022166499
15022176875
15022182673
15022194697
15022199397
15022208979
15022215083
15022228632
15022236628
15022244196
15022252680
15022260676
15022267145
15022274775
15022282404
15022289973
15022297480
15022305231
15022312128
15022319880
15022327753
15022333246
15022337580
15022347712
15022356318
15022362543
15022367975
15022376947
15022381281
15022390985
15022398371
15022406671
15022414789
15022422785
15022430170
15022435907
15022444269
15022453546
15022459101
15022470819
15022479425
15022486261
15022491571
15022501459
15022509027
15022517145
15022524347
15022532220
15022540948
15022549066
15022555414
15022564630
15022571466
15022579889
15022586297
15022595025
15022602167
15022611017
15022618646
15022623590
15022633722
15022638788
15022647516
15022654779
15022664483
15022671991
15022680230
15022687249
15022694879
15022701470
15022709710
15022716241
15022725030
15022733392
15022740899
15022747796
15022756890
15022763238
15022768304
15022779290
15022784234
15022795953
15022801629
15022812005
15022819268
15022826775
15022833855
15022843499
15022850091
15022858147
15022867425
15022875542
15022883965
15022886895
15022899651
15022904839
15022915642
15022920891
15022929558
15022937371
15022947075
15022953972
15022962395
15022969414
15022978691
15022988213
15022995354
15023004570
15023012993
15023022576
15023027947
15023037956
15023043205
15023053826
15023060906
15023068901
15023075676
15023085075
15023091484
15023101433
15023109978
15023116814
15023123344
15023132317
15023141106
15023146721
15023155998
15023163566
15023172600
15023179741
15023189079
15023196403
15023203911
15023213493
15023221611
15023228080
15023236503
15023243400
15023252861
15023259147
15023267143
15023273735
15023279289
15023289115
15023297111
15023303520
15023309074
15023316093
15023320060
15023327079
15023333061
15023338920
15023342338
15023348991
15023355094
15023360221
15023367179
15023372672
15023377250
15023385551
15023388969
15023398551
15023405326
15023410453
15023415763
15023420219
15023424674
15023432975
15023437919
15023443900
15023448844
15023454459
15023458976
15023465446
15023471305
15023475577
15023480460
15023488212
15023493033
15023498893
15023503837
15023508414
15023515555
15023520316
15023525260
15023531058
15023536918
15023543204
15023547599
15023554679
15023559501
15023567191
15023573905
15023579276
15023584647
15023591910
15023598807
15023607169
15023615470
15023630118
15023637381
15023647757
15023655325
15023665030
15023674796
15023681876
15023689078
15023698599
15023708731
15023715384
15023724661
15023732169
15023738394
15023748587
15023756583
15023765005
15023772818
15023779043
15023786185
15023794974
15023799734
15023809744
15023819388
15023827688
15023834768
15023842825
15023850454
15023858572
15023864737
15023873220
15023882132
15023890982
15023898367
15023904714
15023912954
15023921499
15023929861
15023937856
15023945913
15023952871
15023961782
15023967336
15023975515
15023982107
15023991750
15024001272
15024008047
15024017385
15024026113
15024034719
15024039541
15024049673
15024060415
15024066640
15024075063
15024081411
15024089589
15024098012
15024106496
15024119253
15024128225
15024135488
15024143850
15024149038
15024159658
15024164724
15024177175
15024185353
15024193959
15024202931
15024209951
15024219838
15024226552
15024235280
15024244618
15024251576
15024256886
15024267812
15024270802
15024286549
15024295522
15024305348
15024313771
15024320180
15024329274
15024335927
15024345143
15024353627
15024362843
15024369923
15024380055
15024386891
15024395924
15024404408
15024412098
15024420521
15024427662
15024436268
15024444020
15024453114
15024461293
15024470265
15024477711
15024486805
15024491993
15024503468
15024515064
15024523854
15024530140
15024538319
15024545704
15024553822
15024558399
15024568714
15024575184
15024585987
15024590748
15024600086
15024606861
15024614796
15024621448
15024629139
15024640675
15024649708
15024656971
15024664600
15024671192
15024680225
15024687427
15024695301
15024701832
15024710132
15024719227
15024726612
15024732532
15024740772
15024749134
15024755481
15024772876
15024780262
15024788623
15024795337
15024802661
15024811389
15024819202
15024826099
15024835193
15024842456
15024849231
15024855213
15024863269
15024871631
15024879138
15024885425
15024896899
15024903491
15024911426
15024918079
15024922534
15024933643
15024938769
15024949145
15024959765
15024968249
15024974719
15024982532
15024987231
15024996570
15025003711
15025010486
15025015735
15025022387
15025029223
15025034961
15025038195
15025043994
15025050097
15025055896
15025063220
15025069262
15025073596
15025078845
15025083300
15025088855
15025094348
15025098681
15025105273
15025109606
15025115893
15025121813
15025125903
15025132128
15025136828
15025142504
15025148913
15025154101
15025160632
15025164233
15025172900
15025179308
15025185717
15025191210
15025200243
15025205492
15025213732
15025219408
15025224718
15025231493
15025237780
15025244616
15025251025
15025256457
15025262316
15025266711
15025272753
15025277209
15025282885
15025289477
15025296557
15025302904
15025307299
15025318468
15025323107
15025333239
15025340319
15025347338
15025356249
15025367540
15025372423
15025382128
15025388658
15025396349
15025403368
15025409960
15025416979
15025429491
15025436510
15025443407
15025451280
15025458116
15025466173
15025472459
15025481126
15025489610
15025498094
15025505052
15025513353
15025520372
15025528245
15025533800
15025543016
15025553148
15025559923
15025567369
15025575792
15025580614
15025589830
15025596361
15025604234
15025612291
15025620652
15025630113
15025636338
15025644700
15025651963
15025658189
15025666673
15025673509
15025683030
15025691392
15025699021
15025704881
15025712571
15025720445
15025727220
15025735459
15025745652
15025752061
15025756699
15025767686
15025775559
15025781541
15025788987
15025797898
15025805711
15025815232
15025822007
15025829453
15025835923
15025842759
15025851548
15025858628
15025866196
15025876877
15025883591
15025892075
15025899888
15025906846
15025914475
15025921921
15025930344
15025938401
15025945298
15025951462
15025962998
15025967942
15025978195
15025983200
15025993149
15026003769
15026010544
15026018845
15026027023
15026031845
15026041855
15026046616
15026056320
15026063522
15026071518
15026078110
15026086838
15026093674
15026100998
15026106613
15026115524
15026122055
15026132187
15026138779
15026146591
15026154343
15026162338
15026168075
15026172653
15026183212
15026191330
15026199630
15026204269
15026213485
15026220138
15026229477
15026234176
15026244186
15026253952
15026260360
15026267501
15026275863
15026282333
15026289840
15026298690
15026305038
15026315414
15026321700
15026328109
15026336959
15026345809
15026351913
15026359969
15026366927
15026376144
15026383102
15026389327
15026396590
15026405502
15026412398
15026420577
15026427535
15026436263
15026443893
15026449691
15026457809
15026467147
15026476058
15026482833
15026491195
15026499190
15026508651
15026516036
15026522933
15026530684
15026539046
15026543990
15026554000
15026559371
15026568404
15026576216
15026584212
15026591719
15026600814
15026608077
15026614974
15026621504
15026629927
15026636702
15026645796
15026652937
15026661421
15026667647
15026676558
15026683760
15026692122
15026703902
15026710677
15026722090
15026727156
15026736616
15026740401
15026747542
15026753584
15026761214
15026768477
15026774702
15026780012
15026787459
15026792341
15026799299
15026806501
15026811873
15026816755
15026823774
15026827986
15026834028
15026837873
15026843000
15026848371
15026854170
15026858747
15026864485
15026870405
15026876020
15026880964
15026888471
15026893415
15026897383
15026905561
15026909895
15026917097
15026922163
15026929243
15026934675
15026941267
15026946699
15026952680
15026957624
15026964765
15026969648
15026976667
15026981611
15026988569
15026993269
15026999799
15027006025
15027011579
15027016645
15027024030
15027029279
15027034162
15027041730
15027048505
15027055524
15027064252
15027072187
15027081342
15027086408
15027095624
15027102887
15027112348
15027119550
15027129987
15027138288
15027146344
15027152936
15027162641
15027169599
15027179364
15027185956
15027191205
15027201886
15027207440
15027219098
15027227338
15027234418
15027241559
15027249432
15027258832
15027266217
15027272565
15027281415
15027289838
15027296429
15027305707
15027314130
15027320660
15027327923
15027336041
15027344098
15027353924
15027361249
15027370892
15027378888
15027386944
15027393475
15027401104
15027410443
15027418744
15027427288
15027434430
15027441082
15027448346
15027457928
15027465374
15027473309
15027480572
15027490765
15027498760
15027506634
15027513470
15027523602
15027530132
15027539166
15027546978
15027557110
15027566753
15027572918
15027579388
15027584454
15027596355
15027602337
15027611065
15027619427
15027629803
15027634991
15027643352
15027651409
15027659771
15027666240
15027673504
15027683147
15027691692
15027698162
15027704937
15027714031
15027719219
15027730388
15027736126
15027746257
15027752483
15027762249
15027769573
15027778301
15027783855
15027793437
15027800579
15027809001
15027816448
15027824199
15027830730
15027839763
15027846233
15027854533
15027863445
15027866557
15027877361
15027882793
15027893291
15027901408
15027908061
15027915630
15027923625
15027929912
15027938884
15027945781
15027954448
15027960917
15027965983
15027976481
15027985148
15027991618
15027996745
15028006511
15028014140
15028021586
15028029399
15028038676
15028045695
15028052958
15028059245
15028067179
15028074626
15028080058
15028091044
15028096354
15028107157
15028112712
15028122599
15028127787
15028137553
15028146281
15028155070
15028161662
15028170878
15028178080
15028187174
15028193522
15028200358
15028209391
15028216715
15028223368
15028228861
15028239908
15028244974
15028253397
15028260111
15028269510
15028278299
15028284464
15028291300
15028301188
15028307596
15028315287
15028322733
15028327860
15028339701
15028345682
15028355020
15028362345
15028370462
15028378885
15028387369
15028394449
15028402445
15028410196
15028417764
15028426431
15028433023
15028441873
15028448892
15028457437
15028463785
15028470682
15028477823
15028487955
15028493082
15028503397
15028509012
15028517801
15028523965
15028533609
15028540445
15028546976
15028552835
15028559305
15028564493
15028569742
15028576333
15028581094
15028587442
15028592202
15028598489
15028605264
15028610025
15028615335
15028619912
15028626565
15028632241
15028638040
15028643655
15028650308
15028656167
15028661294
15028668374
15028674050
15028680459
15028685342
15028690164
15028696328
15028703042
15028708230
15028713113
15028720742
15028727578
15028732888
15028739297
15028746133
15028751870
15028755959
15028765115
15028772134
15028779702
15028786538
15028793435
15028799905
15028808877
15028815774
15028823647
15028830300
15028838845
15028845559
15028851296
15028862343
15028871499
15028883278
15028890603
15028902199
15028912026
15028924111
15028934121
15028941933
15028955605
15028970131
15028975502
15028992897
15029001747
15029019570
15029028237
15029040627
15029054176
15029065773
15029077126
15029089027
15029099953
15029111549
15029120033
15029130287
15029144386
15029154762
15029163612
15029179359
15029186805
15029199623
15029214149
15029224586
15029234535
15029245338
15029255409
15029265480
15029278297
15029288368
15029295387
15029308265
15029318336
15029329078
15029338172
15029349586
15029358619
15029367347
15029382240
15029388770
15029401282
15029410682
15029422156
15029431312
15029438575
15029450171
15029460975
15029471473
15029483313
15029491736
15029499976
15029509681
15029520301
15029530066
15029537574
15029546546
15029553565
15029568824
15029575232
15029586341
15029595557
15029604651
15029615637
15029624915
15029633154
15029646460
15029655554
15029662329
15029674475
15029684302
15029696936
15029709631
15029727392
15029734961
15029742590
15029756201
15029769873
15029779394
15029786413
15029798193
15029808081
15029823400
15029834814
15029845800
15029856909
15029869482
15029875952
15029888891
15029898718
15029910864
15029920385
15029929357
15029942297
15029949743
15029963049
15029969579
15029982030
15029991003
15030002355
15030014806
15030018835
15030036169
15030040563
15030056188
15030064123
15030075780
15030085546
15030097814
15030107457
15030120214
15030136205
15030146825
15030157079
15030170018
15030180882
15030189183
15030204625
15030216466
15030228246
15030237950
15030246434
15030254918
15030264806
15030273961
15030282323
15030289342
15030297642
15030306493
15030314732
15030323521
15030331090
15030337865
15030343602
15030353612
15030363804
15030371190
15030376317
15030388401
15030393834
15030405247
15030411351
15030420628
15030428379
15030437962
15030445042
15030454258
15030461705
15030469334
15030477085
15030485508
15030493687
15030501988
15030511448
15030519871
15030527256
15030536106
15030544102
15030552891
15030560337
15030569798
15030575352
15030584446
15030592075
15030601841
15030609531
15030617527
15030625889
15030634006
15030641514
15030650242
15030657139
15030664341
15030671543
15030679966
15030685459
15030693393
15030698520
15030704258
15030708896
15030714817
15030719761
15030726596
15030731723
15030737400
15030743869
15030749729
15030753940
15030759922
15030766086
15030772983
15030777988
15030782566
15030787082
15030794040
15030798313
15030804355
15030813266
15030818088
15030821445
15030830478
15030835788
15030841769
15030846957
15030851657
15030857822
15030862094
15030873447
15030878024
15030883456
15030888461
15030894199
15030900790
15030906711
15030912265
15030916293
15030921969
15030928683
15030934176
15030940707
15030947848
15030955783
15030963168
15030970126
15030979403
15030986606
15030994601
15031002902
15031012851
15031022372
15031028781
15031037570
15031044345
15031051181
15031062289
15031070101
15031079623
15031086337
15031094882
15031102816
15031109469
15031117342
15031125399
15031131686
15031137057
15031149325
15031157381
15031163912
15031171847
15031179598
15031184420
15031194552
15031204317
15031210909
15031215731
15031225558
15031232088
15031239962
15031248385
15031256319
15031263704
15031271395
15031277926
15031287691
15031294710
15031302523
15031308321
15031316317
15031323214
15031332247
15031340853
15031348421
15031356295
15031363375
15031369539
15031374117
15031385530
15031395052
15031401277
15031407991
15031416719
15031423616
15031432405
15031438936
15031446382
15031453157
15031463960
15031471223
15031477632
15031486177
15031493074
15031499483
15031508028
15031516633
15031525911
15031532503
15031539522
15031547639
15031555879
15031561860
15031570405
15031582673
15031591645
15031599885
15031611482
15031623079
15031634553
15031646577
15031658479
15031669282
15031680818
15031694856
15031705720
15031716157
15031725312
15031734956
15031746308
15031756745
15031767792
15031779023
15031789460
15031798554
15031809418
15031820527
15031830475
15031840180
15031851288
15031861542
15031870698
15031880280
15031890046
15031904572
15031914154
15031928559
15031948639
15031967011
15031984833
15032005463
15032023285
15032042694
15032063751
15032083404
15032103973
15032124298
15032134491
15032144256
15032154327
15032173553
15032192962
15032213836
15032231781
15032243743
15032256134
15032266204
15032277069
15032286651
15032297149
15032306609
15032316924
15032326080
15032337127
15032347991
15032371612
15032381316
15032390838
15032399016
15032410247
15032415740
15032431121
15032439849
15032449370
15032459990
15032471892
15032481597
15032492095
15032501799
15032511016
15032521575
15032533354
15032545439
15032555754
15032564910
15032572905
15032585539
15032591033
15032606291
15032616423
15032626982
15032637541
15032649016
15032658476
15032666045
15032674773
15032682402
15032693449
15032698393
15032709318
15032718474
15032726835
15032735624
15032744536
15032752104
15032760100
15032769133
15032776823
15032783964
15032793852
15032804533
15032811369
15032818388
15032824980
15032832731
15032839811
15032846830
15032854887
15032861845
15032870878
15032879240
15032885160
15032893827
15032900480
15032909208
15032917753
15032925504
15032931730
15032940214
15032946684
15032954679
15032963529
15032971586
15032979398
15032985319
15032993558
15033001310
15033009977
15033017728
15033024747
15033032621
15033041959
15033048063
15033057828
15033063932
15033072843
15033081022
15033089444
15033098661
15033106351
15033114530
15033121183
15033129850
15033138089
15033144925
15033152921
15033162137
15033170194
15033176969
15033186551
15033193387
15033202542
15033209744
15033220792
15033229398
15033238004
15033246610
15033253140
15033264371
15033272977
15033280301
15033289273
15033298672
15033307828
15033315701
15033324673
15033334134
15033341031
15033350247
15033359158
15033368557
15033377530
15033386013
15033395169
15033404446
15033411221
15033420620
15033429165
15033437649
15033444241
15033453762
15033463894
15033473477
15033480740
15033490322
15033500027
15033511074
15033518276
15033523953
15033536404
15033545681
15033555569
15033563992
15033573757
15033579189
15033591762
15033597805
15033611599
15033616543
15033627224
15033632168
15033642544
15033647793
15033660000
15033664760
15033675563
15033680690
15033690761
15033695827
15033706874
15033714321
15033723110
15033729702
15033737758
15033744289
15033751064
15033759426
15033766933
15033774135
15033782314
15033788539
15033796169
15033802577
15033809291
15033817653
15033825038
15033831081
15033839259
15033844814
15033853297
15033859401
15033866481
15033873927
15033881984
15033890224
15033897548
15033903773
15033912440
15033917995
15033922389
15033932765
15033937282
15033947047
15033955409
15033961451
15033967555
15033976405
15033983424
15033991053
15033997767
15034004176
15034013758
15034019618
15034028163
15034034877
15034043360
15034049403
15034057704
15034064601
15034074366
15034082789
15034091395
15034099329
15034107325
15034113917
15034122157
15034129725
15034135584
15034141077
15034150416
15034157313
15034166834
15034174097
15034181238
15034189844
15034196680
15034203699
15034213404
15034219691
15034227930
15034235743
15034238367
15034250513
15034258570
15034264673
15034273157
15034281031
15034285791
15034295984
15034302576
15034309778
15034318628
15034326136
15034333826
15034342615
15034349146
15034357996
15034365015
15034373804
15034379663
15034386377
15034394922
15034404321
15034411218
15034420190
15034426233
15034434656
15034443323
15034449915
15034458154
15034468225
15034475488
15034483606
15034494653
15034500024
15034509790
15034514734
15034524072
15034532312
15034540246
15034547204
15034557336
15034563928
15034571862
15034576928
15034582971
15034588769
15034595239
15034598901
15034606958
15034610315
15034617517
15034620996
15034626977
15034634179
15034642663
15034647546
15034653039
15034657922
15034663354
15034667993
15034673913
15034680444
15034684960
15034692468
15034697778
15034703759
15034708154
15034714684
15034720239
15034727319
15034731286
15034737939
15034741174
15034747948
15034753197
15034758752
15034764672
15034770287
15034774926
15034778954
15034785729
15034791100
15034792870
15034801354
15034809350
15034814355
15034819665
15034823632
15034828515
15034833947
15034841637
15034848473
15034857445
15034866295
15034873375
15034879357
15034884118
15034895775
15034900414
15034910424
15034916588
15034928307
15034932946
15034941551
15034948082
15034957726
15034964806
15034971642
15034981468
15034989159
15034998558
15035004356
15035012840
15035019615
15035027916
15035034813
15035041161
15035046837
15035059288
15035067833
15035074486
15035079002
15035090172
15035095482
15035107323
15035117454
15035124717
15035129600
15035140770
15035148948
15035154991
15035162864
15035171837
15035180503
15035187828
15035194603
15035202476
15035209800
15035218345
15035224388
15035232872
15035240013
15035248374
15035256858
15035264366
15035271079
15035276756
15035286399
15035291160
15035300742
15035310203
15035318748
15035324302
15035332969
15035339561
15035348106
15035355552
15035363547
15035371055
15035378684
15035387229
15035394492
15035400596
15035407554
15035416038
15035423362
15035431907
15035440391
15035448752
15035455954
15035462058
15035470786
15035478720
15035483481
15035493918
15035499289
15035509238
15035516501
15035525290
15035531943
15035540122
15035546591
15035553122
15035560019
15035571494
15035578147
15035586997
15035592978
15035601340
15035609152
15035617575
15035624533
15035633566
15035642416
15035649252
15035655295
15035659933
15035671835
15035676413
15035686545
15035692892
15035703512
15035710470
15035718344
15035724997
15035732748
15035739218
15035747824
15035754294
15035763571
15035771200
15035782980
15035789877
15035798178
15035804892
15035813681
15035822958
15035832540
15035838644
15035846395
15035854086
15035861776
15035869528
15035875875
15035883688
15035891683
15035900045
15035902853
15035915121
15035922140
15035929830
15035934286
15035943746
15035953085
15035961568
15035964132
15035975851
15035983297
15035991353
15035999288
15036007894
15036016622
15036024251
15036029928
15036037313
15036045247
15036051412
15036059407
15036064962
15036073262
15036081075
15036085347
15036094869
15036102498
15036110616
15036115316
15036125630
15036135335
15036141744
15036149068
15036157308
15036164021
15036171285
15036180440
15036186849
15036195882
15036205159
15036212483
15036220601
15036226460
15036234517
15036242757
15036250142
15036258504
15036266316
15036274556
15036282918
15036288899
15036294575
15036300374
15036301900
15036309834
15036316548
15036321003
15036327229
15036331929
15036338765
15036344258
15036348958
15036355000
15036362690
15036366719
15036374043
15036377400
15036384785
15036390095
15036395466
15036399739
15036407490
15036413655
15036417744
15036423481
15036428913
15036433003
15036438801
15036446064
15036451252
15036458759
15036463520
15036470722
15036476093
15036481526
15036487446
15036493427
15036498921
15036505146
15036511311
15036517536
15036522846
15036530354
15036536091
15036542683
15036548420
15036554401
15036560078
15036567402
15036575580
15036585468
15036593952
15036602741
15036610431
15036619098
15036626056
15036634601
15036641010
15036649433
15036659076
15036665607
15036670368
15036680927
15036689289
15036695331
15036701862
15036711200
15036719806
15036728168
15036734638
15036741718
15036750141
15036756183
15036763996
15036772235
15036781329
15036790485
15036797015
15036806781
15036812885
15036820148
15036827960
15036834979
15036843585
15036853595
15036860248
15036864825
15036875201
15036879779
15036889850
15036896197
15036904742
15036913531
15036922259
15036929889
15036936664
15036945208
15036951251
15036960467
15036966510
15036974871
15036983660
15036990191
15036997332
15037005877
15037012774
15037020770
15037025469
15037035845
15037045062
15037051470
15037056475
15037067401
15037072527
15037082842
15037089434
15037096209
15037106585
15037114886
15037122027
15037130999
15037138140
15037145342
15037151263
15037158953
15037167925
15037177508
15037184466
15037192278
15037200579
15037207354
15037215166
15037219927
15037230791
15037239641
15037246416
15037250994
15037262041
15037268633
15037276445
15037283709
15037290911
15037300981
15037308245
15037315447
15037324114
15037331377
15037338579
15037344438
15037353716
15037362566
15037370867
15037377214
15037385210
15037393816
15037401872
15037408708
15037416765
15037424883
15037434099
15037442461
15037447526
15037456316
15037463640
15037473833
15037478960
15037489824
15037497270
15037507829
15037515947
15037523393
15037530168
15037536699
15037545610
15037551652
15037560563
15037569596
15037576921
15037585588
15037591691
15037600419
15037606401
15037615312
15037624101
15037631303
15037640336
15037646928
15037655473
15037661637
15037669511
15037674455
15037685075
15037695268
15037703629
15037706315
15037717606
15037722245
15037733292
15037739152
15037749039
15037756791
15037764420
15037771256
15037781327
15037788102
15037794083
15037800553
15037810868
15037818924
15037828507
15037835404
15037845231
15037851517
15037860184
15037867386
15037877884
15037884903
15037895340
15037901993
15037910172
15037918106
15037920731
15037932877
15037938370
15037947220
15037956803
15037965775
15037970352
15037979752
15037984634
15037994705
15038001358
15038009476
15038015884
15038022964
15038026321
15038033524
15038039200
15038043228
15038048965
15038053116
15038059524
15038065262
15038070389
15038076126
15038082596
15038087173
15038093094
15038097610
15038103958
15038110733
15038115860
15038121048
15038127517
15038132766
15038141311
15038148391
15038155044
15038161880
15038168594
15038176040
15038183303
15038188308
15038194473
15038199905
15038207901
15038213699
15038221145
15038225357
15038231094
15038236404
15038240676
15038246902
15038254531
15038260696
15038265762
15038272048
15038277297
15038283157
15038286636
15038294143
15038299148
15038307876
15038312576
15038322402
15038327590
15038336318
15038343642
15038352370
15038359572
15038368789
15038375930
15038384353
15038390273
15038399001
15038404921
15038412734
15038421401
15038430251
15038436721
15038445327
15038453627
15038456374
15038467665
15038472731
15038483413
15038488662
15038498244
15038505751
15038513869
15038521926
15038529189
15038535720
15038544509
15038555129
15038562331
15038567519
15038578993
15038586073
15038593764
15038603163
15038610609
15038617018
15038626967
15038633681
15038638808
15038650709
15038655958
15038665358
15038672804
15038680006
15038688551
15038696486
15038705275
15038712233
15038719374
15038728285
15038734633
15038742811
15038751783
15038754835
15038767164
15038774427
15038781507
15038790968
15038797499
15038805372
15038812391
15038820631
15038829969
15038837538
15038845045
15038852125
15038860975
15038867445
15038874525
15038883070
15038890455
15038898878
15038907423
15038915174
15038920423
15038933546
15038939039
15038949415
15038957777
15038967969
15038975477
15038984083
15038992261
15039000562
15039007154
15039015271
15039024732
15039034192
15039040662
15039050122
15039056592
15039061841
15039072950
15039078443
15039089063
15039097180
15039104871
15039112439
15039119580
15039128736
15039134534
15039141004
15039150891
15039157849
15039167005
15039173718
15039183240
15039192456
15039195325
15039206860
15039211926
15039222058
15039230359
15039239819
15039247449
15039256055
15039262524
15039271252
15039279919
15039282971
15039295239
15039304150
15039310925
15039319836
15039326367
15039334240
15039344006
15039351269
15039358410
15039365185
15039374951
15039382031
15039391613
15039400097
15039407788
15039414868
15039420056
15039431896
15039440991
15039447704
15039455395
15039462658
15039469982
15039480358
15039487927
15039494457
15039504162
15039512096
15039519360
15039528515
15039535473
15039544567
15039551220
15039559460
15039568615
15039574108
15039582592
15039590099
15039600780
15039608349
15039615856
15039622448
15039630932
15039640697
15039644054
15039656261
15039663829
15039672985
15039677990
15039688427
15039693676
15039703868
15039709300
15039719676
15039727489
15039735484
15039744762
15039752391
15039758800
15039766979
15039776561
15039784251
15039793163
15039800792
15039809276
15039815379
15039822642
15039824657
15039833995
15039838390
15039846690
15039851939
15039857799
15039863597
15039867686
15039870921
15039878306
15039881968
15039889720
15039895030
15039899119
15039903819
15039910838
15039914073
15039921641
15039925120
15039932872
15039939158
15039944590
15039949473
15039954478
15039960154
15039965831
15039972239
15039977305
15039982127
15039988536
15039994822
15040000560
15040007090
15040013621
15040019847
15040025767
15040032420
15040037730
15040044322
15040049265
15040055735
15040062205
15040067576
15040073374
15040080027
15040085642
15040091685
15040097666
15040108408
15040116282
15040126902
15040134837
15040143015
15040152048
15040160776
15040168040
15040172983
15040182688
15040187998
15040198618
15040203440
15040213205
15040220530
15040227793
15040233774
15040243235
15040251047
15040257883
15040266977
15040272898
15040280710
15040287851
15040296396
15040305002
15040313669
15040320139
15040328440
15040337168
15040343637
15040352243
15040358652
15040367807
15040375009
15040384226
15040391000
15040398569
15040405222
15040414621
15040421091
15040428781
15040436105
15040446176
15040450937
15040461984
15040471445
15040478341
15040487069
15040496835
15040505197
15040512277
15040520822
15040531137
15040540414
15040545724
15040556894
15040564279
15040574594
15040579293
15040589852
15040596932
15040605722
15040608895
15040621957
15040629586
15040635751
15040643441
15040651986
15040659371
15040666695
15040675485
15040682626
15040693124
15040699960
15040708199
15040714852
15040724251
15040730660
15040735787
15040745614
15040753792
15040762826
15040767525
15040775033
15040782113
15040790413
15040798226
15040806038
15040814278
15040822457
15040829720
15040838204
15040845284
15040853585
15040860054
15040867623
15040875069
15040883431
15040890389
15040897957
15040904793
15040913094
15040918404
15040927193
15040934029
15040941658
15040948555
15040956062
15040963142
15040971687
15040979561
15040987679
15040996407
15041004951
15041012337
15041019478
15041026070
15041034492
15041040901
15041049202
15041055977
15041064522
15041070930
15041079109
15041086372
15041095833
15041103767
15041115242
15041122322
15041134040
15041141487
15041150764
15041157356
15041165168
15041174385
15041182563
15041189582
15041199287
15041208442
15041216377
15041223396
15041232307
15041237251
15041247810
15041254829
15041264777
15041274787
15041283820
15041287177
15041299506
15041308295
15041316779
15041325385
15041333259
15041341682
15041349799
15041356330
15041364509
15041370368
15041377021
15041386908
15041394721
15041402961
15041410651
15041416938
15041425727
15041434333
15041441413
15041450873
15041457160
15041464362
15041470587
15041478949
15041485602
15041496344
15041503974
15041510810
15041515936
15041521308
15041526679
15041532965
15041535590
15041541449
15041546759
15041554999
15041560919
15041567938
15041572699
15041579779
15041585761
15041591864
15041597662
15041602362
15041607794
15041612372
15041617255
15041621649
15041627447
15041633673
15041639227
15041644110
15041651556
15041657233
15041663824
15041669195
15041675970
15041679449
15041687994
15041691290
15041699286
15041704718
15041711798
15041715460
15041723272
15041727545
15041735601
15041739813
15041748541
15041752996
15041761480
15041767218
15041775457
15041782782
15041787786
15041791387
15041800787
15041804632
15041811346
15041817022
15041823187
15041829778
15041836736
15041841619
15041847418
15041851080
15041858160
15041861944
15041875005
15041882574
15041887334
15041894537
15041901006
15041909246
15041916509
15041918829
15041930303
15041938360
15041944097
15041950994
15041958929
15041966131
15041972051
15041977361
15041983098
15041990301
15041996465
15042001287
15042006841
15042011907
15042016057
15042020574
15042027166
15042031011
15042038823
15042041997
15042049504
15042052922
15042060918
15042065923
15042071477
15042076665
15042082830
15042088994
15042093938
15042098760
15042106023
15042110539
15042116094
15042121282
15042128789
15042134038
15042139287
15042145207
15042148625
15042156438
15042160039
15042167302
15042174138
15042180363
15042184819
15042191106
15042194707
15042202275
15042207463
15042213505
15042219914
15042227421
15042230962
15042238286
15042243962
15042249638
15042254826
15042260136
15042265690
15042274785
15042285283
15042290898
15042296696
15042303288
15042308232
15042313115
15042323063
15042327946
15042331364
15042340153
15042344242
15042351689
15042355900
15042362309
15042367924
15042375370
15042380070
15042385990
15042392277
15042397404
15042401737
15042408268
15042415470
15042421269
15042425541
15042431095
15042437260
15042443058
15042448795
15042453617
15042458134
15042463993
15042472111
15042476444
15042483646
15042487247
15042494450
15042499516
15042503910
15042512577
15042519230
15042524845
15042532658
15042537968
15042544193
15042549015
15042556095
15042564091
15042569889
15042576847
15042581730
15042588871
15042592594
15042598148
15042603397
15042607670
15042615116
15042618717
15042626835
15042630069
15042636844
15042642337
15042647525
15042655094
15042661930
15042667484
15042671634
15042676212
15042682437
15042688053
15042694156
15042700199
15042706119
15042710880
15042717166
15042722171
15042728092
15042733035
15042737735
15042745548
15042750247
15042756351
15042761356
15042766299
15042772586
15042777164
15042783572
15042788211
15042794620
15042799625
15042806155
15042812381
15042816959
15042823184
15042827212
15042834170
15042840518
15042845401
15042851260
15042859012
15042862552
15042870608
15042875430
15042881289
15042886966
15042893741
15042897036
15042904300
15042909793
15042914248
15042918887
15042924563
15042930117
15042937136
15042942080
15042947512
15042952761
15042958316
15042963687
15042967959
15042975100
15042982058
15042986453
15042992556
15042997927
15043002505
15043007632
15043013003
15043018740
15043024172
15043031374
15043034792
15043041445
15043044802
15043051699
15043059329
15043065554
15043071352
15043078066
15043085207
15043092043
15043097353
15043102236
15043110110
15043117983
15043124880
15043130556
15043136172
15043142519
15043147585
15043154787
15043161135
15043166323
15043173525
15043178164
15043183779
15043189577
15043195864
15043200564
15043207766
15043212343
15043218508
15043222475
15043228457
15043233034
15043240358
15043244570
15043251711
15043256472
15043260012
15043268862
15043272768
15043278871
15043283632
15043291323
15043297609
15043304323
15043309084
15043314760
15043319277
15043325136
15043331117
15043336488
15043342592
15043349489
15043355592
15043360902
15043367189
15043371706
15043377382
15043383669
15043389894
15043395387
15043404298
15043407655
15043414369
15043419740
15043425172
15043430299
15043437501
15043443117
15043450624
15043453981
15043460328
15043464784
