15083405844
15083411581
15083417013
15083422751
15083428793
15083433981
15083439596
15083445395
15083452047
15083458578
15083464743
15083471395
15083476706
15083484213
15083491659
15083497518
15083503561
15083510336
15083518087
15083524557
15083530844
15083537618
15083543600
15083550924
15083556356
15083562826
15083570150
15083577169
15083583822
15083593527
15083602377
15083612447
15083625204
15083647359
15083654562
15083661703
15083669881
15083677389
15083685384
15083692708
15083698263
15083704610
15083711019
15083718160
15083723897
15083729024
15083736104
15083741597
15083748189
15083754598
15083759298
15083766561
15083771749
15083778951
15083784505
15083790425
15083795797
15083802449
15083808736
15083815145
15083821614
15083828084
15083834981
15083841084
15083847798
15083856221
15083862264
15083869527
15083875691
15083883260
15083890157
15083896260
15083904988
15083911946
15083918660
15083925252
15083931477
15083939473
15083947285
15083954121
15083960713
15083968220
15083974507
15083980916
15083987507
15083994221
15084001423
15084008687
15084014546
15084022419
15084030049
15084037922
15084045674
15084052876
15084058857
15084065754
15084073689
15084080891
15084087117
15084093647
15084101094
15084109638
15084116230
15084123860
15084130512
15084139363
15084145771
15084152058
15084160053
15084166706
15084175312
15084183491
15084189350
15084197590
15084203571
15084210407
15084217182
15084224018
15084230854
15084238239
15084245197
15084252033
15084259052
15084266620
15084273273
15084280414
15084289326
15084297382
15084303364
15084310749
15084318439
15084324543
15084332172
15084339740
15084345722
15084356159
15084362506
15084369831
15084378925
15084384113
15084391437
15084400409
15084407245
15084414325
15084421344
15084428424
15084435687
15084442462
15084448688
15084455280
15084462055
15084470599
15084477557
15084484210
15084490680
15084499774
15084503925
15084512286
15084520404
15084526813
15084533343
15084540424
15084547015
15084553790
15084561481
15084569171
15084577045
15084585040
15084592975
15084597796
15084608661
15084615436
15084624164
15084629290
15084638385
15084646808
15084653094
15084660601
15084668170
15084676776
15084684405
15084691912
15084698565
15084704730
15084713702
15084720599
15084727740
15084734454
15084749041
15084759234
15084766680
15084780108
15084789813
15084798235
15084803790
15084813921
15084820269
15084826739
15084831438
15084838030
15084842425
15084847552
15084853655
15084859637
15084864092
15084870745
15084875872
15084880816
15084886553
15084891314
15084896319
15084901568
15084909624
15084914629
15084920427
15084925493
15084929461
15084935137
15084940264
15084944780
15084948931
15084955706
15084959612
15084964617
15084970293
15084976091
15084982378
15084987078
15084990801
15084996416
15085001726
15085007280
15085012468
15085016741
15085022722
15085027788
15085032976
15085038042
15085043352
15085048479
15085053789
15085059770
15085064409
15085069353
15085075517
15085082048
15085090410
15085098344
15085105730
15085114030
15085119707
15085125261
15085136796
15085141923
15085150896
15085156755
15085166826
15085174760
15085181230
15085189103
15085196367
15085206682
15085214189
15085222490
15085230363
15085238542
15085246537
15085256364
15085262895
15085270524
15085278642
15085287126
15085296037
15085304215
15085313310
15085318315
15085326737
15085332414
15085343583
15085353593
15085360673
15085368974
15085376115
15085384965
15085392960
15085401261
15085411393
15085417069
15085428056
15085433488
15085443803
15085449479
15085458939
15085464677
15085475297
15085483658
15085489457
15085496842
15085503922
15085511734
15085519486
15085527115
15085534745
15085542252
15085548661
15085556107
15085565262
15085573014
15085580155
15085584854
15085595902
15085603592
15085610428
15085617447
15085626541
15085633804
15085639969
15085646439
15085655350
15085662186
15085670425
15085679337
15085686844
15085693619
15085701248
15085707046
15085714798
15085723831
15085728836
15085737808
15085745132
15085753006
15085761856
15085768814
15085776810
15085785354
15085793411
15085801895
15085810440
15085818069
15085826065
15085834060
15085842300
15085849380
15085861404
15085869949
15085878128
15085884475
15085893203
15085901321
15085909316
15085919937
15085927444
15085933792
15085940200
15085948135
15085954543
15085963210
15085969924
15085979446
15085986892
15085993057
15085999526
15086007156
15086015578
15086024001
15086031509
15086036819
15086046218
15086058486
15086066054
15086074843
15086081496
15086089614
15086098464
15086105117
15086115676
15086121779
15086130385
15086138381
15086146682
15086155410
15086163100
15086168288
15086177199
15086185500
15086196181
15086205275
15086214003
15086222975
15086230910
15086241286
15086248793
15086256850
15086264418
15086272292
15086280531
15086288344
15086297011
15086304396
15086310255
15086317458
15086327406
15086332106
15086341444
15086347914
15086356520
15086363234
15086370802
15086379530
15086386671
15086393141
15086398207
15086406691
15086416639
15086422438
15086429762
15086438673
15086444044
15086453199
15086458570
15086467482
15086475294
15086482801
15086490003
15086497389
15086505384
15086514295
15086521681
15086527052
15086531141
15086537184
15086543348
15086549146
15086554517
15086559400
15086564283
15086567884
15086576612
15086581556
15086586073
15086591810
15086598951
15086602979
15086608778
15086614820
15086621656
15086628004
15086633863
15086639478
15086644605
15086649549
15086655591
15086659437
15086665479
15086670484
15086675367
15086680799
15086685865
15086693311
15086698072
15086703504
15086708997
15086714490
15086719617
15086725049
15086730726
15086737500
15086743238
15086749341
15086753980
15086758374
15086767835
15086773450
15086779370
15086787122
15086790662
15086796521
15086802014
15086809155
15086814221
15086824719
15086832776
15086841565
15086849011
15086856152
15086865369
15086873059
15086883069
15086891736
15086900281
15086908887
15086916760
15086925427
15086934643
15086942395
15086951794
15086959851
15086970532
15086975598
15086987561
15086998730
15087003735
15087013623
15087018322
15087028332
15087035901
15087042920
15087049694
15087055249
15087063366
15087070507
15087076672
15087081311
15087091259
15087098706
15087106457
15087113537
15087119702
15087123974
15087131420
15087138500
15087147411
15087154980
15087163281
15087171703
15087178478
15087186535
15087196117
15087203197
15087209789
15087217968
15087227550
15087234142
15087241527
15087249218
15087256969
15087263378
15087271618
15087280041
15087288463
15087297558
15087305858
15087313793
15087322033
15087329540
15087337658
15087345958
15087354259
15087362072
15087370067
15087377513
15087385753
15087393260
15087404308
15087411266
15087419261
15087426525
15087434398
15087441661
15087449596
15087457774
15087466014
15087474620
15087482799
15087490123
15087498180
15087507030
15087512950
15087522472
15087531688
15087537913
15087545726
15087552562
15087560557
15087568431
15087576304
15087585643
15087591868
15087602549
15087610789
15087617808
15087626414
15087633311
15087641368
15087648997
15087656871
15087667552
15087673838
15087684397
15087691233
15087701975
15087708628
15087718150
15087726451
15087735850
15087741465
15087750926
15087759043
15087766734
15087774546
15087782053
15087789439
15087796641
15087804270
15087811045
15087818491
15087826304
15087834055
15087842295
15087846995
15087856333
15087863962
15087871103
15087878000
15087886118
15087892893
15087901926
15087908457
15087917063
15087924875
15087932871
15087941050
15087948313
15087955881
15087964426
15087972422
15087980722
15087987253
15087996164
15088002634
15088010935
15088020029
15088028574
15088036569
15088045114
15088053659
15088062082
15088070810
15088078989
15088087717
15088094186
15088102914
15088111764
15088120798
15088126230
15088136606
15088141794
15088151010
15088158151
15088166757
15088176950
15088185129
15088192453
15088200570
15088207162
15088218637
15088225778
15088235299
15088247262
15088254098
15088260263
15088267526
15088271920
15088277658
15088287118
15088290719
15088298165
15088304391
15088310433
15088316354
15088322457
15088328256
15088334237
15088339547
15088345223
15088351998
15088357797
15088363290
15088368783
15088374947
15088380624
15088387460
15088391549
15088398202
15088403085
15088407906
15088413460
15088420296
15088428597
15088436288
15088443185
15088447457
15088453377
15088459603
15088465279
15088470772
15088478707
15088484322
15088489327
15088494027
15088498482
15088504525
15088507760
15088514779
15088520272
15088524056
15088529488
15088536263
15088542916
15088548470
15088556771
15088564339
15088572274
15088579720
15088585030
15088593819
15088599190
15088607186
15088615181
15088622383
15088628731
15088635140
15088642403
15088649910
15088657173
15088664742
15088674568
15088680550
15088690315
15088696846
15088705086
15088711128
15088721260
15088729072
15088736946
15088744209
15088750618
15088758186
15088767097
15088773018
15088782112
15088790352
15088796516
15088803779
15088810371
15088817573
15088825691
15088835151
15088843818
15088851326
15088857978
15088867073
15088873664
15088881599
15088890449
15088898506
15088906440
15088914741
15088922004
15088928596
15088936225
15088944221
15088951606
15088959052
15088970405
15088977058
15088982001
15088991462
15088999580
15089009956
15089017097
15089026130
15089032661
15089039863
15089047980
15089057807
15089063910
15089072394
15089079535
15089090339
15089101569
15089111762
15089121283
15089130256
15089138190
15089146857
15089155646
15089162970
15089171942
15089180365
15089187506
15089193610
15089202887
15089210333
15089217230
15089223700
15089230658
15089238410
15089245306
15089254340
15089261420
15089269720
15089274725
15089283697
15089290594
15089298834
15089306708
15089315375
15089322882
15089329047
15089336127
15089343878
15089351019
15089357123
15089365484
15089373297
15089382086
15089388861
15089397284
15089403875
15089413641
15089420294
15089428778
15089435980
15089445379
15089453192
15089461126
15089468695
15089475836
15089482550
15089490545
15089500860
15089507574
15089515264
15089521978
15089531378
15089538702
15089543523
15089554388
15089562139
15089570745
15089578252
15089585210
15089591680
15089600103
15089608282
15089617071
15089626958
15089634527
15089642888
15089651800
15089660039
15089669317
15089675359
15089686162
15089692266
15089702214
15089714544
15089722051
15089727788
15089740361
15089745549
15089759099
15089768621
15089776006
15089784673
15089791204
15089800908
15089807927
15089815984
15089824529
15089832524
15089840032
15089848698
15089855595
15089863652
15089872929
15089878850
15089889897
15089895512
15089903691
15089908330
15089915105
15089920232
15089925908
15089931157
15089939274
15089945378
15089950078
15089955998
15089961674
15089966557
15089972294
15089976933
15089983647
15089986943
15089994267
15089999394
15090003422
15090008732
15090014409
15090017888
15090023503
15090028691
15090034245
15090040593
15090046635
15090052006
15090057255
15090063725
15090069706
15090075016
15090080754
15090085392
15090090641
15090095158
15090099674
15090104618
15090108647
15090113407
15090118839
15090123417
15090128178
15090132694
15090136601
15090141911
15090149357
15090154667
15090163212
15090169437
15090176212
15090183537
15090190861
15090197880
15090207584
15090215702
15090222660
15090229069
15090236759
15090243473
15090251591
15090259830
15090265751
15090275394
15090282169
15090290653
15090297550
15090303348
15090310856
15090318851
15090326480
15090333194
15090342472
15090348392
15090355167
15090362613
15090369266
15090376468
15090384342
15090392887
15090400638
15090408328
15090415714
15090423587
15090430911
15090438175
15090446109
15090453861
15090461795
15090469058
15090476505
15090482974
15090490115
15090500430
15090508487
15090517398
15090525394
15090532718
15090541018
15090550357
15090555728
15090564822
15090571963
15090582034
15090591189
15090600650
15090607974
15090615359
15090625369
15090633059
15090639529
15090648196
15090655520
15090663699
15090669741
15090677249
15090682986
15090691531
15090696841
15090705020
15090714480
15090721499
15090727419
15090734622
15090743350
15090749880
15090756411
15090764712
15090772280
15090780886
15090787234
15090794375
15090802309
15090809695
15090815676
15090823244
15090833559
15090841128
15090847414
15090854922
15090865114
15090870119
15090879580
15090887636
15090893984
15090901735
15090910341
15090917727
15090924807
15090930605
15090938539
15090946474
15090954409
15090961428
15090971559
15090979250
15090986269
15090992739
15091001039
15091007875
15091014650
15091024782
15091032045
15091037965
15091045656
15091054628
15091063112
15091069704
15091078065
15091087709
15091093019
15091100526
15091108522
15091116640
15091124086
15091131715
15091139528
15091147951
15091155885
15091164674
15091172059
15091179384
15091187562
15091195802
15091203370
15091210817
15091221070
15091228883
15091236329
15091244142
15091252076
15091258912
15091266297
15091274049
15091282228
15091289308
15091296632
15091303712
15091310548
15091320069
15091327332
15091336793
15091345216
15091353089
15091360780
15091370789
15091377869
15091384583
15091390992
15091398926
15091407899
15091417237
15091421937
15091430848
15091436890
15091445252
15091451233
15091458375
15091465210
15091473816
15091480408
15091489197
15091496766
15091502869
15091509034
15091517578
15091524903
15091531250
15091539246
15091542298
15091548767
15091553589
15091557678
15091562195
15091569031
15091572449
15091578797
15091581726
15091588196
15091591553
15091598389
15091603943
15091608460
15091613831
15091617859
15091623230
15091629150
15091634399
15091639893
15091644898
15091650085
15091653564
15091660461
15091664001
15091670776
15091675232
15091679748
15091685791
15091691101
15091695984
15091701660
15091706543
15091712402
15091717895
15091725952
15091730835
15091736084
15091742920
15091749573
15091754028
15091759948
15091771118
15091775757
15091782043
15091787292
15091794311
15091799133
15091804199
15091809631
15091812927
15091821960
15091828918
15091836547
15091844909
15091853576
15091860778
15091868347
15091874328
15091881591
15091889953
15091895934
15091905029
15091913329
15091922607
15091930480
15091936340
15091944457
15091953124
15091958923
15091967101
15091975158
15091982360
15091990295
15091997680
15092006164
15092013549
15092020873
15092031615
15092040709
15092049682
15092057311
15092064086
15092072814
15092082518
15092089660
15092098510
15092106261
15092113463
15092120726
15092128417
15092136046
15092142394
15092149291
15092156432
15092163329
15092172484
15092179686
15092186034
15092192015
15092200438
15092206420
15092213683
15092219969
15092229247
15092236021
15092242247
15092248534
15092257323
15092263792
15092271117
15092278868
15092287108
15092293028
15092302000
15092308775
15092314512
15092320738
15092329161
15092336973
15092344908
15092351317
15092360777
15092367369
15092372313
15092382444
15092390562
15092398558
15092406370
15092412413
15092420042
15092427488
15092434874
15092441832
15092449217
15092457579
15092466490
15092475706
15092483702
15092490476
15092497740
15092505430
15092512876
15092520628
15092528318
15092535886
15092543577
15092552000
15092559324
15092566282
15092572935
15092579832
15092587339
15092596555
15092602964
15092609922
15092618894
15092623655
15092633054
15092637998
15092649167
15092654477
15092663022
15092671323
15092677915
15092685666
15092692075
15092699826
15092708738
15092716672
15092724729
15092732480
15092739926
15092747251
15092755002
15092763303
15092772519
15092781247
15092791257
15092797605
15092805600
15092813901
15092822568
15092830136
15092836850
15092845151
15092853574
15092861813
15092869382
15092876645
15092883115
15092890439
15092900082
15092907773
15092914548
15092921445
15092928464
15092935849
15092942563
15092949338
15092957638
15092964962
15092971798
15092978634
15092986630
15092993649
15093000302
15093009335
15093016171
15093024533
15093032955
15093040829
15093048092
15093056027
15093062985
15093069515
15093074276
15093085629
15093093441
15093100155
15093109188
15093115292
15093123470
15093131832
15093136654
15093147762
15093156673
15093162533
15093171139
15093177059
15093184750
15093192501
15093197750
15093202816
15093208065
15093213436
15093218380
15093223629
15093228939
15093233333
15093238399
15093243648
15093250667
15093256038
15093261226
15093267208
15093270443
15093277645
15093282772
15093288204
15093294246
15093300228
15093305843
15093310176
15093314205
15093319759
15093326412
15093331356
15093335994
15093341182
15093346553
15093351497
15093356685
15093362239
15093367549
15093372493
15093378536
15093384395
15093390010
15093393916
15093399227
15093404659
15093409602
15093414851
15093422420
15093428157
15093433711
15093439632
15093445247
15093451289
15093456783
15093461726
15093468806
15093476619
15093484737
15093490108
15093499629
15093506221
15093515193
15093522029
15093527156
15093539241
15093548213
15093555598
15093563838
15093570308
15093578486
15093584285
15093593196
15093600764
15093608393
15093615840
15093623347
15093632441
15093637995
15093645869
15093653193
15093660761
15093669367
15093678767
15093684870
15093693110
15093700434
15093706782
15093713740
15093721735
15093729792
15093740107
15093746577
15093753779
15093760310
15093768000
15093776728
15093781672
15093792902
15093801142
15093807551
15093815302
15093823054
15093830378
15093836847
15093844599
15093853266
15093860895
15093869440
15093876825
15093883295
15093890619
15093898615
15093906366
15093912836
15093923029
15093929438
15093936457
15093944208
15093950678
15093960565
15093967645
15093974970
15093982599
15093991327
15093998468
15094006036
15094012628
15094020929
15094029169
15094034479
15094045099
15094050714
15094062067
15094066827
15094075616
15094082941
15094089960
15094097345
15094104547
15094112787
15094121148
15094129266
15094136529
15094143854
15094150323
15094156793
15094166436
15094175592
15094182367
15094189019
15094197503
15094203912
15094208612
15094220452
15094228509
15094237237
15094247247
15094253778
15094262322
15094270928
15094279595
15094285882
15094293755
15094302178
15094310601
15094320001
15094328362
15094335259
15094341058
15094351067
15094359368
15094366509
15094374322
15094382745
15094390801
15094397454
15094404778
15094413018
15094418755
15094427605
15094435906
15094445122
15094453240
15094459649
15094466546
15094472893
15094479729
15094485650
15094496086
15094502312
15094508293
15094516411
15094523064
15094531792
15094538079
15094546135
15094553887
15094562615
15094570122
15094580010
15094586907
15094594597
15094601067
15094608452
15094618706
15094625908
15094632011
15094640923
15094646843
15094655022
15094662834
15094670525
15094679191
15094686943
15094694206
15094701530
15094709831
15094717827
15094728203
15094736686
15094744743
15094753105
15094761039
15094769096
15094775322
15094783378
15094791130
15094799186
15094806388
15094816337
15094823112
15094831291
15094838676
15094846672
15094854667
15094862602
15094868034
15094873710
15094879264
15094883537
15094889762
15094895805
15094901481
15094907279
15094913444
15094920097
15094926017
15094932060
15094936942
15094942374
15094948112
15094953544
15094959281
15094964591
15094969535
15094975944
15094982291
15094989127
15094994681
15095000663
15095006949
15095016044
15095022025
15095028190
15095033927
15095040152
15095047416
15095053092
15095059745
15095063834
15095069388
15095074393
15095079520
15095084525
15095088431
15095093802
15095099234
15095104666
15095109671
15095115470
15095121085
15095126639
15095132376
15095138358
15095144156
15095150443
15095158011
15095166251
15095174429
15095182486
15095189078
15095196707
15095205191
15095211661
15095222281
15095230887
15095237296
15095243582
15095254141
15095260306
15095270743
15095276724
15095286185
15095292471
15095302115
15095310293
15095317068
15095325979
15095333853
15095342093
15095351370
15095358206
15095368033
15095373892
15095381399
15095389456
15095398306
15095406301
15095415274
15095423941
15095430410
15095440725
15095448232
15095456594
15095467336
15095476797
15095485464
15095497610
15095504934
15095513235
15095519766
15095528005
15095537710
15095546194
15095555776
15095562124
15095572866
15095581472
15095588186
15095596609
15095606069
15095611562
15095622243
15095628530
15095637136
15095646230
15095655019
15095663198
15095670461
15095677968
15095686696
15095692983
15095701894
15095709767
15095716603
15095723378
15095732472
15095743764
15095752309
15095757436
15095769338
15095775258
15095786733
15095791615
15095801015
15095806264
15095818166
15095825429
15095833302
15095840260
15095846303
15095853200
15095861378
15095867909
15095874013
15095886098
15095892628
15095902638
15095909047
15095916188
15095924183
15095934254
15095941578
15095950062
15095959828
15095965504
15095976674
15095982655
15095995655
15096000843
15096010670
15096018116
15096025929
15096031483
15096040821
15096047657
15096056629
15096064381
15096072010
15096079334
15096087025
15096094776
15096100697
15096108021
15096115223
15096122608
15096129993
15096137135
15096146290
15096152760
15096161671
15096166309
15096175220
15096181751
15096189747
15096196583
15096206104
15096212696
15096220386
15096227527
15096235523
15096244495
15096254261
15096258960
15096268055
15096275013
15096282581
15096290760
15096297473
15096303943
15096312061
15096320362
15096327930
15096334278
15096341907
15096348560
15096356067
15096375110
15096383960
15096392139
15096402454
15096411548
15096419849
15096428149
15096436145
15096443225
15096450610
15096457873
15096464892
15096472339
15096479236
15096485950
15096493152
15096500598
15096507617
15096515246
15096523059
15096530444
15096538134
15096545154
15096553271
15096560473
15096566272
15096574511
15096580554
15096588671
15096595141
15096601001
15096605822
15096610949
15096615771
15096621264
15096626086
15096629443
15096635363
15096641406
15096645800
15096650744
15096655139
15096659533
15096664050
15096669787
15096674487
15096680102
15096685168
15096690417
15096695117
15096701159
15096705798
15096711962
15096717455
15096722948
15096728442
15096735278
15096741015
15096744982
15096750292
15096756945
15096763232
15096769152
15096774218
15096780504
15096785998
15096792406
15096797533
15096803332
15096808581
15096814257
15096821581
15096825365
15096832873
15096837999
15096844042
15096849413
15096853869
15096859911
15096866015
15096872118
15096880297
15096889330
15096895189
15096904528
15096909716
15096920030
15096927233
15096935045
15096942308
15096950670
15096960436
15096967394
15096973680
15096986009
15096994615
15097006944
15097015794
15097026598
15097036241
15097043871
15097052537
15097058275
15097068407
15097073411
15097081834
15097089647
15097097703
15097107164
15097113695
15097123033
15097129503
15097137742
15097145128
15097155320
15097162339
15097170274
15097176927
15097184495
15097190660
15097200791
15097213975
15097224656
15097236436
15097244798
15097254502
15097262376
15097271043
15097278855
15097286607
15097295579
15097304002
15097311814
15097318711
15097326340
15097334641
15097339524
15097347642
15097357285
15097363633
15097371873
15097377549
15097384995
15097392624
15097399949
15097409348
15097415330
15097424180
15097431565
15097438706
15097446030
15097452805
15097462387
15097469712
15097477707
15097486008
15097493454
15097499741
15097507065
15097513657
15097521164
15097529953
15097537705
15097545273
15097552597
15097559799
15097567185
15097574021
15097581162
15097589279
15097595932
15097604233
15097613022
15097617844
15097627792
15097632614
15097640243
15097648117
15097658432
15097664413
15097675827
15097681869
15097691086
15097699203
15097707382
15097715683
15097723312
15097731491
15097738083
15097745529
15097754379
15097762069
15097770736
15097777206
15097785690
15097795578
15097801254
15097811203
15097819808
15097826339
15097834518
15097842575
15097850570
15097858688
15097866744
15097873214
15097880416
15097889083
15097896285
15097905990
15097913131
15097921249
15097928268
15097938705
15097944930
15097952987
15097961532
15097968062
15097978988
15097985946
15097996078
15098002486
15098012923
15098020858
15098028548
15098037154
15098046920
15098055953
15098064315
15098074080
15098082442
15098090926
15098099715
15098108016
15098116805
15098125411
15098132796
15098141280
15098149092
15098158553
15098164473
15098173567
15098181685
15098188765
15098194746
15098205244
15098215681
15098222823
15098230025
15098235457
15098242232
15098251082
15098258040
15098267927
15098272932
15098282271
15098287276
15098294478
15098303328
15098308821
15098315840
15098324873
15098331343
15098339766
15098344221
15098350325
15098355818
15098360579
15098365828
15098371687
15098377607
15098382063
15098388411
15098393721
15098399763
15098405195
15098408552
15098414472
15098420271
15098425825
15098430952
15098437116
15098441389
15098447309
15098452131
15098456465
15098466474
15098470686
15098476667
15098482038
15098487714
15098493452
15098499067
15098504377
15098508711
15098514936
15098521223
15098525922
15098531477
15098536359
15098541181
15098546186
15098552473
15098559675
15098566328
15098571210
15098577009
15098581708
15098588788
15098596540
15098601728
15098610395
15098617231
15098621503
15098628217
15098634259
15098642072
15098651227
15098656049
15098668439
15098675824
15098681806
15098692426
15098700055
15098707013
15098720868
15098727033
15098740155
15098753278
15098764508
15098772748
15098780316
15098793134
15098803937
15098818280
15098843915
15098857464
15098867596
15098879132
15098888775
15098899029
15098908001
15098918438
15098929730
15098939190
15098946392
15098953656
15098963910
15098973370
15098983258
15098993389
15099002423
15099012432
15099023113
15099032696
15099043011
15099050518
15099061260
15099071941
15099082012
15099090130
15099104351
15099113079
15099121929
15099131268
15099141277
15099152813
15099160931
15099170452
15099182171
15099190166
15099199993
15099206829
15099215191
15099225261
15099231304
15099243084
15099248638
15099260051
15099268962
15099276653
15099286785
15099299175
15099308025
15099317851
15099327617
15099337627
15099347392
15099357219
15099366924
15099376933
15099385906
15099396220
15099405803
15099415935
15099428630
15099439555
15099447307
15099457439
15099470195
15099476787
15099487590
15099499492
15099508037
15099518107
15099525920
15099534404
15099547465
15099558085
15099572795
15099587870
15099601115
15099616557
15099630961
15099647013
15099663126
15099677775
15099697672
15099719401
15099743326
15099760538
15099769510
15099777750
15099785074
15099794474
15099811747
15099826090
15099841898
15099857340
15099873209
15099883280
15099892862
15099902323
15099913736
15099922586
15099931742
15099940164
15099949930
15099957987
15099966837
15099973978
15099982034
15099989420
15099997476
15100005045
15100014810
15100022806
15100035562
15100047647
15100056314
15100065713
15100074563
15100083719
15100093789
15100104959
15100114785
15100125650
15100137491
15100146707
15100156228
15100166421
15100175637
15100186380
15100194680
15100205484
15100214822
15100223916
15100235024
15100242837
15100253762
15100262063
15100274819
15100283975
15100293679
15100300698
15100312905
15100324013
15100335427
15100344216
15100356057
15100366616
15100377114
15100389138
15100399331
15100411171
15100420571
15100430703
15100441994
15100450600
15100461831
15100469094
15100477578
15100485451
15100493325
15100499184
15100508461
15100517494
15100523781
15100534218
15100540688
15100551064
15100560707
15100569679
15100577492
15100587807
15100594826
15100600929
15100605568
15100611366
15100614845
15100622292
15100626076
15100631874
15100637306
15100641457
15100645912
15100652870
15100657814
15100661537
15100666420
15100670936
15100675453
15100679909
15100685585
15100690834
15100694801
15100699562
15100704262
15100710426
15100715065
15100719215
15100724525
15100728492
15100734291
15100741554
15100748146
15100753456
15100761085
15100767433
15100774940
15100781166
15100787757
15100794227
15100799903
15100808753
15100815162
15100823158
15100831092
15100838233
15100844642
15100850990
15100859840
15100868202
15100875465
15100884010
15100891029
15100896888
15100904456
15100914710
15100922828
15100929298
15100937659
15100944556
15100950111
15100958594
15100964515
15100972205
15100980140
15100987952
15100995704
15101002784
15101010474
15101019080
15101028907
15101036475
15101044532
15101054541
15101061927
15101070349
15101076026
15101083350
15101090491
15101097510
15101108496
15101115454
15101121009
15101129187
15101137671
15101145056
15101151160
15101158545
15101168555
15101176367
15101183264
15101190100
15101198645
15101207007
15101213599
15101221655
15101231848
15101240881
15101247534
15101255224
15101261999
15101269995
15101278540
15101283606
15101293554
15101300696
15101307104
15101314856
15101321814
15101329687
15101334814
15101343969
15101353491
15101359961
15101366980
15101373877
15101381384
15101389624
15101396459
15101402258
15101412695
15101419042
15101425939
15101433813
15101440771
15101448522
15101455419
15101462072
15101469518
15101476110
15101482641
15101491430
15101502294
15101509801
15101517309
15101525121
15101533300
15101541234
15101548986
15101556310
15101564001
15101571630
15101579381
15101588720
15101594274
15101603429
15101609105
15101619115
15101624303
15101634801
15101643468
15101650609
15101657872
15101664769
15101674108
15101680944
15101689794
15101694921
15101704442
15101711461
15101719274
15101726171
15101736058
15101741429
15101751866
15101756688
15101765111
15101773167
15101783116
15101790685
15101798741
15101806309
15101814793
15101822118
15101831822
15101840428
15101846593
15101853917
15101863316
15101868626
15101877232
15101884373
15101891881
15101899449
15101907383
15101914219
15101923069
15101931065
15101938939
15101946019
15101954869
15101963902
15101976536
15101985142
15101993626
15102004978
15102014500
15102021519
15102029270
15102036167
15102043980
15102050144
15102057713
15102064426
15102072483
15102080051
15102089207
15102094028
15102102329
15102106602
15102111423
15102116001
15102119419
15102127964
15102133945
15102138767
15102143223
15102149326
15102153171
15102158848
15102164585
15102169712
15102174839
15102180027
15102184177
15102190220
15102194919
15102198459
15102204624
15102211765
15102216465
15102220615
15102228122
15102232090
15102237583
15102241794
15102246677
15102252048
15102257785
15102263217
15102268222
15102272678
15102279087
15102284885
15102288425
15102293308
15102299045
15102305820
15102311435
15102316623
15102321079
15102327426
15102332797
15102337497
15102340976
15102348972
15102355502
15102360385
15102365268
15102370883
15102375034
15102382236
15102389255
15102395480
15102405185
15102411105
15102420016
15102426181
15102435580
15102441379
15102449008
15102457309
15102466281
15102474399
15102481357
15102492709
15102501071
15102508883
15102515048
15102522311
15102531955
15102539889
15102548129
15102555087
15102561801
15102570163
15102576937
15102586642
15102594577
15102602145
15102611361
15102618380
15102626742
15102635104
15102647555
15102658480
15102671298
15102680880
15102689730
15102697665
15102703280
15102717501
15102727511
15102733553
15102741793
15102749727
15102757845
15102764315
15102772310
15102777254
15102787630
15102792757
15102801729
15102808870
15102816073
15102823275
15102831575
15102840425
15102846712
15102853731
15102862215
15102869112
15102877962
15102884310
15102892183
15102900728
15102907625
15102916597
15102925081
15102931368
15102939058
15102947115
15102952120
15102959688
15102967622
15102976473
15102983858
15102992158
15102999116
15103007722
15103015535
15103023225
15103029512
15103035249
15103045503
15103053621
15103059724
15103068086
15103076448
15103084443
15103091707
15103099580
15103108186
15103115754
15103121858
15103130281
15103138887
15103145173
15103158296
15103168367
15103176972
15103185029
15103193147
15103198701
15103210053
15103214692
15103223298
15103233857
15103241059
15103251679
15103258881
15103266755
15103276887
15103284150
15103291352
15103301423
15103309357
15103318269
15103325410
15103334992
15103342255
15103351349
15103357880
15103366425
15103374238
15103382050
15103389191
15103398468
15103405915
15103413239
15103420746
15103428742
15103437287
15103447419
15103454865
15103462494
15103470307
15103480072
15103488678
15103496735
15103506806
15103514435
15103523590
15103530243
15103537384
15103544220
15103551117
15103560822
15103566559
15103573639
15103582794
15103587128
15103595367
15103600189
15103611481
15103619354
15103625030
15103632416
15103638336
15103646942
15103653107
15103661407
15103670257
15103677643
15103684295
15103691803
15103698272
15103704986
15103711700
15103720855
15103729339
15103734588
15103743011
15103750457
15103759613
15103767547
15103775787
15103783477
15103789276
15103796112
15103801422
15103806732
15103810821
15103817413
15103822845
15103828643
15103835906
15103841338
15103847625
15103851592
15103856963
15103863982
15103869292
15103875091
15103880767
15103884246
15103891021
15103895904
15103902129
15103906463
15103913177
15103918365
15103924590
15103931914
15103937469
15103941802
15103948638
15103953887
15103960235
15103966887
15103972259
15103978545
15103983733
15103988738
15103995513
15104001677
15104007110
15104012603
15104020293
15104026458
15104032988
15104039092
15104044707
15104050750
15104057341
15104061919
15104069670
15104077483
15104087859
15104099883
15104112395
15104124175
15104131499
15104141997
15104147185
15104156401
15104169218
15104178069
15104184660
15104191801
15104202483
15104211027
15104219145
15104227812
15104236296
15104244963
15104254301
15104263029
15104269011
15104279020
15104286039
15104293242
15104302153
15104311247
15104319548
15104327238
15104335051
15104341764
15104351652
15104359587
15104368009
15104375151
15104382780
15104392973
15104400480
15104410551
15104418669
15104428312
15104435819
15104445036
15104452177
15104461210
15104469205
15104478056
15104485502
15104493253
15104501676
15104510648
15104517667
15104525541
15104535062
15104544279
15104549405
15104559110
15104563810
15104573575
15104581266
15104591031
15104600370
15104606961
15104615445
15104623014
15104629422
15104636930
15104647123
15104655789
15104664334
15104670987
15104678372
15104686673
15104694425
15104702909
15104713590
15104723660
15104732083
15104740018
15104746854
15104753934
15104764859
15104772244
15104779752
15104787747
15104796170
15104802090
15104809109
15104817959
15104829251
15104839261
15104850308
15104859219
15104867886
15104877530
15104886380
15104894192
15104902859
15104913968
15104919094
15104928677
15104938015
15104944607
15104953823
15104961941
15104970425
15104979031
15104986172
15104994229
15105002407
15105012173
15105019558
15105028103
15105036770
15105044827
15105054592
15105061977
15105069790
15105080898
15105088222
15105094692
15105104763
15105109402
15105119594
15105128139
15105136806
15105143764
15105151333
15105156521
15105163784
15105170925
15105180507
15105188991
15105196071
15105204006
15105210292
15105218715
15105226101
15105235927
15105243557
15105251674
15105259059
15105265102
15105272670
15105280117
15105288417
15105296169
15105304042
15105311488
15105318691
15105325954
15105334255
15105340175
15105347621
15105358730
15105367580
15105375026
15105384425
15105393642
15105400844
15105409083
15105417628
15105423427
15105429835
15105437099
15105442042
15105447841
15105454188
15105459071
15105465541
15105472133
15105478236
15105482997
15105488063
15105494960
15105501246
15105507838
15105513758
15105518336
15105525782
15105532008
15105540675
15105546107
15105553492
15105562281
15105568995
15105575282
15105580470
15105589869
15105598292
15105605494
15105610926
15105617335
15105622279
15105627589
15105633082
15105639613
15105644862
15105652796
15105658961
15105665003
15105671412
15105678248
15105683985
15105690211
15105696802
15105701319
15105706507
15105714136
15105722803
15105731470
15105740015
15105748926
15105757105
15105765040
15105772974
15105784266
15105792505
15105800440
15105810816
15105818567
15105825525
15105832605
15105839746
15105847193
15105856470
15105864221
15105870447
15105881677
15105889978
15105897241
15105904993
15105912256
15105918909
15105926050
15105934595
15105944299
15105950586
15105959009
15105967554
15105972559
15105982935
15105990381
15106000268
15106009241
15106016382
15106023828
15106031579
15106038232
15106044885
15106055200
15106062829
15106069299
15106076562
15106085290
15106093042
15106103601
15106111291
15106122216
15106131128
15106138391
15106145654
15106152551
15106159204
15106166040
15106172753
15106181970
15106190942
15106198327
15106203820
15106210717
15106218163
15106224877
15106232751
15106240685
15106252038
15106260522
15106272790
15106282494
15106288293
15106300378
15106308556
15106317223
15106328637
15106334374
15106344323
15106351403
15106361229
15106369286
15106375756
15106384667
15106392540
15106399865
15106404503
15106413292
15106421654
15106430992
15106438805
15106447045
15106452965
15106461388
15106467552
15106475670
15106485558
15106493187
15106499779
15106507408
15106514732
15106524376
15106531639
15106542015
15106549217
15106558678
15106568687
15106575340
15106585533
15106593162
15106603844
15106611168
15106618004
15106625145
15106631676
15106639000
15106650474
15106659569
15106667198
15106674583
15106681663
15106689842
15106697715
15106709068
15106719993
15106727317
15106734947
15106745140
15106752525
15106761192
15106769371
15106778099
15106787803
15106795982
15106805259
15106812339
15106819602
15106827476
15106837058
15106844505
15106852500
15106861655
15106871665
15106880393
15106886680
15106897666
15106903220
15106914634
15106922263
15106930015
15106938132
15106946067
15106954429
15106961631
15106969016
15106976767
15106986106
15106997519
15107007712
15107018698
15107027182
15107034323
15107042319
15107051108
15107063864
15107071738
15107078696
15107082480
15107089255
15107095664
15107102133
15107107260
15107112753
15107120200
15107125571
15107129172
15107134543
15107139731
15107145834
15107151389
15107157797
15107166891
15107172324
15107175742
15107181357
15107187277
15107192953
15107197287
15107205282
15107210043
15107216818
15107222189
15107228293
15107233298
15107239706
15107243551
15107250754
15107257467
15107262472
15107268271
15107274313
15107280111
15107286825
15107291464
15107297995
15107303854
15107308981
15107314962
15107321432
15107327047
15107332235
15107340658
15107347128
15107352621
15107362570
15107370138
15107378073
15107387228
15107395101
15107403280
15107411215
15107419576
15107425558
15107433675
15107441488
15107449606
15107457967
15107468038
15107474264
15107485433
15107492147
15107501363
15107510091
15107519674
15107525960
15107537618
15107545125
15107552144
15107559957
15107569173
15107576925
15107583822
15107591207
15107599019
15107608297
15107615255
15107622640
15107629537
15107638265
15107645833
15107654744
15107662618
15107676656
15107685567
15107694600
15107704732
15107712056
15107723103
15107729573
15107739766
15107746053
15107757283
15107765340
15107771565
15107777302
15107786885
15107795125
15107801411
15107809224
15107818806
15107826130
15107832478
15107840352
15107851765
15107859334
15107867634
15107874775
15107881184
15107888936
15107897725
15107904866
15107914814
15107922261
15107928974
15107938191
15107945637
15107953938
15107961445
15107968586
15107979695
15107988484
15107995625
15108002522
15108009968
15108018025
15108025349
15108034016
15108042316
15108048664
15108056110
15108064899
15108073261
15108079060
15108086628
15108097309
15108107258
15108113911
15108122822
15108129291
15108137287
15108143574
15108151630
15108158649
15108167377
15108177570
15108185444
15108193256
15108202228
15108210590
15108217121
15108227130
15108234149
15108243793
15108252765
15108260028
15108270404
15108279376
15108287860
15108295734
15108303180
15108312152
15108320758
15108327411
15108334369
15108343951
15108354266
15108363361
15108370013
15108377765
15108387530
15108395770
15108404315
15108412433
15108420489
15108429095
15108437579
15108446429
15108455157
15108468585
15108476886
15108485675
15108494098
15108505267
15108513751
15108522967
15108531085
15108539324
15108547564
15108556780
15108565447
15108572894
15108581256
15108589556
15108598284
15108606890
15108613055
15108623797
15108629961
15108640032
15108645647
15108657305
15108664385
15108671892
15108682024
15108690447
15108698077
15108706560
15108715166
15108724566
15108733660
15108741900
15108748797
15108757464
15108765398
15108775896
15108781023
15108787371
15108792925
15108798113
15108804338
15108809954
15108815142
15108821855
15108829668
15108835833
15108841692
15108847368
15108854326
15108860002
15108864763
15108871538
15108876116
15108882097
15108888567
15108895830
15108901384
15108910234
15108915300
15108921526
15108928301
15108933611
15108937944
15108945329
15108951616
15108956926
15108961259
15108968034
15108972673
15108979875
15108984697
15108989702
15108994829
15108999895
15109005266
15109011613
15109017839
15109024370
15109029802
15109034562
15109040544
15109045915
15109051835
15109058976
15109065812
15109072526
15109080278
15109089433
15109097490
15109106218
15109114885
15109122148
15109133744
15109142167
15109150590
15109159013
15109169816
15109179154
15109187821
15109196977
15109206742
15109213822
15109221940
15109229935
15109237321
15109245133
15109253129
15109261063
15109270219
15109277848
15109285538
15109293290
15109300919
15109308549
15109319352
15109327286
15109334244
15109341507
15109350113
15109357804
15109363419
15109370743
15109379593
15109388565
15109395157
15109402665
15109412247
15109421036
15109427811
15109434647
15109444046
15109451554
15109457840
15109468277
15109476456
15109483597
15109491837
15109500504
15109509476
15109516678
15109525040
15109534927
15109542435
15109552505
15109560074
15109567032
15109577774
15109584244
15109592789
15109602127
15109611587
15109621719
15109628860
15109636062
15109644302
15109653274
15109660476
15109667984
15109676956
15109686721
15109695144
15109702713
15109711990
15109720230
15109730789
15109739273
15109746475
15109756729
15109766433
15109772048
15109779678
15109789565
15109798049
15109806899
15109814224
15109822707
15109830154
15109837783
15109846572
15109852676
15109859878
15109866714
15109873977
15109882217
15109887771
15109897170
15109905349
15109912490
15109923964
15109932692
15109943618
15109949782
15109958999
15109967971
15109979384
15109986769
15109994094
15110002883
15110011916
15110020766
15110029250
15110038893
15110046523
15110053969
15110063552
15110070021
15110081191
15110088454
15110097365
15110105483
15110112441
15110121718
15110128676
15110136061
15110143019
15110150465
15110158888
15110168043
15110176039
15110183790
15110192763
15110198134
15110206618
15110214674
15110222975
15110232252
15110239149
15110248121
15110255812
15110264662
15110273695
15110281996
15110291273
15110300550
15110309034
15110315077
15110322096
15110333082
15110339735
15110347120
15110354139
15110364515
15110370436
15110383192
15110391065
15110399976
15110408765
15110418836
15110427930
15110435133
15110445875
15110452772
15110457716
15110468641
15110474500
15110479749
15110485853
15110492444
15110498487
15110503675
15110508985
15110515760
15110520460
15110527173
15110551893
15110560254
15110565137
15110574903
15110580274
15110586011
15110590162
15110596814
15110602491
15110608106
15110614514
15110620923
15110627027
15110633130
15110639234
15110646619
15110651135
15110656507
15110662061
15110667127
15110671033
15110677319
15110683911
15110689099
15110693189
15110698438
15110702588
15110707654
15110713147
15110717114
15110723401
15110730725
15110736340
15110742810
15110749158
15110756055
15110761731
15110769055
15110776868
15110782605
15110788830
15110794568
15110802930
15110811780
15110818921
15110827771
15110834546
15110840893
15110849377
15110855603
15110862317
15110870617
15110877758
15110887219
15110894543
15110900036
15110908764
15110914990
15110923718
15110930249
15110937084
15110946728
15110952343
15110960461
15110966564
15110976147
15110985363
15110993298
15111000622
15111009533
15111017162
15111023571
15111030895
15111040417
15111049328
15111056408
15111064526
15111071422
15111078686
15111086193
15111094372
15111104137
15111113292
15111120128
15111126903
15111134777
15111142101
15111150097
15111159923
15111165905
15111173717
15111180248
15111188732
15111196300
15111205883
15111213695
15111223766
15111231456
15111237865
15111245311
15111253124
15111262218
15111274120
15111282787
15111291271
15111298473
15111306834
15111315990
15111323070
15111328929
15111340404
15111348155
15111355601
15111363536
15111370921
15111379527
15111387218
15111395152
15111403453
15111412669
15111417979
15111426524
15111433604
15111441356
15111448619
15111456553
15111464061
15111472178
15111479625
15111489085
15111496897
15111502696
15111510020
15111519541
15111529490
15111536631
15111544993
15111551951
15111559397
15111566111
15111573863
15111582408
15111592417
15111600108
15111608469
15111615061
15111621775
15111631480
15111639170
15111648630
15111656443
15111663950
15111672922
15111681345
15111688608
15111699106
15111706064
15111714182
15111721262
15111728464
15111735178
15111742624
15111753061
15111758860
15111768564
15111774668
15111782785
15111789682
15111798777
15111806894
15111815927
15111824839
15111830637
15111838510
15111846384
15111854318
15111861826
15111873300
15111880258
15111886606
15111894357
15111902353
15111910043
15111919504
15111928476
15111935190
15111942453
15111949594
15111957529
15111964303
15111971750
15111979806
15111993661
15112002328
15112012704
15112019235
15112029916
15112039193
15112046151
15112051950
15112058114
15112065255
15112069650
15112074594
15112081369
15112087655
15112093759
15112098092
15112104501
15112110604
15112116586
15112122506
15112127816
15112135629
15112141488
15112147286
15112153573
15112159249
15112164987
15112169381
15112175729
15112183602
15112188851
15112194833
15112199899
15112205453
15112210275
15112216134
15112222359
15112228402
15112233590
15112239632
15112245858
15112251656
15112257577
15112263131
15112267953
15112274361
15112281747
15112285897
15112291390
15112296883
15112303414
15112308236
15112314339
15112319771
15112326607
15112333077
15112340157
15112349129
15112355782
15112362313
15112370797
15112378426
15112388314
15112395699
15112403633
15112411141
15112418282
15112427498
15112435250
15112443367
15112452278
15112459908
15112468453
15112474373
15112485054
15112492256
15112501167
15112512825
15112520576
15112526985
15112534248
15112540901
15112548103
15112557930
15112566292
15112574776
15112583076
15112590217
15112598091
15112606270
15112615791
15112624702
15112631599
15112641121
15112648201
15112656746
15112663948
15112675605
15112690010
15112699226
15112708198
15112716865
15112725227
15112734992
15112740791
15112748054
15112759223
15112766303
15112776374
15112783088
15112789192
15112801704
15112810188
15112818244
15112825874
15112832893
15112841682
15112848640
15112856208
15112862922
15112872260
15112878852
15112886176
15112893073
15112900275
15112906684
15112914313
15112921210
15112931586
15112940497
15112948188
15112953193
15112963324
15112970832
15112978522
15112985419
15112996588
15113005805
15113014594
15113023078
15113030158
15113038153
15113045477
15113055487
15113064032
15113069464
15113077582
15113084967
15113094916
15113100470
15113110846
15113119818
15113128119
15113137213
15113145636
15113154486
15113160528
15113169501
15113177130
15113187018
15113195013
15113200873
15113210333
15113216070
15113224676
15113233160
15113239264
15113248114
15113256048
15113262335
15113271734
15113279303
15113284979
15113297003
15113305120
15113310552
15113324102
15113332525
15113340704
15113345403
15113353887
15113362432
15113370245
15113378912
15113387640
15113395574
15113402166
15113410589
15113417303
15113425298
15113435979
15113444280
15113452764
15113462102
15113471868
15113480901
15113489202
15113498235
15113509710
15113516485
15113524968
15113537603
15113544866
15113552739
15113562932
15113568242
15113578313
15113585271
15113593694
15113601201
15113607488
15113615544
15113622624
15113631719
15113641606
15113647893
15113655461
15113662297
15113672002
15113683476
15113692632
15113702275
15113708867
15113716985
15113727666
15113734318
15113741460
15113746953
15113753117
15113759404
15113765324
15113770634
15113776189
15113783452
15113789677
15113795903
15113800053
15113806340
15113810795
15113816533
15113822575
15113829472
15113835881
15113841130
15113845585
15113852482
15113858708
15113866215
15113872441
15113880070
15113885807
15113890812
15113894780
15113902592
15113906681
15113914738
15113920902
15113925846
15113932072
15113937504
15113943302
15113948918
15113955448
15113961552
15113966496
15113973148
15113981693
15113986271
15113993473
15113999699
15114007877
15114011784
15114018864
15114026615
15114034306
15114042118
15114050480
15114059086
15114065922
15114075077
15114084110
15114091434
15114100162
15114108585
15114117252
15114126407
15114132023
15114142276
15114151676
15114159427
15114169010
15114178104
15114183414
15114193912
15114202823
15114211429
15114219547
15114227420
15114236514
15114244266
15114252078
15114262332
15114270572
15114278018
15114285831
15114295596
15114302066
15114311343
15114320010
15114328616
15114338565
15114344913
15114354861
15114361392
15114370608
15114377078
15114385257
15114396792
15114403018
15114414126
15114423770
15114436465
15114445437
15114452761
15114461551
15114468814
15114477481
15114486697
15114494693
15114501834
15114511355
15114518496
15114527590
15114534976
15114544009
15114551089
15114560977
15114568118
15114576663
15114583926
15114593752
15114601138
15114608889
15114618410
15114626528
15114633425
15114642336
15114651614
15114659548
15114666018
15114674257
15114681948
15114690249
15114699343
15114707461
15114714602
15114722902
15114732790
15114740908
15114748049
15114756228
15114766481
15114774660
15114782350
15114790468
15114798464
15114807131
15114816469
15114822573
15114833193
15114841615
15114849184
15114857729
15114865602
15114874147
15114881838
15114889894
15114900087
15114908998
15114916078
15114924257
15114931398
15114938722
15114949159
15114956422
15114965089
15114972352
15114981935
15114989076
15114998292
15115006410
15115017274
15115024782
15115032960
15115042848
15115051393
15115059022
15115066957
15115076844
15115086976
15115093568
15115102540
15115111878
15115119996
15115126466
15115135743
15115142274
15115150636
15115160523
15115166383
15115176637
15115182801
15115193177
15115199464
15115208680
15115216859
15115225953
15115232056
15115242493
15115250916
15115257813
15115266175
15115274903
15115282960
15115291382
15115299439
15115308777
15115317017
15115324158
15115332459
15115339417
15115346619
15115356079
15115363343
15115373474
15115378846
15115388611
15115395813
15115405579
15115414917
15115422425
15115429688
15115437866
15115446961
15115456116
15115463989
15115472351
15115478638
15115488525
15115499023
15115505554
15115516479
15115524353
15115530945
15115538635
15115544983
15115551391
15115555664
15115561279
15115568481
15115572143
15115578796
15115584900
15115589477
15115596618
15115602234
15115608032
15115614074
15115619995
15115628357
15115634094
15115640014
15115645813
15115650634
15115656189
15115662658
15115668335
15115673461
15115679138
15115685607
15115691650
15115697631
15115701416
15115708984
15115715270
15115721313
15115727050
15115732299
15115737914
15115746215
15115753845
15115762512
15115769897
15115774596
15115780212
15115787414
15115793823
15115800231
15115805907
15115811889
15115817931
15115824340
15115829833
15115836242
15115842895
15115849853
15115857360
15115865539
15115872558
15115880919
15115889647
15115895629
15115903014
15115911376
15115919127
15115927550
15115935302
15115941100
15115950255
15115956725
15115966185
15115973204
15115981200
15115990294
15115998168
15116005492
15116014037
15116023314
15116031554
15116038390
15116048338
15116055602
15116063719
15116070616
15116080504
15116087706
15116098082
15116106322
15116112852
15116120665
15116130369
15116137511
15116147459
15116154722
15116163573
15116170897
15116181334
15116189390
15116199217
15116207396
15116214903
15116221800
15116231566
15116239561
15116248594
15116256712
15116263975
15116271299
15116281736
15116289854
15116298338
15116306455
15116314512
15116322752
15116329832
15116339903
15116348081
15116356199
15116363767
15116371824
15116380003
15116390379
15116398069
15116406370
15116413999
15116422178
15116431394
15116439451
15116448911
15116457212
15116465330
15116473447
15116480771
15116488645
15116496457
15116504575
15116513852
15116521116
15116530698
15116540158
15116546933
15116553281
15116566648
15116575742
15116583493
15116592527
15116601926
15116607114
15116615720
15116627316
15116634702
15116642819
15116653195
15116661740
15116670651
15116678891
15116685788
15116693539
15116702756
15116710812
15116717770
15116725033
15116733823
15116740658
15116747372
15116755002
15116763913
15116770260
15116784176
15116794003
15116804074
15116813717
15116823117
15116830502
15116838742
15116846371
15116854306
15116863034
15116871823
15116878109
15116886105
15116894345
15116903744
15116911251
15116920468
15116927670
15116936642
15116946835
15116953671
15116961605
15116970272
15116980404
15116988033
15116995663
15117005062
15117013058
15117021664
15117031307
15117039425
15117045406
15117055538
15117060726
15117070064
15117077450
15117086666
15117095089
15117103084
15117111507
15117119686
15117127559
15117133907
15117142696
15117151790
15117157833
15117165950
15117173580
15117180294
15117188106
15117195796
15117204341
15117213436
15117222652
15117229061
15117237666
15117244075
15117252254
15117259578
15117266170
15117277339
15117284114
15117289851
15117295161
15117299617
15117304744
15117313350
15117322566
15117330989
15117337337
15117342341
15117349299
15117354732
15117362605
15117367122
15117372249
15117377192
15117381770
15117388789
15117393855
15117398433
15117402095
15117407283
15117410884
15117416682
15117420100
15117426448
15117431575
15117437007
15117442378
15117446833
15117451045
15117457331
15117463069
15117469844
15117475276
15117480281
15117485774
15117490657
15117494990
15117504023
15117508601
15117514277
15117519038
15117524226
15117528559
15117534052
15117539362
15117546443
15117551936
15117556635
15117561945
15117568476
15117573969
15117578974
15117584650
15117590449
15117596980
15117603876
15117611506
15117617243
15117624201
15117629511
15117636774
15117643366
15117650019
15117656611
15117663447
15117670466
15117676996
15117681879
15117688654
15117694208
15117701288
15117706965
15117713129
15117717829
15117724054
15117730036
15117735895
15117741755
15117746454
15117752130
15117759272
15117771540
15117781916
15117791254
15117798639
15117805109
15117813471
15117819086
15117824457
15117829096
15117836237
15117843500
15117850946
15117857538
15117863886
15117868585
15117879144
15117883844
15117888605
15117896600
15117901056
15117906549
15117910455
15117916498
15117920648
15117926752
15117933099
15117937067
15117942926
15117948297
15117953912
15117958978
15117965143
15117968927
15117975458
15117982293
15117989068
15117993219
15118001031
15118006402
15118011773
15118017633
15118022638
15118028131
15118034234
15118040033
15118044915
15118049676
15118054864
15118059808
15118066522
15118071954
15118077874
15118086114
15118091851
15118096551
15118103021
15118108087
15118114434
15118121331
15118126458
15118134210
15118138665
15118145928
15118150506
15118156854
15118160882
15118166558
15118172173
15118177911
15118183831
15118188470
15118192986
15118199761
15118205621
15118210564
15118216607
15118222771
15118228448
15118233575
15118239373
15118244683
15118248955
15118255730
15118260308
15118266900
15118272820
15118277337
15118281792
15118289361
15118293023
15118298089
15118304863
15118310479
15118316582
15118321343
15118326836
15118332268
15118352837
15118359490
15118366570
15118371453
15118377007
15118381645
15118387200
15118392449
15118396538
15118409111
15118414849
15118420220
15118428520
15118434502
15118440910
15118446770
15118453056
15118461418
15118467583
15118473991
15118480400
15118485893
15118491508
15118496330
15118502434
15118508598
15118512138
15118517692
15118522819
15118530327
15118533989
15118541618
15118548210
15118552849
15118557792
15118563103
15118567985
15118574638
15118580375
15118586723
15118592399
15118597954
15118603264
15118609672
15118614555
15118620964
15118625480
15118631828
15118637992
15118644279
15118649040
15118655387
15118660087
15118666130
15118671867
15118677238
15118683952
15118690055
15118694450
15118699455
15118706474
15118712760
15118718253
15118722831
15118729240
15118735771
15118742179
15118748344
15118755119
15118760246
15118765739
15118771293
15118777580
15118784110
15118789359
15118796317
15118801688
15118808341
15118814506
15118819388
15118825431
15118832023
15118838676
15118843741
15118850150
15118855826
15118863456
15118868888
15118872794
15118879569
15118888968
15118896109
15118902640
15118906546
15118912467
15118918021
15118923270
15118929313
15118934623
15118940238
15118945731
15118951529
15118956839
15118962516
15118968131
15118974539
15118979056
15118983512
15118991934
15118997244
15119004691
15119011405
15119017874
15119023978
15119029776
15119034415
15119042349
15119047415
15119054007
15119061697
15119067557
15119076834
15119083243
15119088614
15119094046
15119098929
15119103079
15119110464
15119116019
15119122061
15119127920
15119133291
15119139273
15119145376
15119149283
15119155081
15119160818
15119167105
15119174612
15119180472
15119185049
15119192068
15119197500
15119203848
15119210135
15119216848
15119225637
15119234060
15119242849
15119249624
15119256826
15119263296
15119269400
15119273428
15119283132
15119298635
15119308218
15119319570
15119327688
15119333730
15119339346
15119347463
15119353567
15119359060
15119365591
15119371023
15119375906
15119382009
15119387380
15119391714
15119399953
15119408132
15119415090
15119421010
15119425710
15119432485
15119437429
15119446523
15119456777
15119466359
15119474050
15119484060
15119489980
15119497182
15119502736
15119509755
15119517812
15119525991
15119531545
15119540822
15119546804
15119553884
15119559987
15119567678
15119575124
15119584035
15119590810
15119598195
15119604665
15119614186
15119618276
15119627370
15119635365
15119642690
15119648183
15119656972
15119663564
15119670949
15119677113
15119684865
15119693349
15119701894
15119710377
15119718007
15119726674
15119735524
15119743764
15119751210
15119758839
15119766285
15119772328
15119778920
15119783680
15119789784
15119795094
15119800221
15119805714
15119810536
15119816273
15119821827
15119828968
15119835499
15119839711
15119847096
15119851796
15119859791
15119865284
15119870716
15119876393
15119881336
15119887501
15119892872
15119899159
15119905995
15119913197
15119919850
15119925831
15119932240
15119938404
15119944996
15119950367
15119955250
15119965992
15119972095
15119980030
15119986073
15119991749
15119998890
15120005299
15120010242
15120017445
15120023670
15120028797
15120034778
15120039539
15120045032
15120050892
15120056202
15120061817
15120071583
15120079334
15120086048
15120094227
15120099903
15120107166
15120115406
15120121631
15120128589
15120136158
15120144336
15120151660
15120158557
15120163318
15120171680
15120178516
15120186878
15120193408
15120202075
15120208972
15120216663
15120222583
15120230029
15120238330
15120245960
15120259814
15120271106
15120283740
15120295520
15120302051
15120309375
15120317798
15120325732
15120335315
15120341479
15120348804
15120355456
15120363086
15120369311
15120375293
15120383166
15120389392
15120394702
15120400561
15120406360
15120413256
15120419665
15120424304
15120433520
15120441577
15120448657
15120455554
15120460742
15120468371
15120473803
15120480395
15120488452
15120493334
15120498583
15120505908
15120514880
15120524401
15120532336
15120540820
15120546801
15120553881
15120557116
15120563952
15120569994
15120575549
15120580798
15120586413
15120591296
15120597216
15120602831
15120608630
15120615710
15120620287
15120625902
15120631029
15120638293
15120644152
15120650683
15120656176
15120660204
15120668749
15120673205
15120683580
15120688768
15120698229
15120703783
15120713427
15120721300
15120728075
15120735826
15120745531
15120759996
