15314984597
15314990334
15314996438
15315001809
15315007058
15315012124
15315016884
15315022499
15315028481
15315033059
15315038369
15315044594
15315051247
15315056679
15315062294
15315068947
15315075844
15315082924
15315089028
15315095497
15315100319
15315104408
15315111855
15315116921
15315123146
15315129372
15315137123
15315143715
15315151711
15315158608
15315165810
15315171913
15315178261
15315184303
15315191322
15315198585
15315204628
15315211830
15315219704
15315226356
15315233009
15315239357
15315246376
15315252968
15315259804
15315266517
15315271461
15315277931
15315283729
15315290748
15315297157
15315302589
15315311622
15315318092
15315325721
15315333168
15315341041
15315345863
15315353553
15315361732
15315366981
15315373939
15315380592
15315386939
15315393836
15315400245
15315406959
15315413246
15315421607
15315427101
15315432899
15315440589
15315447364
15315452552
15315458595
15315466529
15315474281
15315479407
15315485328
15315493385
15315499183
15315506568
15315513038
15315519080
15315524329
15315531348
15315539649
15315545264
15315552161
15315558204
15315565711
15315571326
15315577430
15315584388
15315590308
15315597937
15315603858
15315615332
15315621497
15315628699
15315637732
15315643348
15315651038
15315656470
15315664954
15315669715
15315678748
15315684180
15315692114
15315697425
15315705115
15315711707
15315718726
15315724341
15315730567
15315736182
15315744421
15315751685
15315758521
15315766394
15315774084
15315781409
15315787207
15315794470
15315801977
15315807959
15315815161
15315820593
15315825720
15315834143
15315840307
15315846045
15315853369
15315859289
15315865393
15315871252
15315877966
15315885534
15315893774
15315900732
15315909582
15315917151
15315924109
15315933569
15315940893
15315949865
15315957251
15315963171
15315970434
15315975439
15315980505
15315986730
15315995336
15316002538
15316007849
15316014318
15316019811
15316025854
15316031713
15316040075
15316046850
15316056188
15316064611
15316072790
15316077001
15316085729
15316094152
15316103429
15316112524
15316118017
15316125158
15316131505
15316141881
15316149389
15316157506
15316165563
15316171544
15316179967
15316186803
15316192724
15316199376
15316208226
15316213964
15316220556
15316230138
15316235936
15316245641
15316251561
15316258763
15316266088
15316273473
15316280431
15316288304
15316295140
15316304723
15316311131
15316317601
15316325047
15316331273
15316338170
15316348668
15316358311
15316364293
15316373448
15316381078
15316388646
15316395909
15316403538
15316412572
15316420445
15316426732
15316432530
15316441136
15316447178
15316452427
15316458592
15316463658
15316468968
15316473668
15316478489
15316485203
15316489903
15316495579
15316501805
15316506382
15316513279
15316517796
15316523167
15316531224
15316539952
15316546299
15316557408
15316563023
15316566319
15316573094
15316577610
15316583897
15316589085
15316594273
15316599278
15316604588
15316610691
15316616917
15316621983
15316626316
15316631016
15316635716
15316642124
15316647251
15316652805
15316657383
15316660740
15316668308
15316673008
15316677769
15316681919
15316687412
15316696629
15316704380
15316712376
15316721714
15316730137
15316737095
15316744968
15316753391
15316761875
15316769871
15316778293
15316786655
15316794529
15316799106
15316811191
15316818088
15316825473
15316833225
15316842563
15316850803
15316859226
15316867038
15316875461
15316884677
15316893100
15316901279
15316910617
15316917880
15316925083
15316934055
15316941928
15316949191
15316957919
15316964633
15316973727
15316978610
15316988010
15316995578
15317005466
15317013644
15317020663
15317029269
15317037875
15317047763
15317054660
15317062533
15317070224
15317077853
15317086581
15317096469
15317104037
15317110324
15317117465
15317125766
15317135287
15317143893
15317151950
15317158663
15317166903
15317174533
15317184664
15317193270
15317203402
15317213351
15317219393
15317230013
15317236849
15317249300
15317257479
15317265475
15317272555
15317278414
15317285189
15317293124
15317300143
15317307284
15317316927
15317324801
15317331942
15317338045
15317348238
15317354769
15317363802
15317372774
15317381746
15317388887
15317397066
15317404757
15317413790
15317421968
15317430391
15317436556
15317443758
15317453585
15317461214
15317467562
15317477022
15317485140
15317492098
15317498445
15317504976
15317511507
15317520662
15317528536
15317537386
15317544466
15317552583
15317563326
15317569063
15317577608
15317584016
15317591646
15317601961
15317607820
15317614534
15317622652
15317629304
15317634675
15317644380
15317651643
15317657991
15317665803
15317673372
15317680085
15317689058
15317695771
15317703096
15317712129
15317719880
15317726838
15317735383
15317743745
15317752168
15317760163
15317768037
15317775788
15317783723
15317791596
15317798554
15317806977
15317816926
15317824799
15317832795
15317839936
15317848847
15317856477
15317865571
15317873444
15317885346
15317893281
15317900910
15317909882
15317918915
15317928681
15317937775
15317947541
15317952302
15317963410
15317972626
15317983185
15317993622
15317999421
15318006684
15318014130
15318022553
15318030426
15318039276
15318046112
15318054291
15318061737
15318069611
15318074005
15318079376
15318085114
15318091217
15318095490
15318100311
15318104950
15318109467
15318113373
15318117340
15318121491
15318126373
15318130280
15318133881
15318139069
15318144928
15318149811
15318156403
15318161652
15318165314
15318170319
15318176422
15318182404
15318190033
15318193512
15318199554
15318204620
15318210785
15318215973
15318221466
15318227325
15318232208
15318236358
15318244720
15318249603
15318255890
15318260956
15318266754
15318271698
15318275421
15318280426
15318285553
15318290680
15318295746
15318300933
15318305145
15318310577
15318316192
15318324737
15318332122
15318339263
15318348541
15318355133
15318361907
15318365692
15318374114
15318382232
15318388702
15318397430
15318404693
15318412933
15318419463
15318428252
15318435943
15318442779
15318450652
15318457366
15318465057
15318472198
15318481109
15318487884
15318494720
15318503081
15318510406
15318519500
15318529204
15318539092
15318546843
15318558989
15318568633
15318577239
15318587005
15318594451
15318601409
15318609465
15318617644
15318626921
15318636931
15318642607
15318652434
15318659697
15318667876
15318677458
15318684966
15318690520
15318700041
15318707366
15318713774
15318721709
15318728606
15318735869
15318744719
15318752531
15318759306
15318768278
15318775359
15318782683
15318789946
15318797148
15318807158
15318814970
15318822111
15318828215
15318836394
15318843596
15318851042
15318857817
15318863859
15318874235
15318879789
15318888456
15318896391
15318903349
15318911833
15318919096
15318931364
15318939665
15318946012
15318954008
15318961149
15318968595
15318973722
15318983549
15318991178
15318999601
15319007536
15319016203
15319023466
15319031522
15319037870
15319045255
15319056120
15319061918
15319072538
15319079496
15319086515
15319092557
15319100431
15319108243
15319116605
15319124235
15319130094
15319138700
15319147489
15319154264
15319161893
15319166776
15319175687
15319183255
15319191800
15319199308
15319204984
15319213529
15319220914
15319229215
15319236478
15319244535
15319252896
15319259427
15319268460
15319274320
15319280423
15319291104
15319300015
15319311612
15319318570
15319332181
15319344205
15319351163
15319357693
15319364896
15319373379
15319381314
15319385281
15319395169
15319401028
15319410245
15319416226
15319426907
15319434903
15319440152
15319447110
15319456021
15319461758
15319470669
15319477261
15319484463
15319491970
15319499844
15319505947
15319514981
15319522427
15319529324
15319537014
15319545193
15319552517
15319560269
15319567410
15319574246
15319583096
15319589810
15319597683
15319605984
15319614407
15319622768
15319631619
15319639919
15319645779
15319654446
15319660122
15319669887
15319674160
15319680324
15319687649
15319690761
15319700466
15319706264
15319710598
15319717617
15319724575
15319729946
15319735012
15319738674
15319743801
15319751064
15319755336
15319759914
15319765835
15319773037
15319777919
15319782741
15319788234
15319794399
15319798488
15319803859
15319809230
15319813076
15319818386
15319824062
15319830043
15319834194
15319839199
15319845119
15319850978
15319856227
15319862209
15319867214
15319872585
15319877712
15319883754
15319889064
15319894496
15319899867
15319908229
15319914821
15319918910
15319923305
15319929103
15319936305
15319942409
15319948085
15319960902
15319971278
15319983180
15319993434
15320001002
15320016749
15320023952
15320029506
15320037318
15320046107
15320053615
15320061061
15320069911
15320077968
15320083827
15320090907
15320099330
15320107936
15320116725
15320121485
15320130152
15320137355
15320146449
15320152430
15320161341
15320167811
15320176783
15320184352
15320192042
15320199549
15320207301
15320214320
15320219996
15320228968
15320236964
15320244654
15320252100
15320258631
15320270045
15320276087
15320285242
15320291529
15320298426
15320305323
15320313379
15320320643
15320328211
15320335413
15320344507
15320350184
15320358790
15320367029
15320375452
15320382227
15320392176
15320402369
15320410669
15320416834
15320426783
15320432947
15320441370
15320448511
15320456507
15320462854
15320470545
15320477625
15320485071
15320492761
15320499414
15320508753
15320516992
15320524866
15320532556
15320540002
15320549036
15320556604
15320562036
15320569849
15320578088
15320586389
15320592798
15320600549
15320608056
15320616723
15320623742
15320631494
15320638208
15320646081
15320653833
15320661889
15320668908
15320676294
15320686120
15320694055
15320704553
15320712365
15320720056
15320725671
15320733422
15320741357
15320750268
15320762170
15320773217
15320782678
15320791711
15320798913
15320806786
15320819177
15320828210
15320831994
15320841088
15320847009
15320857751
15320866051
15320874596
15320881921
15320889733
15320898095
15320906212
15320913720
15320921227
15320925072
15320933922
15320940697
15320950463
15320957116
15320964257
15320971825
15320979088
15320987084
15320992760
15321000389
15321007531
15321014183
15321022301
15321029198
15321037010
15321042748
15321049278
15321057884
15321063072
15321072472
15321079857
15321087120
15321094750
15321105064
15321111351
15321118736
15321127892
15321135277
15321142662
15321150902
15321158653
15321166283
15321172996
15321184898
15321190697
15321200218
15321206077
15321215111
15321222374
15321229393
15321237449
15321245201
15321251976
15321259788
15321267112
15321275962
15321282737
15321291587
15321299583
15321305503
15321311668
15321321067
15321325523
15321335655
15321343589
15321349571
15321354576
15321359519
15321365318
15321370811
15321375633
15321381065
15321387412
15321391990
15321397117
15321402244
15321406944
15321412559
15321419883
15321424094
15321429404
15321435630
15321441489
15321447044
15321452232
15321457114
15321462791
15321468223
15321473044
15321478110
15321484458
15321489707
15321498862
15321505942
15321513328
15321520164
15321526755
15321532493
15321538108
15321543174
15321548545
15321553183
15321558310
15321563315
15321569602
15321574485
15321578940
15321583823
15321592673
15321598777
15321603537
15321609519
15321613730
15321619651
15321625266
15321631247
15321638022
15321644126
15321651206
15321659140
15321668784
15321676413
15321681662
15321691489
15321698935
15321705283
15321712485
15321720053
15321730002
15321737570
15321745322
15321751852
15321761618
15321768149
15321774435
15321781027
15321790915
15321795798
15321805685
15321812887
15321821860
15321829184
15321836569
15321841940
15321854635
15321864828
15321871969
15321882162
15321886496
15321896749
15321902731
15321911337
15321919882
15321930075
15321939230
15321947103
15321954916
15321962545
15321971456
15321979208
15321989095
15321997152
15322005270
15322012106
15322022421
15322028158
15322035665
15322042867
15322051534
15322059530
15322067647
15322074911
15322084310
15322091634
15322098592
15322106771
15322113912
15322122457
15322130452
15322138631
15322147115
15322155477
15322163900
15322168905
15322178670
15322186910
15322193563
15322201558
15322211385
15322219380
15322227315
15322235616
15322243917
15322252828
15322259969
15322268941
15322276204
15322283956
15322292256
15322299703
15322309163
15322315572
15322324849
15322330403
15322339619
15322346638
15322354329
15322361775
15322369466
15322377583
15322385091
15322392354
15322400044
15322408223
15322416218
15322425252
15322433064
15322440571
15322448506
15322455647
15322462971
15322471150
15322478596
15322485737
15322493794
15322501179
15322508992
15322516682
15322524128
15322530049
15322536885
15322544087
15322552876
15322562641
15322570027
15322579975
15322586994
15322594380
15322601643
15322610310
15322618488
15322626606
15322636799
15322647236
15322656086
15322664509
15322673603
15322683552
15322690571
15322698200
15322705402
15322713459
15322721882
15322729145
15322736652
15322744770
15322750507
15322757770
15322764850
15322772052
15322778949
15322787189
15322794879
15322802204
15322808979
15322816974
15322821735
15322832294
15322839923
15322847064
15322854206
15322863056
15322870136
15322876422
15322885028
15322897662
15322906818
15322916156
15322923663
15322930255
15322938251
15322946490
15322955279
15322962543
15322973468
15322980792
15322988971
15322996356
15323004535
15323012835
15323021075
15323028949
15323038287
15323048785
15323055926
15323066546
15323074481
15323081988
15323087786
15323092303
15323097552
15323104083
15323109698
15323114459
15323120501
15323123980
15323128924
15323133868
15323138262
15323142718
15323147967
15323152361
15323159319
15323165057
15323170550
15323174029
15323177874
15323182147
15323189166
15323195086
15323200457
15323203326
15323211077
15323216265
15323219927
15323224139
15323228228
15323234698
15323240862
15323246416
15323251177
15323255266
15323260577
15323265948
15323270159
15323274187
15323278765
15323282915
15323287493
15323293047
15323297991
15323303911
15323310076
15323317400
15323323382
15323328997
15323337481
15323342669
15323351091
15323369768
15323377764
15323382952
15323389666
15323397478
15323404070
15323410662
15323420366
15323427141
15323434465
15323440508
15323446489
15323451799
15323459123
15323465837
15323472734
15323481401
15323488054
15323495928
15323504106
15323508623
15323516679
15323522295
15323528886
15323537675
15323544084
15323552019
15323559465
15323567338
15323574907
15323582841
15323589738
15323598771
15323605668
15323613115
15323620744
15323633745
15323639177
15323648515
15323656755
15323664079
15323672441
15323680253
15323688127
15323694780
15323701249
15323707170
15323716691
15323723100
15323727922
15323735246
15323741288
15323747758
15323753800
15323759843
15323768266
15323774980
15323781876
15323788468
15323796647
15323804276
15323812089
15323821366
15323836198
15323848038
15323862260
15323873185
15323881852
15323889542
15323900773
15323907792
15323914750
15323922379
15323929032
15323938248
15323944901
15323951981
15323958146
15323967789
15323976090
15323982926
15323989273
15323996415
15324004532
15324011917
15324019547
15324026627
15324034806
15324041702
15324050003
15324058365
15324062637
15324071488
15324080582
15324087906
15324094681
15324101578
15324109024
15324115921
15324122452
15324129654
15324137894
15324146805
15324152542
15324159439
15324166458
15324173355
15324180679
15324187271
15324195755
15324202835
15324208633
15324215957
15324223404
15324231155
15324237137
15324245804
15324252945
15324263382
15324272293
15324280105
15324287063
15324293594
15324300369
15324308914
15324316665
15324324050
15324333938
15324341262
15324348586
15324355117
15324362441
15324369827
15324377334
15324385818
15324396865
15324404067
15324415847
15324422256
15324436782
15324444350
15324453200
15324461440
15324468825
15324476333
15324484206
15324491714
15324499038
15324506484
15324513442
15324520827
15324529433
15324537551
15324541579
15324551589
15324557631
15324565200
15324571914
15324580214
15324586806
15324595046
15324602004
15324611159
15324618056
15324626113
15324635634
15324640822
15324650282
15324658095
15324665175
15324672011
15324676161
15324681044
15324685866
15324694472
15324699538
15324705641
15324711195
15324715590
15324722731
15324728407
15324733473
15324738600
15324745375
15324750990
15324757094
15324761793
15324768202
15324773512
15324779188
15324786818
15324793471
15324798781
15324803847
15324808668
15324813917
15324818739
15324823866
15324829542
15324835035
15324840834
15324846998
15324853102
15324856703
15324863478
15324869764
15324874281
15324879896
15324885389
15324891249
15324897718
15324903028
15324908277
15324914564
15324919691
15324926893
15324932020
15324937391
15324942945
15324949171
15324954176
15324965589
15324973158
15324981580
15324988905
15324998243
15325005201
15325014112
15325021925
15325031019
15325038831
15325048109
15325056226
15325063184
15325071424
15325078748
15325086988
15325095594
15325104871
15325115613
15325128187
15325137037
15325145215
15325153577
15325159925
15325167493
15325174512
15325182080
15325191297
15325198438
15325205579
15325213330
15325222119
15325227368
15325236890
15325244763
15325253919
15325262097
15325269055
15325276746
15325285474
15325292798
15325299817
15325308789
15325315930
15325323376
15325331128
15325338025
15325345654
15325353589
15325361401
15325369519
15325377148
15325385754
15325391675
15325399365
15325407177
15325415905
15325423596
15325431042
15325438366
15325447277
15325454297
15325463757
15325470410
15325478161
15325485058
15325493359
15325500378
15325507641
15325515698
15325523754
15325534252
15325540234
15325547863
15325555493
15325564526
15325570690
15325578625
15325586376
15325594189
15325601147
15325611889
15325618786
15325627087
15325635631
15325644054
15325651867
15325660290
15325667370
15325675976
15325683544
15325692028
15325698559
15325706493
15325714306
15325721080
15325731456
15325738048
15325746654
15325755321
15325763561
15325770702
15325779003
15325786876
15325795299
15325803173
15325811595
15325819408
15325828075
15325836742
15325841930
15325852367
15325857616
15325867503
15325875865
15325883861
15325892223
15325899913
15325909373
15325918040
15325928599
15325938060
15325947032
15325955028
15325967662
15325976207
15325983714
15325990611
15326000865
15326010081
15326019725
15326027232
15326033702
15326041453
15326048655
15326058238
15326065501
15326073130
15326080027
15326087840
15326096385
15326103831
15326111155
15326119639
15326126841
15326133372
15326143015
15326149668
15326156565
15326165415
15326172617
15326179820
15326187449
15326194102
15326201548
15326210520
15326218027
15326226511
15326234019
15326240305
15326248423
15326256785
15326264597
15326271921
15326280527
15326287546
15326294932
15326304514
15326312937
15326319651
15326327646
15326335154
15326348398
15326355417
15326363901
15326370798
15326381113
15326387766
15326395822
15326403757
15326412485
15326422617
15326429209
15326435434
15326440195
15326446481
15326451975
15326458750
15326465036
15326471079
15326475351
15326481760
15326488351
15326494760
15326500253
15326504221
15326512765
15326518686
15326524179
15326529855
15326535898
15326541025
15326547372
15326553659
15326558969
15326564279
15326571298
15326576974
15326582712
15326588632
15326594308
15326599252
15326604989
15326613168
15326618905
15326622384
15326630441
15326636239
15326642343
15326647958
15326654062
15326660409
15326670358
15326677072
15326682748
15326687875
15326695260
15326700753
15326705453
15326710641
15326715585
15326720346
15326725289
15326729745
15326736032
15326742379
15326749703
15326755807
15326765939
15326771737
15326779122
15326785897
15326794015
15326800912
15326809274
15326818124
15326827340
15326833443
15326840584
15326849251
15326856087
15326863167
15326871224
15326880074
15326886483
15326895272
15326901619
15326908455
15326917244
15326924691
15326931221
15326938851
15326946419
15326956063
15326962044
15326969918
15326978279
15326985848
15326993355
15327001045
15327008492
15327016121
15327023262
15327031197
15327038399
15327046700
15327054634
15327062203
15327068916
15327075691
15327082649
15327091499
15327098701
15327106819
15327113777
15327122139
15327129219
15327137459
15327144112
15327152656
15327162056
15327170173
15327176094
15327185371
15327192024
15327199287
15327208931
15327216255
15327225959
15327232734
15327240181
15327248420
15327256599
15327263984
15327272285
15327279914
15327288459
15327298164
15327304756
15327313728
15327322700
15327330451
15327338813
15327348029
15327353401
15327360908
15327370429
15327378059
15327387214
15327394843
15327404853
15327412727
15327419990
15327429267
15327437873
15327447028
15327455573
15327464789
15327475410
15327485236
15327493537
15327500617
15327508674
15327515754
15327524176
15327531257
15327539435
15327548835
15327556769
15327562995
15327569709
15327579291
15327587165
15327593329
15327601325
15327608161
15327615302
15327624213
15327631476
15327638678
15327647650
15327654730
15327661993
15327668768
15327676337
15327684515
15327691718
15327699530
15327708075
15327715704
15327722906
15327732184
15327737494
15327746832
15327753729
15327762091
15327768805
15327776495
15327785650
15327793280
15327801581
15327809271
15327816168
15327823614
15327830572
15327838446
15327846930
15327856634
15327862860
15327872442
15327878546
15327886358
15327893255
15327902716
15327910406
15327917791
15327924688
15327932501
15327939214
15327946783
15327954168
15327961858
15327971441
15327979742
15327986272
15327994756
15328001470
15328011785
15328018438
15328026922
15328034917
15328044256
15328051885
15328058721
15328069097
15328076177
15328084722
15328092779
15328101018
15328108587
15328116765
15328124517
15328133123
15328141240
15328149541
15328157354
15328162542
15328173284
15328181951
15328189641
15328195500
15328201055
15328205266
15328211370
15328218938
15328226323
15328233769
15328241643
15328249089
15328256413
15328262029
15328268742
15328274785
15328280644
15328285527
15328289922
15328294926
15328299382
15328304204
15328309758
15328315373
15328322331
15328327519
15328333073
15328338200
15328342961
15328349003
15328352849
15328359074
15328365056
15328370671
15328376530
15328381779
15328386845
15328392033
15328397648
15328400517
15328408635
15328414372
15328419865
15328425114
15328429875
15328432682
15328439518
15328446232
15328452824
15328463383
15328471623
15328480107
15328486393
15328496708
15328504887
15328514286
15328522709
15328530155
15328538700
15328545597
15328553410
15328561344
15328569523
15328577763
15328585392
15328591373
15328600590
15328606632
15328614017
15328624027
15328631657
15328638920
15328646793
15328653019
15328662174
15328668155
15328674991
15328683903
15328691959
15328699100
15328706546
15328715336
15328722782
15328729557
15328737186
15328746280
15328753604
15328761051
15328768009
15328775760
15328782535
15328791873
15328798343
15328806278
15328814578
15328822147
15328829471
15328837039
15328844180
15328851810
15328858707
15328866336
15328873782
15328881412
15328890079
15328899234
15328907596
15328919009
15328933719
15328942081
15328949649
15328958560
15328965518
15328974063
15328981082
15328989078
15329000186
15329007815
15329014956
15329022403
15329028872
15329037417
15329044619
15329053591
15329060611
15329068789
15329075747
15329083316
15329091983
15329100161
15329107302
15329114443
15329121279
15329128176
15329137454
15329143923
15329151492
15329158022
15329167422
15329173769
15329181460
15329188845
15329196597
15329205386
15329212893
15329219790
15329227297
15329233889
15329241640
15329250490
15329258059
15329265017
15329272585
15329278567
15329287539
15329293764
15329301210
15329308352
15329319765
15329328127
15329336184
15329344301
15329351992
15329358400
15329365908
15329375063
15329382875
15329389772
15329397402
15329404238
15329413454
15329420473
15329428224
15329436037
15329443971
15329452455
15329459901
15329466554
15329474123
15329481630
15329489442
15329497499
15329505739
15329513246
15329520753
15329528139
15329535951
15329539918
15329548341
15329555299
15329565736
15329573305
15329582094
15329588991
15329594117
15329601869
15329609681
15329619386
15329627320
15329635621
15329642091
15329649964
15329658509
15329664186
15329674134
15329682313
15329690675
15329700074
15329708070
15329718141
15329724244
15329735047
15329743165
15329750367
15329760194
15329767091
15329774781
15329781190
15329787415
15329794556
15329803345
15329809876
15329819703
15329826600
15329834595
15329841065
15329846863
15329856080
15329860779
15329870057
15329879029
15329885804
15329891602
15329896241
15329900696
15329907776
15329911988
15329916932
15329925476
15329931214
15329935852
15329941101
15329945740
15329950501
15329955262
15329960511
15329966309
15329971314
15329975220
15329980103
15329985047
15329991028
15329997193
15330002747
15330009827
15330015564
15330021912
15330029358
15330034729
15330041016
15330048523
15330053711
15330059326
15330064758
15330069885
15330074829
15330082886
15330092285
15330101379
15330111084
15330118591
15330127624
15330135254
15330141479
15330150390
15330156311
15330168396
15330177734
15330185058
15330193359
15330202942
15330211303
15330221313
15330233337
15330244384
15330252685
15330262146
15330272094
15330279785
15330289489
15330301330
15330312927
15330321960
15330330322
15330338073
15330348266
15330355895
15330364745
15330375671
15330383971
15330393493
15330404662
15330412780
15330424316
15330433410
15330442931
15330451415
15330459655
15330470153
15330477172
15330487609
15330495055
15330504760
15330512145
15330522460
15330530577
15330538451
15330547118
15330556334
15330564818
15330575255
15330583922
15330591429
15330601439
15330608092
15330617980
15330625731
15330635802
15330646483
15330653685
15330662352
15330671996
15330680479
15330690489
15330697996
15330707457
15330715025
15330724119
15330732054
15330740477
15330751036
15330759031
15330765867
15330776487
15330785032
15330793577
15330800474
15330810728
15330817808
15330828856
15330837461
15330847166
15330855345
15330862242
15330872862
15330880369
15330888548
15330897215
15330905393
15330913511
15330922178
15330930235
15330940427
15330949094
15330956602
15330967100
15330973569
15330980772
15330986631
15330997373
15331006162
15331014280
15331024290
15331035154
15331045713
15331057248
15331067563
15331076658
15331085996
15331096372
15331105649
15331114927
15331126523
15331133664
15331144956
15331154782
15331165280
15331172849
15331183347
15331193234
15331201779
15331210874
15331225034
15331235043
15331245297
15331257504
15331266171
15331283810
15331295407
15331305051
15331313351
15331322323
15331332760
15331342587
15331351193
15331363278
15331371090
15331383542
15331392880
15331402279
15331410458
15331421749
15331430111
15331439816
15331449704
15331458920
15331468441
15331479550
15331486447
15331497799
15331508541
15331517147
15331526669
15331537167
15331545956
15331556393
15331564388
15331572750
15331585506
15331596737
15331605526
15331615902
15331624935
15331633236
15331643184
15331649776
15331656246
15331664058
15331669979
15331676937
15331682857
15331691524
15331698604
15331704952
15331712642
15331720211
15331725765
15331731014
15331737423
15331744564
15331750545
15331756160
15331765254
15331770198
15331777706
15331782527
15331789791
15331794429
15331801631
15331807613
15331813777
15331820064
15331824642
15331829280
15331833980
15331839107
15331843013
15331851009
15331856136
15331861018
15331866267
15331871516
15331876460
15331881160
15331886470
15331892207
15331896785
15331902827
15331907222
15331911006
15331918147
15331922786
15331931758
15331936519
15331943721
15331950191
15331958186
15331962031
15331970149
15331976497
15331983516
15331987849
15331992610
15331996821
15332000789
15332005061
15332009333
15332015132
15332018672
15332024226
15332028315
15332038081
15332041865
15332049250
15332054499
15332059382
15332064021
15332070002
15332076228
15332082698
15332090876
15332098139
15332104182
15332110591
15332117854
15332124201
15332129939
15332136347
15332141596
15332150691
15332155695
15332163264
15332169306
15332174982
15332182124
15332191523
15332198542
15332206415
15332213007
15332222346
15332229059
15332234614
15332241266
15332249201
15332255976
15332264582
15332271479
15332278010
15332284113
15332290644
15332296686
15332305292
15332311518
15332317133
15332325983
15332332880
15332341547
15332348017
15332356623
15332364069
15332371088
15332378107
15332384943
15332392694
15332401544
15332408380
15332419428
15332426691
15332434015
15332441522
15332448358
15332455499
15332462396
15332469781
15332477228
15332484491
15332490350
15332498773
15332504877
15332511835
15332518732
15332528192
15332536798
15332543756
15332550653
15332560846
15332567926
15332573968
15332584649
15332592950
15332603326
15332614129
15332621576
15332632379
15332640618
15332648614
15332656671
15332665032
15332671868
15332677300
15332685113
15332690972
15332699639
15332709039
15332717828
15332724358
15332731561
15332737847
15332746636
15332752312
15332762017
15332767693
15332776055
15332783013
15332789666
15332796502
15332805108
15332813286
15332821160
15332828545
15332835991
15332843011
15332850518
15332857659
15332863946
15332871087
15332880669
15332888237
15332894341
15332903313
15332910820
15332917656
15332924126
15332933586
15332941826
15332948967
15332956597
15332963127
15332972588
15332979912
15332988823
15332996819
15333005669
15333011345
15333018303
15333026238
15333033135
15333040031
15333047600
15333058708
15333066582
15333073601
15333082085
15333089409
15333096611
15333104240
15333111565
15333119377
15333128471
15333135063
15333143852
15333148552
15333155571
15333164726
15333174370
15333181999
15333190422
15333198356
15333205436
15333213920
15333221244
15333229118
15333237175
15333244865
15333253898
15333262382
15333269645
15333276542
15333283317
15333291007
15333297660
15333307304
15333315421
15333323112
15333330558
15333341361
15333348319
15333358756
15333369743
15333373710
15333381705
15333387626
15333394279
15333400687
15333406913
15333412711
15333417899
15333422721
15333428824
15333433707
15333438712
15333443290
15333448844
15333455375
15333460318
15333465445
15333469962
15333474234
15333479117
15333484671
15333489798
15333495597
15333500541
15333505606
15333510123
15333513785
15333519828
15333523307
15333529837
15333535086
15333540396
15333544669
15333551871
15333557303
15333562613
15333566275
15333572074
15333578848
15333584891
15333589896
15333595633
15333600943
15333606558
15333611380
15333616812
15333622244
15333627860
15333634695
15333642447
15333646719
15333658560
15333666251
15333674612
15333684378
15333693350
15333700735
15333710196
15333718436
15333725699
15333732107
15333739126
15333746878
15333754446
15333762503
15333770010
15333776785
15333783743
15333789846
15333796804
15333803396
15333815664
15333822744
15333830923
15333838369
15333845877
15333851858
15333860342
15333867910
15333876089
15333883718
15333890859
15333897756
15333906545
15333913442
15333919790
15333927786
15333935903
15333946340
15333954397
15333960012
15333967519
15333975332
15333983816
15333992727
15333999685
15334011220
15334018056
15334029592
15334039235
15334048513
15334059377
15334066335
15334074331
15334081105
15334090444
15334097524
15334104909
15334112600
15334118581
15334127187
15334134633
15334143422
15334149037
15334157643
15334165151
15334171742
15334179494
15334187795
15334195546
15334204152
15334208608
15334217397
15334224782
15334230763
15334237965
15334244435
15334253163
15334262929
15334270375
15334276417
15334282887
15334292042
15334299794
15334306874
15334315602
15334322743
15334330372
15334337330
15334344533
15334352284
15334360524
15334368519
15334376454
15334385060
15334393300
15334400563
15334406544
15334414357
15334424183
15334432850
15334440724
15334448780
15334456227
15334464344
15334472706
15334480152
15334484242
15334492298
15334503956
15334511891
15334519703
15334527210
15334533741
15334541615
15334548084
15334555592
15334562672
15334572010
15334579273
15334587330
15334595936
15334604420
15334611194
15334617664
15334625538
15334636463
15334643787
15334649891
15334659595
15334665210
15334673816
15334682056
15334689991
15334698291
15334706043
15334714466
15334723011
15334729663
15334737232
15334743946
15334750415
15334760852
15334768665
15334776599
15334784107
15334792957
15334801196
15334809619
15334819385
15334829334
15334842090
15334854236
15334862415
15334872058
15334879748
15334887073
15334894580
15334902087
15334908923
15334916369
15334923327
15334930713
15334937915
15334946582
15334957141
15334963122
15334971484
15334979907
15334986621
15334996569
15335003222
15335011035
15335023364
15335031787
15335038439
15335045520
15335052355
15335058093
15335062853
15335069079
15335075060
15335083239
15335088976
15335100390
15335106005
15335110644
15335115466
15335121508
15335126818
15335135302
15335141894
15335146899
15335152697
15335157397
15335162768
15335168200
15335174059
15335179125
15335185290
15335193041
15335198473
15335202624
15335209460
15335214770
15335220080
15335227160
15335231981
15335237658
15335242907
15335248034
15335253954
15335258410
15335263414
15335269030
15335274218
15335279467
15335284777
15335288439
15335295885
15335299974
15335305590
15335313158
15335318956
15335323595
15335328905
15335333971
15335339769
15335343126
15335352220
15335361559
15335369432
15335376879
15335384508
15335390611
15335400865
15335407823
15335417467
15335423998
15335435960
15335440416
15335448900
15335458360
15335466478
15335473497
15335481615
15335493272
15335502428
15335510179
15335521104
15335528062
15335539232
15335549180
15335557115
15335564561
15335574998
15335583177
15335592454
15335601121
15335605516
15335617173
15335624681
15335632981
15335640000
15335647630
15335655076
15335663194
15335673142
15335681626
15335689012
15335695054
15335704942
15335713059
15335719773
15335727464
15335734483
15335742417
15335751694
15335758286
15335766770
15335773789
15335780076
15335786729
15335794724
15335802292
15335809556
15335817978
15335825303
15335832383
15335839768
15335847580
15335854905
15335861924
15335869736
15335879319
15335887375
15335894761
15335902207
15335909958
15335917404
15335924973
15335933701
15335942551
15335952500
15335959641
15335967575
15335974106
15335981552
15335989060
15335996506
15336005295
15336014145
15336022385
15336030441
15336036850
15336043564
15336050400
15336058762
15336066208
15336075058
15336082626
15336090866
15336098251
15336106247
15336112900
15336119797
15336127243
15336136764
15336144150
15336153122
15336160263
15336167526
15336174911
15336182235
15336188705
15336198532
15336206344
15336213241
15336221908
15336228439
15336236007
15336244369
15336251754
15336259811
15336267928
15336274581
15336283614
15336290450
15336301376
15336311141
15336320052
15336329147
15336338424
15336349715
15336356673
15336366866
15336373336
15336380904
15336388595
15336398910
15336405562
15336413131
15336420211
15336430037
15336436385
15336445662
15336453780
15336461409
15336468734
15336475997
15336484420
15336494307
15336502547
15336509993
15336518843
15336526290
15336534529
15336542220
15336550582
15336557479
15336563338
15336573531
15336582625
15336590498
15336599654
15336607161
15336616316
15336623335
15336632002
15336640364
15336649092
15336657210
15336664839
15336672224
15336679671
15336683577
15336693465
15336702559
15336710432
15336718306
15336729658
15336735029
15336744124
15336750715
15336757917
15336765242
15336770308
15336775190
15336780378
15336785994
15336791182
15336797834
15336801435
15336808088
15336815168
15336819319
15336825300
15336829450
15336833601
15336838728
15336844160
15336849958
15336855390
15336861372
15336867353
15336873152
15336878217
15336882429
15336888044
15336894758
15336900129
15336904340
15336910261
15336915754
15336922041
15336928022
15336933759
15336938459
15336943952
15336949323
15336954511
15336959150
15336965253
15336970136
15336975751
15336983320
15336990278
15336993757
15337007245
15337012922
15337016889
15337025556
15337031720
15337037214
15337044782
15337052411
15337056623
15337067609
15337076703
15337085004
15337089948
15337100446
15337108258
15337118878
15337127545
15337135663
15337143231
15337151044
15337157086
15337166364
15337172284
15337179791
15337188641
15337195599
15337203290
15337210553
15337218732
15337225873
15337234418
15337241803
15337251630
15337256879
15337275250
15337283978
15337291913
15337298810
15337306439
15337314374
15337321332
15337327313
15337334210
15337341656
15337350628
15337358441
15337366742
15337373700
15337382122
15337392193
15337400128
15337409771
15337416546
15337424786
15337431805
15337439068
15337448834
15337456951
15337464398
15337472576
15337480877
15337488079
15337492107
15337501812
15337508953
15337517803
15337527142
15337535748
15337542156
15337549663
15337556438
15337563702
15337573284
15337578777
15337588055
15337595562
15337604534
15337610760
15337619915
15337627483
15337634563
15337642803
15337650310
15337657207
15337664348
15337670696
15337680217
15337686748
15337695171
15337701641
15337707927
15337715496
15337724102
15337730144
15337741008
15337751323
15337759929
15337767742
15337776225
15337788554
15337796916
15337804607
15337811382
15337819255
15337830547
15337837871
15337844218
15337851298
15337858256
15337866801
15337873637
15337880839
15337890178
15337897746
15337905986
15337913859
15337923259
15337929484
15337938945
15337949199
15337958354
15337966410
15337972941
15337984050
15337992594
15338000834
15338008036
15338015971
15338023417
15338032389
15338040812
15338048319
15338058817
15338065775
15338074198
15338081095
15338088664
15338097575
15338104960
15338112467
15338119547
15338129557
15338136820
15338143717
15338150309
15338159647
15338168375
15338176005
15338183573
15338191019
15338199930
15338206705
15338215738
15338223246
15338229715
15338239298
15338245340
15338252604
15338261759
15338267313
15338276102
15338283670
15338292582
15338299906
15338306742
15338314676
15338322245
15338329569
15338336771
15338344583
15338352457
15338360208
15338367471
15338374613
15338381143
15338388223
15338394327
15338405069
15338409341
15338418436
15338426187
15338432291
15338436563
15338441812
15338444925
15338453653
15338458780
15338463663
15338468118
15338473001
15338477640
15338483072
15338489297
15338496499
15338502237
15338507791
15338512735
15338520669
15338527200
15338535318
15338540323
15338544717
15338549356
15338553750
15338558023
15338561868
15338565835
15338571695
15338576455
15338580362
15338585977
15338589151
15338595010
15338599465
15338605020
15338611795
15338618630
15338625344
15338631448
15338639138
15338646646
15338652627
15338658730
15338663674
15338668313
15338673562
15338678262
15338683511
15338688577
15338695107
15338703957
15338710854
15338716958
15338725259
15338731667
15338738381
15338745278
15338751687
15338758218
15338763100
15338771157
15338777749
15338783730
15338793740
15338801064
15338807107
15338812661
15338820290
15338827126
15338832558
15338840249
15338847878
15338854592
15338860573
15338867348
15338872597
15338880226
15338885842
15338893776
15338900307
15338906899
15338914223
15338919960
15338926918
15338933632
15338939736
15338947426
15338954140
15338960304
15338967934
15338974465
15338980202
15338989235
15338997902
15339006569
15339012978
15339019997
15339028114
15339034462
15339043312
15339053322
15339060890
15339067848
15339075172
15339083534
15339093605
15339101417
15339110817
15339123390
15339131080
15339140052
15339149513
15339156288
15339161598
15339170448
15339178260
15339185585
15339193214
15339200538
15339206825
15339215248
15339222267
15339231483
15339239723
15339246864
15339255958
15339263160
15339270423
15339279517
15339287086
15339293800
15339301551
15339309303
15339316261
15339322181
15339329200
15339338111
15339345252
15339351112
15339359778
15339366187
15339373084
15339379554
15339386939
15339396155
15339403968
15339412147
15339418433
15339427222
15339432776
15339440894
15339448462
15339455542
15339461463
15339468665
15339483619
15339491126
15339497657
15339504615
15339512061
15339520850
15339528296
15339536231
15339543616
15339550452
15339558020
15339564429
15339571570
15339578284
15339586218
15339595679
15339603369
15339611304
15339618445
15339627295
15339633276
15339640784
15339648596
15339658301
15339665198
15339672095
15339680517
15339687720
15339695471
15339703772
15339714148
15339721594
15339728247
15339735754
15339744787
15339753088
15339760046
15339767370
15339781591
15339789465
15339796484
15339804724
15339813208
15339821142
15339828832
15339837011
15339848120
15339856359
15339865270
15339875219
15339882971
15339890539
15339900304
15339907934
15339917883
15339924718
15339936681
15339944494
15339952245
15339959142
15339966772
15339975439
15339982824
15339989355
15339998266
15340005956
15340012243
15340018468
15340023595
15340029882
15340034581
15340040868
15340044957
15340051305
15340054174
15340066808
15340072728
15340078038
15340083104
15340089940
15340096105
15340101171
15340106176
15340113072
15340117894
15340124852
15340129186
15340135106
15340141332
15340147191
15340152318
15340158544
15340164647
15340170262
15340175206
15340182103
15340188329
15340191991
15340199193
15340208043
15340217381
15340223180
15340229039
15340234715
15340240514
15340245885
15340252415
15340257970
15340266453
15340271458
15340276829
15340282811
15340289647
15340294835
15340300084
15340308079
15340315892
15340323155
15340329075
15340339329
15340345860
15340353672
15340362095
15340370030
15340378270
15340386753
15340395237
15340401158
15340409947
15340414524
15340424473
15340429234
15340438572
15340448521
15340455357
15340461887
15340469456
15340477696
15340484531
15340491489
15340498875
15340508030
15340515476
15340522739
15340530308
15340538425
15340550510
15340558872
15340569675
15340578342
15340589756
15340597019
15340605503
15340613193
15340623691
15340630893
15340641269
15340647861
15340655246
15340661960
15340669345
15340676303
15340684360
15340692050
15340699375
15340706211
15340712802
15340721652
15340728916
15340735385
15340742587
15340749973
15340758212
15340764865
15340773044
15340780551
15340786289
15340795383
15340800327
15340808322
15340816318
15340824191
15340831515
15340839511
15340847079
15340852450
15340859958
15340868991
15340876010
15340884372
15340892611
15340900485
15340906650
15340914035
15340922030
15340930392
15340937716
15340943393
15340952365
15340958957
15340970736
15340980136
15340988375
15340994662
15341002536
15341011569
15341019808
15341031344
15341039279
15341046359
15341054293
15341061495
15341069308
15341077975
15341088717
15341095187
15341103243
15341110873
15341117464
15341126437
15341132479
15341140658
15341148531
15341155672
15341163851
15341173128
15341178377
15341188875
15341194979
15341202791
15341211702
15341218905
15341226961
15341233980
15341242281
15341252535
15341257418
15341268404
15341276583
15341284029
15341292025
15341299776
15341307711
15341316133
15341323885
15341331758
15341341097
15341352083
15341360811
15341368318
15341377107
15341385774
15341395174
15341403047
15341411592
15341418916
15341426363
15341432344
15341441133
15341449556
15341457551
15341466340
15341474458
15341480623
15341488252
15341495271
15341503023
15341511873
15341518159
15341527253
15341537324
15341544770
15341552217
15341558992
15341566133
15341573030
15341583528
15341589448
15341598603
15341604463
15341611665
15341621247
15341628877
15341636872
15341644868
15341652741
15341662995
15341670197
15341678681
15341686189
15341694550
15341703217
15341710725
15341718903
15341725495
15341732758
15341738007
15341743684
15341748200
15341754304
15341759370
15341766022
15341772370
15341780610
15341784638
15341791413
15341795624
15341802887
15341807099
15341814484
15341820466
15341825959
15341831574
15341837006
15341842377
15341847687
15341854340
15341859772
15341866303
15341872040
15341878022
15341883820
15341889557
15341895722
15341901642
15341907807
15341915497
15341918976
15341926056
15341931793
15341936676
15341943085
15341948700
15341954682
15341959869
15341966217
15341972626
15341977997
15341983185
15341990204
15341995575
15342001556
15342006866
15342013031
15342017914
15342023590
15342031097
15342038788
15342049286
15342058014
15342066192
15342076324
15342084381
15342093292
15342105194
15342111297
15342121612
15342130523
15342138153
15342146515
15342156158
15342162933
15342170257
15342178192
15342188385
15342193817
15342204681
15342211151
15342221466
15342226959
15342237579
15342244598
15342252960
15342261504
15342269622
15342279327
15342287505
15342294891
15342303252
15342313018
15342321441
15342328826
15342337127
15342345916
15342354095
15342362762
15342371123
15342379058
15342388030
15342396941
15342405242
15342414092
15342422210
15342429351
15342437651
15342446807
15342455230
15342463286
15342471709
15342479277
15342487578
15342495940
15342504302
15342514311
15342523100
15342530303
15342538909
15342547820
15342556242
15342562773
15342572722
15342579314
15342588408
15342595915
15342604094
15342614897
15342623259
15342629851
15342639128
15342650297
15342657622
15342668181
15342675505
15342685576
15342694365
15342701994
15342709440
15342716887
15342725493
15342733854
15342741606
15342749845
15342758451
15342767302
15342775724
15342784025
15342788359
15342799467
15342806120
15342814665
15342822294
15342831205
15342840910
15342850858
15342857572
15342866361
15342873991
15342884733
15342891386
15342901945
15342911466
15342920499
15342929044
15342938016
15342943082
15342955717
15342963773
15342972684
15342979154
15342989103
15342998441
15343006742
15343014432
15343022855
15343030118
15343042203
15343051969
15343060514
15343068631
15343076810
15343084256
15343092740
15343101529
15343109586
15343118802
15343127286
15343135770
15343144132
15343152554
15343162991
15343170987
15343178189
15343187039
15343194485
15343204373
15343211880
15343220486
15343228238
15343235867
15343246060
15343254178
15343262051
15343268765
15343279324
15343285061
15343295193
15343301846
15343311917
15343319546
15343328091
15343337613
15343345242
15343351895
15343362271
15343373257
15343381069
15343390713
15343398159
15343405911
15343415676
15343424038
15343432034
15343440518
15343448574
15343457058
15343467129
15343473537
15343480862
15343489773
15343497707
15343507168
15343515224
15343521633
15343529201
15343532986
15343539455
15343544338
15343549343
15343553432
15343560024
15343565395
15343571499
15343575832
15343582485
15343588466
15343592495
15343598964
15343604946
15343610683
15343616665
15343621303
15343626796
15343632290
15343638088
15343645534
15343650905
15343656459
15343661647
15343666774
15343673183
15343680751
15343686977
15343694911
15343701442
15343707607
15343713954
15343719814
15343725246
15343730190
15343736842
15343741725
15343746669
15343751552
15343756801
15343763576
15343768398
15343774013
15343779567
15343785976
15343791286
15343796046
15343801173
15343810329
15343817653
15343824550
15343832179
15343840907
15343848720
15343855739
15343863734
15343872523
15343878688
15343887660
15343894862
15343903468
15343910121
15343917079
15343925319
15343934840
15343943202
15343950831
15343960353
15343967555
15343976161
15343983607
15343991725
15343999293
15344006983
15344015284
15344023951
15344033656
15344041895
15344049952
15344059535
15344067408
15344075465
15344083704
15344093958
15344101649
15344110560
15344118067
15344124659
15344133021
15344141932
15344150294
15344158472
15344166529
15344175623
15344181238
15344188807
15344197657
15344205164
15344214991
15344222925
15344231775
15344239222
15344247278
15344255213
15344262781
15344270777
15344278650
15344286951
15344294397
15344300501
15344310816
15344316309
15344326441
15344334558
15344340967
15344349817
15344357629
15344366357
15344377100
15344382471
15344393762
15344402246
15344409326
15344416833
15344424707
15344437036
15344445154
15344453760
15344463098
15344472436
15344480310
15344488794
15344496789
15344511987
15344519494
15344527551
15344534570
15344541894
15344548608
15344555993
15344562158
15344572229
15344580957
15344588708
15344594506
15344603295
15344609094
15344617150
15344627831
15344635644
15344641747
15344651574
15344658105
15344666528
15344673913
15344682153
15344691857
15344697594
15344705712
15344713464
15344726342
15344732751
15344742760
15344748315
15344755822
15344765038
15344772484
15344778832
15344786278
15344796593
15344806542
15344817467
15344827538
15344838341
15344850609
15344858605
15344867760
15344877342
15344884056
15344892052
15344898827
15344908531
15344917687
15344924828
15344931969
15344939293
15344948021
15344955589
15344962853
15344970665
15344978783
15344986900
15344994408
15345001060
15345010582
15345016502
15345025780
15345032616
15345040611
15345049095
15345056968
15345065147
15345072532
15345078575
15345086509
15345096458
15345104210
15345110862
15345118370
15345126793
15345134178
15345140831
15345148887
15345155235
15345164207
15345170066
15345179649
15345185508
15345193565
15345203269
15345211326
15345218650
15345227134
15345237510
15345246177
15345252952
15345260032
15345271323
15345279197
15345285850
15345291709
15345300559
15345307212
15345311668
15345318442
15345323020
15345327720
15345333091
15345338950
15345343711
15345348044
15345352561
15345358420
15345363547
15345368857
15345376914
15345382346
15345389792
15345395408
15345399985
15345406150
15345410300
15345416770
15345423178
15345429099
15345434287
15345440451
15345445761
15345451621
15345461508
15345467490
15345472434
15345478293
15345483969
15345489218
15345494650
15345500571
15345506064
15345511252
15345518515
15345521384
15345528891
15345534201
15345539450
15345543601
15345549826
15345554831
15345560507
15345567160
15345575705
15345582297
15345592306
15345598044
15345604697
15345613730
15345620566
15345629599
15345636618
15345644308
15345650229
15345658041
15345663229
15345671835
15345678732
15345688131
15345696432
15345704062
15345713461
15345721090
15345727499
15345736044
15345745077
15345753134
15345761068
15345769308
15345778341
15345786459
15345794088
15345801534
15345808309
15345815817
15345823507
15345831259
15345838827
15345846578
15345852377
15345861349
15345867269
15345876852
15345882833
15345891439
15345897298
15345904928
15345911703
15345920248
15345927816
15345936544
15345944356
15345953512
15345960775
15345972371
15345980611
15345989095
15345993795
15346009603
15346015889
15346024739
15346032247
15346039632
15346046346
15346056050
15346062947
15346070027
15346077535
15346085408
15346093221
15346100545
15346108663
15346116109
15346123555
15346131307
15346139790
15346147786
15346154988
15346162434
15346170613
15346178120
15346185750
15346193135
15346200459
15346208455
15346215901
15346223714
15346230855
15346238301
15346247517
15346254780
15346261250
15346269002
15346275105
15346283162
15346292622
15346300129
15346306172
15346314961
15346320942
15346328755
15346335774
15346343647
15346352742
15346359577
15346368855
15346378865
15346382832
15346391499
15346398457
15346406819
15346413654
15346423542
15346430073
15346439655
15346445942
15346452839
15346461689
15346468586
15346475300
15346484760
15346492329
15346498798
15346507465
15346515522
15346523579
15346531025
15346539142
15346547443
15346555805
15346566547
15346574604
15346579059
15346589374
15346596332
15346604877
15346612323
15346621479
15346629047
15346637470
15346645343
15346653705
15346661762
15346669940
15346678241
15346686603
15346694965
15346704486
15346712726
15346720294
15346728473
15346732745
15346743732
15346750812
15346759967
15346768085
15346777179
15346785541
15346795245
15346805072
15346811847
15346821429
15346829303
15346836749
15346844867
15346853900
15346860003
15346868487
15346875567
15346882220
15346888385
15346898272
15346904803
15346914447
15346920794
15346928241
15346934710
15346942034
15346950396
15346958453
15346968157
15346975604
15346983416
15346990679
15346995867
15347001727
15347006976
15347013384
15347019122
15347024310
15347029620
15347034808
15347040179
15347046038
15347050982
15347056841
15347062273
15347068560
15347073870
15347081133
15347086321
15347092974
15347098345
15347103167
15347108904
15347116289
15347122393
15347127520
15347135027
15347140642
15347146319
15347151262
15347156328
15347159441
15347166460
15347173113
15347179033
15347183733
15347189165
15347193743
15347199663
15347204973
15347210711
15347217852
15347223345
15347228411
15347233232
15347240496
15347244829
15347251787
15347257158
15347266008
15347273271
15347279314
15347284624
15347290361
15347297930
15347304338
15347312700
15347320818
15347329241
15347337724
15347344133
15347351884
15347359270
15347368730
15347376237
15347386125
15347395769
15347403459
15347411394
15347419328
15347426897
15347433916
15347441850
15347451921
15347460832
15347468889
15347477983
15347486650
15347495012
15347500871
15347509721
15347520036
15347531755
15347538713
15347548417
15347556779
15347564286
15347573014
15347580400
15347588212
15347596696
15347604447
15347612565
15347620561
15347627274
15347636918
15347642106
15347649613
15347659501
15347667069
15347674882
15347685014
15347693497
15347700944
15347709244
15347716813
15347724808
15347734208
15347741959
15347750016
15347757828
15347765946
15347773514
15347781754
15347790665
15347798905
15347805863
15347813919
15347820328
15347830460
15347836869
15347844498
15347855179
15347863358
15347869889
15347878372
15347885697
15347893631
15347901749
15347909989
15347920303
15347929031
15347937210
15347945877
15347952652
15347959244
15347968948
15347974930
15347985184
15347992874
15348001175
15348008377
15348016495
15348025345
15348031448
15348040848
15348049087
15348055679
15348062881
15348072891
15348079971
15348089798
15348095291
15348105545
15348112197
15348120559
15348128738
15348136856
15348143936
15348152236
15348161331
15348169998
15348177566
15348185623
15348192336
15348200759
15348208328
15348216567
15348224075
15348231338
15348242629
15348248428
15348256728
15348266128
15348274795
15348282790
15348290786
15348297622
15348305923
15348312514
15348320327
15348334243
15348349074
15348355422
15348365188
15348372634
15348383254
15348389602
15348399062
15348405715
15348413344
15348420790
15348428420
15348435988
15348444106
15348452712
15348460158
15348467055
15348476760
15348483290
15348491469
15348499342
15348506789
15348515395
15348522902
15348530898
15348538344
15348545668
15348553542
15348561049
15348568922
15348575392
15348582167
15348591627
15348599074
15348605421
15348613295
15348620070
15348628248
15348635451
15348644667
15348655592
15348663099
15348670424
15348677931
15348684828
15348692335
15348700941
15348706434
15348716078
15348724623
15348732069
15348740919
15348748915
15348759230
15348767225
15348776319
15348782667
15348789198
15348794630
15348799024
15348805982
15348810255
15348816297
15348822889
15348828260
15348831495
15348840040
15348845594
15348850721
15348853407
15348860059
15348864881
15348871900
15348876234
15348881238
15348888074
15348892652
15348897169
15348903882
15348909009
15348914503
15348920789
15348925977
15348932447
15348937086
15348943372
15348947278
15348953748
15348958570
15348963819
15348968519
15348975904
15348980237
15348985242
15348990918
15348996045
15349000745
15349005750
15349010938
15349018262
15349024427
15349031934
15349037793
15349044019
15349049634
15349058728
15349066846
15349073499
15349080579
15349085767
15349090894
15349094800
15349100781
15349104871
15349110364
15349117871
15349122998
15349127149
15349132520
15349136975
15349142529
15349147351
15349156445
15349161938
15349168042
15349172070
15349177441
15349182324
15349188855
15349194836
15349201916
15349206982
15349211804
15349217785
15349223584
15349229687
15349234143
15349239514
15349246045
15349251660
15349257641
15349262951
15349267712
15349273571
15349277295
15349284069
15349289319
15349296399
15349301098
15349306958
15349311108
15349316418
15349320874
15349327526
15349333447
15349341320
15349345898
15349352856
15349357434
15349364880
15349374584
15349392834
15349401623
15349412670
15349419994
15349427563
15349436657
15349446606
15349454845
15349462475
15349467968
15349473217
15349478344
15349484814
15349490185
15349495617
15349502270
15349508617
15349513988
15349519298
15349524792
15349529430
15349534679
15349540783
15349544872
15349550976
15349555614
15349560070
15349564708
15349569408
15349574779
15349579662
15349586010
15349591015
15349596202
15349602672
15349607738
15349612682
15349618724
15349622814
15349631969
15349637096
15349643199
15349649669
15349655590
15349658336
15349666820
15349674083
15349678417
15349682384
15349687999
15349692943
15349697643
15349702953
15349709850
15349717174
15349721751
15349727062
15349731212
15349737315
15349741771
15349747020
15349753490
15349758556
15349763194
15349770030
15349774791
15349780345
15349785472
15349790721
15349798411
15349803416
15349808726
15349813426
15349818248
15349824046
15349830638
15349835704
15349841563
15349847423
15349853099
15349858592
15349864512
15349869822
15349874095
15349879588
15349885203
15349892588
15349897532
15349903331
15349909983
15349914317
15349920726
15349927073
15349933055
15349939219
15349944895
15349951548
15349958018
15349961741
15349968943
15349974864
15349979868
15349986094
15349992137
15350001414
15350007945
15350012949
15350019236
15350024546
15350030283
15350038706
15350044321
15350048960
15350056712
15350060435
15350067515
15350072459
15350078562
15350084849
15350092295
15350097300
15350103709
15350108958
15350115122
15350122507
15350128794
15350135752
15350141733
15350147165
15350152842
15350159128
15350163279
15350171457
15350175119
15350181894
15350188547
15350195688
15350201365
15350207590
15350214243
15350219065
15350227121
15350232553
15350239878
15350245859
15350254221
15350260385
15350266062
15350271189
15350276743
15350282724
15350288278
15350294260
15350299082
15350304453
15350310129
15350315073
15350320261
15350326730
15350332163
15350338632
15350344064
15350349496
15350354745
15350360239
15350365732
15350371835
15350377634
15350384042
15350389657
15350395212
15350400400
15350405160
15350410348
15350416025
15350421884
15350427194
15350432321
15350436532
15350444223
15350446786
15350453805
15350463327
15350467294
15350472848
15350479562
15350484750
15350489877
15350496591
15350503305
15350508920
15350514779
15350522531
15350528634
15350533822
15350539682
15350544931
15350550302
15350556527
15350562142
15350568612
15350574899
15350581185
15350586556
15350592172
15350597787
15350603951
15350610421
15350615975
15350621896
15350627511
15350633187
15350638741
15350643868
15350649545
15350655099
15350662911
15350669259
15350674935
15350679757
15350687020
15350692025
15350697152
15350704110
15350711373
15350716988
15350722237
15350727730
15350731392
15350737618
15350743050
15350748421
15350753975
15350761483
15350766549
15350773140
15350779061
15350786507
15350792855
15350800667
15350808297
15350814949
15350821175
15350827523
15350833443
15350839608
15350845650
15350852791
15350857552
15350865120
15350870430
15350875801
15350880562
15350887947
15350894783
15350899971
15350906319
15350911507
15350915718
15350922676
15350926949
15350934273
15350941292
15350947273
15350951668
15350957344
15350962532
15350968391
15350974861
15350980476
15350987495
15350993416
15350996834
15351003853
15351010811
15351014412
15351021248
15351027290
15351032661
15351038826
15351045234
15351050544
15351055671
15351060920
15351068184
15351072761
15351078376
15351085273
15351091194
15351097602
15351103889
15351109260
15351115974
15351122200
15351126655
15351133735
15351139656
15351144905
15351150825
15351157661
15351163398
15351167976
15351173652
15351179572
15351187507
15351190681
15351197334
15351202400
15351208198
15351215156
15351220527
15351225959
15351231818
15351238288
15351242377
15351248481
15351253547
15351261176
15351266425
15351271918
15351278632
15351284431
15351289252
15351294745
15351300178
15351305976
15351310493
15351315925
15351321784
15351329596
15351335639
15351342475
15351347602
15351353339
15351358649
15351365546
15351370978
15351377143
15351382941
15351390815
15351396369
15351401557
15351407843
15351414374
15351420966
15351430854
15351437140
15351442511
15351449835
15351455329
15351460639
15351466193
15351471747
15351477484
15351483344
15351489874
15351494879
15351503180
15351507636
15351512152
15351523810
15351530096
15351536505
15351542914
15351548468
15351554083
15351560492
