14967957409
14967964428
14967972790
14967980968
14967988110
14967994213
14968001171
14968008068
14968015453
14968022228
14968029125
14968035229
14968041332
14968048046
14968054577
14968060741
14968066906
14968073620
14968079418
14968086864
14968094127
14968102062
14968110302
14968119091
14968128185
14968136180
14968144298
14968152538
14968160045
14968171459
14968182811
14968191173
14968200817
14968212352
14968222301
14968231822
14968243297
14968255138
14968264781
14968273204
14968287242
14968295970
14968306712
14968317027
14968325267
14968338023
14968350963
14968361278
14968372630
14968385753
14968393199
14968402537
14968410228
14968417552
14968425242
14968433116
14968441844
14968449717
14968457957
14968466014
14968473826
14968480296
14968488902
14968496775
14968505137
14968512705
14968520274
14968528208
14968536204
14968543833
14968550120
14968560191
14968569407
14968576060
14968583994
14968590952
14968598887
14968605784
14968611948
14968621714
14968628733
14968639963
14968647715
14968661570
14968672007
14968680430
14968690256
14968696787
14968708323
14968718454
14968728159
14968735666
14968745615
14968753672
14968764597
14968772165
14968782968
14968792368
14968802683
14968815500
14968825998
14968836740
14968846567
14968856943
14968864084
14968875070
14968885080
14968896860
14968907419
14968915292
14968927499
14968938302
14968947519
14968956003
14968964853
14968977731
14968985666
14968997079
14969002328
14969015756
14969025094
14969034005
14969045724
14969053231
14969064218
14969071603
14969084115
14969093514
14969106332
14969119943
14969136361
14969146371
14969158700
14969170602
14969181710
14969193124
14969206917
14969218941
14969230233
14969239205
14969248910
14969257577
14969274178
14969284188
14969290474
14969298531
14969305733
14969312447
14969319222
14969326485
14969332344
14969338875
14969346016
14969352303
14969358040
14969365242
14969370674
14969378853
14969382759
14969390755
14969396065
14969404732
14969412972
14969419747
14969426399
14969433235
14969439034
14969445198
14969451302
14969459114
14969466133
14969472664
14969479500
14969484810
14969492622
14969497810
14969505806
14969513435
14969519417
14969526253
14969533272
14969538765
14969545540
14969550972
14969559456
14969564949
14969571907
14969577278
14969585273
14969591987
14969599006
14969606575
14969611824
14969620613
14969627327
14969633918
14969641059
14969646675
14969653572
14969661018
14969668098
14969675605
14969682929
14969689826
14969695320
14969704597
14969709907
14969718391
14969727912
14969735420
14969742317
14969749519
14969757453
14969763190
14969770759
14969777534
14969784431
14969793159
14969799750
14969808662
14969813300
14969822578
14969829230
14969837714
14969847175
14969855475
14969861945
14969868232
14969873298
14969879462
14969884589
14969890509
14969896857
14969903144
14969907477
14969913276
14969917670
14969923041
14969927192
14969933112
14969937629
14969943549
14969948188
14969953559
14969957892
14969963629
14969968207
14969975043
14969980597
14969984931
14969989569
14969996405
14970000128
14970006964
14970011664
14970017218
14970022467
14970029303
14970034247
14970039435
14970044806
14970051093
14970056952
14970062140
14970068732
14970074774
14970080511
14970084235
14970091559
14970095770
14970103094
14970106695
14970112799
14970120367
14970125555
14970130194
14970137762
14970143194
14970151922
14970160040
14970168219
14970174749
14970180121
14970190680
14970195501
14970206244
14970211187
14970222296
14970229254
14970238165
14970245977
14970255804
14970261053
14970271002
14970277960
14970286627
14970292852
14970300421
14970309332
14970318365
14970324407
14970333440
14970339727
14970348638
14970355047
14970362005
14970369878
14970377447
14970385931
14970394720
14970402410
14970409368
14970418096
14970424444
14970432561
14970441411
14970448308
14970456609
14970464544
14970471441
14970480169
14970486760
14970493657
14970503057
14970510808
14970518438
14970528752
14970536260
14970543889
14970553777
14970560735
14970569585
14970577336
14970587590
14970594304
14970606023
14970618352
14970623418
14970632207
14970639531
14970648808
14970655705
14970665654
14970672063
14970679875
14970688664
14970691350
14970703557
14970713750
14970720158
14970728398
14970735051
14970744389
14970750920
14970758610
14970769169
14970774846
14970785466
14970790532
14970800724
14970808171
14970816594
14970823552
14970831608
14970838383
14970847721
14970854191
14970862492
14970870610
14970877568
14970885990
14970891422
14970901554
14970906925
14970915959
14970922428
14970930912
14970938053
14970945927
14970952335
14970960331
14970967533
14970977055
14970983402
14970992435
14970998295
14971005192
14971012821
14971020634
14971028873
14971035038
14971042728
14971047489
14971057377
14971062076
14971071781
14971076786
14971086734
14971094181
14971101505
14971108463
14971117801
14971125492
14971133731
14971139469
14971147464
14971156253
14971164310
14971170169
14971177738
14971185428
14971190982
14971199161
14971203616
14971213748
14971220157
14971229556
14971238040
14971245731
14971254459
14971260623
14971267215
14971275150
14971282657
14971290347
14971298892
14971305240
14971311404
14971323855
14971331424
14971339541
14971346194
14971356326
14971366458
14971372867
14971380801
14971389346
14971395388
14971404422
14971410342
14971420718
14971427066
14971435061
14971442202
14971448550
14971456729
14971463076
14971470462
14971477664
14971485171
14971491335
14971498416
14971505068
14971512759
14971520144
14971527285
14971535342
14971542666
14971548220
14971555483
14971560061
14971566164
14971569277
14971576784
14971580752
14971587771
14971593386
14971599062
14971603518
14971608645
14971613467
14971619021
14971623415
14971632021
14971636660
14971641665
14971646181
14971652224
14971656801
14971662966
14971667238
14971674013
14971678713
14971682192
14971689272
14971692629
14971698732
14971702272
14971709414
14971715761
14971722048
14971726931
14971731508
14971738039
14971743105
14971747377
14971752870
14971757814
14971764345
14971769289
14971774111
14971779726
14971784792
14971789491
14971793031
14971800661
14971805055
14971811281
14971815920
14971821352
14971826784
14971832277
14971836549
14971845583
14971853212
14971859865
14971868227
14971875551
14971883302
14971885866
14971897279
14971901674
14971912599
14971920961
14971928773
14971936220
14971942140
14971949281
14971957887
14971964967
14971971376
14971981141
14971989259
14971997071
14972004945
14972014466
14972022950
14972029542
14972037782
14972044007
14972054078
14972060975
14972070558
14972078614
14972086366
14972094361
14972102967
14972112794
14972125733
14972136659
14972146119
14972151307
14972161805
14972166199
14972175660
14972184022
14972191590
14972193970
14972204896
14972208985
14972219544
14972226990
14972232911
14972241456
14972249024
14972257081
14972263123
14972269410
14972278443
14972285462
14972291443
14972298462
14972308289
14972313416
14972323731
14972330139
14972336548
14972344788
14972351258
14972360169
14972367615
14972373474
14972381104
14972388794
14972395752
14972403565
14972410339
14972418518
14972427185
14972435730
14972438416
14972448975
14972453491
14972464172
14972469055
14972479431
14972484558
14972493469
14972501709
14972507629
14972516907
14972523865
14972529968
14972538330
14972547668
14972557068
14972563842
14972570312
14972578064
14972585632
14972593994
14972601135
14972609069
14972616943
14972625732
14972632568
14972638366
14972642944
14972652832
14972657653
14972668823
14972674560
14972684692
14972691039
14972698547
14972706603
14972714660
14972720947
14972727599
14972736511
14972745177
14972751952
14972760680
14972766418
14972775512
14972783935
14972790832
14972799804
14972815185
14972823058
14972830199
14972836669
14972845153
14972853209
14972861327
14972867919
14972878722
14972887816
14972896544
14972906798
14972917296
14972927428
14972937621
14972946410
14972954711
14972961547
14972968993
14972974913
14972981627
14972989562
14972999327
14973007689
14973022154
14973032835
14973041319
14973047423
14973055174
14973063231
14973068602
14973078307
14973086363
14973093260
14973098570
14973106444
14973114195
14973120787
14973127867
14973137938
14973144102
14973151976
14973159178
14973165159
14973172300
14973179869
14973185240
14973193724
14973201170
14973207884
14973215513
14973221556
14973229002
14973237303
14973243650
14973252012
14973257810
14973260801
14973267210
14973271604
14973278623
14973283018
14973288816
14973293943
14973299253
14973303892
14973309446
14973313719
14973319395
14973323423
14973328733
14973334837
14973341489
14973346006
14973352903
14973356809
14973361387
14973366575
14973371702
14973377561
14973383359
14973387449
14973393247
14973397214
14973402158
14973408689
14973412961
14973418455
14973424253
14973431211
14973434934
14973440427
14973445981
14973450193
14973454831
14973461484
14973465757
14973473691
14973478330
14973483396
14973489499
14973495969
14973500669
14973506955
14973512509
14973518796
14973525205
14973532651
14973541257
14973548703
14973557004
14973563779
14973571408
14973579770
14973587888
14973596005
14973602170
14973610715
14973616513
14973623044
14973631345
14973638852
14973646970
14973653744
14973662717
14973669125
14973675778
14973683652
14973690671
14973697140
14973706296
14973715512
14973723202
14973734006
14973744809
14973752621
14973765255
14973771908
14973780758
14973788205
14973796994
14973804867
14973810910
14973816952
14973825253
14973832028
14973840145
14973846981
14973855648
14973862179
14973868466
14973876034
14973882382
14973889034
14973898556
14973907711
14973918270
14973926327
14973934139
14973942379
14973949825
14973957211
14973965267
14973971065
14973979610
14973987911
14973993709
14974001400
14974008785
14974017330
14974026302
14974034908
14974043209
14974049801
14974056698
14974064449
14974072200
14974078487
14974088131
14974096553
14974103756
14974112056
14974119197
14974126094
14974132808
14974140438
14974147762
14974156917
14974163936
14974171443
14974179866
14974189082
14974195491
14974202937
14974211910
14974219600
14974226619
14974233211
14974241817
14974250056
14974257808
14974266109
14974276546
14974285274
14974293086
14974302363
14974309993
14974317744
14974324336
14974334346
14974342647
14974350886
14974360774
14974367488
14974376338
14974382319
14974390498
14974396968
14974403804
14974412654
14974419429
14974427729
14974432856
14974443110
14974451350
14974457331
14974466426
14974474909
14974480769
14974489253
14974497187
14974505061
14974512690
14974520380
14974528254
14974535883
14974542353
14974549982
14974556574
14974564265
14974571894
14974578364
14974589167
14974595881
14974604243
14974611689
14974619806
14974625727
14974640009
14974647638
14974655207
14974662409
14974671625
14974678156
14974685175
14974694330
14974701105
14974707025
14974716547
14974725458
14974731501
14974739740
14974746637
14974754267
14974761713
14974769953
14974777948
14974786188
14974791742
14974800104
14974808344
14974815973
14974821527
14974829095
14974834161
14974844110
14974851129
14974860773
14974865533
14974874322
14974880853
14974888666
14974897699
14974905939
14974913080
14974919000
14974923456
14974930475
14974934686
14974940484
14974944940
14974953973
14974958856
14974964105
14974969659
14974974664
14974980706
14974984002
14974989618
14974995843
14975003656
14975006646
14975015985
14975020318
14975028619
14975033380
14975041741
14975048455
14975053643
14975057061
14975066216
14975071221
14975080132
14975086907
14975090569
14975099664
14975104485
14975110772
14975115594
14975121941
14975126763
14975133599
14975139153
14975144769
14975149529
14975155144
14975158013
14975163933
14975167290
14975173211
14975178826
14975184014
14975189568
14975193047
14975200249
14975206475
14975213189
14975219414
14975228020
14975235894
14975243584
14975251214
14975257439
14975264336
14975274163
14975279229
14975289299
14975296074
14975302788
14975311211
14975317375
14975325005
14975331841
14975339043
14975347649
14975355766
14975363274
14975370537
14975378777
14975384514
14975391960
14975399773
14975407707
14975414238
14975423332
14975429985
14975439262
14975445854
14975450859
14975462028
14975467277
14975479729
14975484917
14975495354
14975502434
14975510246
14975519768
14975527519
14975534050
14975542473
14975548271
14975557731
14975566887
14975573722
14975582756
14975590690
14975597221
14975605339
14975614311
14975622673
14975629020
14975636466
14975644950
14975652458
14975661979
14975669120
14975678581
14975685783
14975693290
14975699943
14975710380
14975717704
14975726249
14975735770
14975745536
14975752799
14975762687
14975768668
14975776603
14975784354
14975791984
14975800773
14975807609
14975816092
14975824576
14975832206
14975836783
14975846549
14975855094
14975861503
14975869071
14975878653
14975885123
14975894400
14975899344
14975909049
14975916007
14975923331
14975930289
14975941641
14975949515
14975958670
14975966910
14975977713
14975986868
14975994437
14976001273
14976008658
14976015433
14976022269
14976028372
14976036063
14976043326
14976049429
14976057486
14976064627
14976070853
14976077994
14976085074
14976091421
14976099356
14976106070
14976113455
14976121756
14976126761
14976136343
14976142630
14976152151
14976159048
14976164419
14976173697
14976180777
14976185049
14976194021
14976200552
14976210195
14976215322
14976225332
14976232412
14976241201
14976247732
14976255850
14976262258
14976269460
14976275503
14976284475
14976290273
14976301199
14976306936
14976315054
14976325491
14976332815
14976339284
14976347341
14976354970
14976365713
14976372793
14976380239
14976386892
14976395742
14976402334
14976409292
14976416311
14976427480
14976435842
14976442983
14976450185
14976458547
14976465383
14976473256
14976480703
14976494863
14976503469
14976515126
14976532094
14976541921
14976554494
14976563222
14976568898
14976577687
14976586110
14976594228
14976603627
14976611134
14976619069
14976626698
14976631825
14976635976
14976641164
14976647511
14976653798
14976659047
14976664296
14976668324
14976674000
14976678395
14976684193
14976689808
14976694874
14976700123
14976710560
14976716725
14976721058
14976726063
14976731068
14976734974
14976741627
14976745656
14976752430
14976756642
14976761769
14976766896
14976771901
14976777699
14976781849
14976789601
14976794484
14976799794
14976805470
14976811207
14976815357
14976821583
14976826283
14976834278
14976838917
14976845448
14976849842
14976855885
14976860279
14976866078
14976872547
14976878468
14976884876
14976889332
14976896107
14976903370
14976910938
14976917408
14976925159
14976934498
14976942860
14976950672
14976958179
14976965320
14976972828
14976978809
14976986683
14976996143
14977002796
14977010731
14977016468
14977027027
14977033924
14977041614
14977049061
14977057178
14977063587
14977073352
14977082447
14977090442
14977098316
14977104541
14977113697
14977121204
14977128528
14977134387
14977143054
14977150073
14977159229
14977166431
14977176196
14977184436
14977193286
14977200000
14977208789
14977215686
14977225452
14977232471
14977244067
14977250964
14977260486
14977266650
14977274280
14977282214
14977288806
14977294787
14977304553
14977312243
14977319262
14977325061
14977332141
14977338061
14977345202
14977354724
14977361132
14977367358
14977377246
14977381945
14977391345
14977399707
14977407458
14977413745
14977421191
14977428942
14977436389
14977442431
14977449999
14977457812
14977465807
14977474413
14977480029
14977487719
14977496325
14977502673
14977508654
14977516894
14977525988
14977533190
14977541979
14977549242
14977555285
14977564135
14977570299
14977579577
14977585680
14977594347
14977602892
14977609301
14977615099
14977623766
14977629870
14977638964
14977646044
14977654833
14977660997
14977670397
14977677355
14977685106
14977691332
14977699327
14977709276
14977716417
14977723619
14977732286
14977740404
14977745897
14977754137
14977761766
14977772814
14977779100
14977787950
14977794725
14977801805
14977809984
14977817735
14977824815
14977833482
14977841417
14977849168
14977855272
14977860216
14977870836
14977875963
14977886094
14977893358
14977903123
14977913133
14977924608
14977933214
14977941026
14977950731
14977960801
14977969896
14977976060
14977983689
14977990647
14977998948
14978005662
14978015550
14978022142
14978031663
14978036363
14978045762
14978052598
14978061448
14978069627
14978077134
14978084885
14978092271
14978098191
14978105882
14978118027
14978125596
14978131943
14978139756
14978147507
14978155015
14978162888
14978168564
14978177842
14978183335
14978191697
14978200425
14978206955
14978214829
14978222275
14978228806
14978235398
14978243760
14978251694
14978259324
14978268052
14978272324
14978279221
14978286423
14978293564
14978298691
14978305832
14978310410
14978318466
14978322190
14978328415
14978332993
14978338730
14978342148
14978351425
14978355087
14978361801
14978367417
14978371872
14978375839
14978383835
14978387436
14978395187
14978399460
14978407211
14978411362
14978418991
14978423264
14978432297
14978438278
14978448410
14978456528
14978464706
14978469955
14978475815
14978480514
14978486740
14978491806
14978499923
14978505478
14978512192
14978517318
14978523788
14978531540
14978538437
14978544174
14978549728
14978554306
14978562362
14978567672
14978573898
14978580917
14978583786
14978600021
14978607894
14978614791
14978626693
14978634323
14978643783
14978650741
14978660446
14978667281
14978676009
14978684188
14978693588
14978702132
14978708053
14978714462
14978724227
14978728744
14978737411
14978744613
14978754989
14978762740
14978768661
14978775313
14978785140
14978792220
14978799666
14978805160
14978815230
14978822188
14978831710
14978836165
14978845687
14978853560
14978861312
14978866439
14978876754
14978885115
14978890792
14978897994
14978905562
14978910140
14978920516
14978931258
14978939192
14978947127
14978952986
14978960738
14978969161
14978977156
14978982710
14978991744
14979000533
14979011031
14979019270
14979026900
14979032759
14979041060
14979049971
14979059309
14979066267
14979074812
14979081343
14979088911
14979097090
14979102705
14979111555
14979118940
14979125959
14979135603
14979142195
14979150373
14979157148
14979164167
14979170698
14979180586
14979185224
14979194807
14979201277
14979209516
14979216169
14979225874
14979232588
14979244001
14979251142
14979259748
14979268476
14979275007
14979283552
14979290571
14979300031
14979307356
14979317915
14979326398
14979335004
14979342512
14979349958
14979361066
14979372114
14979378705
14979389570
14979400007
14979407270
14979412702
14979423200
14979429487
14979437299
14979446820
14979456952
14979464826
14979470014
14979480817
14979490522
14979497785
14979506513
14979514569
14979521955
14979528546
14979538617
14979547040
14979554364
14979559918
14979569501
14979575971
14979583295
14979590131
14979597699
14979603986
14979612103
14979620465
14979628155
14979632855
14979641583
14979651593
14979659039
14979665753
14979673566
14979679852
14979689129
14979696026
14979705548
14979713299
14979718853
14979728924
14979736371
14979744732
14979751751
14979760907
14979766156
14979776226
14979783001
14979790814
14979797833
14979807476
14979812359
14979821697
14979826458
14979835613
14979842083
14979850140
14979857159
14979865704
14979872601
14979880657
14979887432
14979895977
14979900616
14979909588
14979916302
14979924053
14979931011
14979940105
14979946880
14979952740
14979958233
14979964397
14979968853
14979976177
14979979961
14979987652
14979991619
14979997417
14980003460
14980009807
14980014934
14980020733
14980025127
14980030498
14980036846
14980045025
14980050151
14980057781
14980062908
14980069561
14980075176
14980082195
14980087505
14980092388
14980101299
14980106304
14980113994
14980120281
14980125896
14980130901
14980137859
14980142192
14980151714
14980158000
14980164287
14980169414
14980175151
14980180888
14980186626
14980191753
14980199321
14980204997
14980209453
14980212993
14980220744
14980224467
14980232219
14980237285
14980243022
14980248149
14980257304
14980263713
14980272685
14980277263
14980287700
14980296061
14980303691
14980308330
14980317180
14980326274
14980333659
14980340800
14980349040
14980352092
14980363871
14980372966
14980379069
14980383952
14980395915
14980403605
14980412089
14980420695
14980428935
14980435587
14980444071
14980451212
14980459818
14980468180
14980477396
14980486552
14980492960
14980500224
14980508341
14980516947
14980522868
14980532023
14980539408
14980549845
14980556620
14980565165
14980574198
14980580424
14980589213
14980597513
14980604838
14980613810
14980620890
14980630106
14980637674
14980647623
14980652506
14980662088
14980670999
14980679666
14980688394
14980694925
14980703104
14980711649
14980720133
14980726541
14980735941
14980744119
14980751077
14980758035
14980766031
14980774027
14980782449
14980790445
14980801126
14980809610
14980817972
14980829629
14980835184
14980847146
14980856485
14980864541
14980871866
14980880411
14980888955
14980895120
14980902932
14980909463
14980916787
14980922891
14980933694
14980942727
14980950906
14980957071
14980965737
14980975991
14980982339
14980988931
14980996316
14981018838
14981025430
14981038796
14981049661
14981055459
14981064919
14981071755
14981080300
14981091042
14981099343
14981107583
14981114358
14981125588
14981130959
14981139992
14981145425
14981156472
14981165932
14981172219
14981181191
14981190712
14981198464
14981204934
14981212380
14981219277
14981229287
14981233925
14981244362
14981252053
14981259987
14981264809
14981274697
14981281227
14981288857
14981296181
14981304848
14981313515
14981319679
14981326821
14981334816
14981344154
14981351723
14981359963
14981365212
14981374733
14981382301
14981390541
14981396034
14981406349
14981414955
14981421669
14981426796
14981437721
14981446266
14981454384
14981462623
14981469581
14981480507
14981486915
14981494667
14981502052
14981510292
14981520668
14981529213
14981534950
14981542701
14981548378
14981559974
14981568397
14981577064
14981587989
14981595375
14981605995
14981610938
14981621864
14981626624
14981634498
14981642433
14981648170
14981653785
14981657874
14981664222
14981669776
14981676002
14981681129
14981685645
14981692847
14981699256
14981706153
14981712257
14981718665
14981725074
14981730628
14981736060
14981741798
14981748939
14981753150
14981759437
14981763465
14981770362
14981775855
14981780982
14981787879
14981792579
14981799048
14981803687
14981809607
14981815162
14981820655
14981825110
14981830664
14981835669
14981839270
14981847205
14981853247
14981858008
14981862952
14981868872
14981874732
14981880530
14981887610
14981894141
14981899878
14981905249
14981914710
14981921301
14981926673
14981938696
14981948401
14981955481
14981965186
14981973120
14981980444
14981988928
14981997717
14982002905
14982015356
14982022131
14982033972
14982041601
14982048071
14982056799
14982059790
14982073095
14982082312
14982089148
14982098364
14982105139
14982110449
14982121435
14982128759
14982138525
14982146276
14982152563
14982159155
14982169592
14982176611
14982183142
14982191076
14982199499
14982207922
14982215795
14982223242
14982234289
14982241979
14982251379
14982261755
14982269628
14982281469
14982286535
14982300268
14982310644
14982319433
14982326696
14982334936
14982343481
14982353734
14982361059
14982369115
14982377050
14982385351
14982393834
14982400487
14982408971
14982417089
14982424474
14982434118
14982440648
14982449498
14982455541
14982463109
14982469091
14982477880
14982482457
14982492589
14982500585
14982507665
14982514928
14982522008
14982529393
14982536595
14982545995
14982551427
14982558324
14982565099
14982572240
14982579808
14982586217
14982594334
14982601964
14982608556
14982616734
14982623570
14982630711
14982638890
14982647069
14982654515
14982662510
14982670506
14982676610
14982685338
14982693333
14982702366
14982711400
14982716221
14982726292
14982731358
14982743016
14982751500
14982759007
14982766819
14982772923
14982783238
14982792515
14982799656
14982810215
14982817417
14982827427
14982833714
14982843907
14982851292
14982858799
14982865635
14982875645
14982880589
14982890476
14982895542
14982905796
14982916233
14982925449
14982933079
14982941135
14982948154
14982955356
14982965549
14982973057
14982980808
14982987034
14982995456
14983005283
14983012241
14983021762
14983031833
14983037693
14983048374
14983053012
14983062534
14983070468
14983080661
14983089633
14983097690
14983104038
14983111911
14983119235
14983129001
14983134921
14983144321
14983151401
14983159274
14983164096
14983173740
14983181064
14983188022
14983194125
14983201083
14983207370
14983214633
14983222629
14983229953
14983240024
14983245639
14983254855
14983261203
14983269565
14983277316
14983281161
14983285800
14983292392
14983298251
14983302585
14983304294
14983314242
14983318637
14983322665
14983326449
14983333529
14983338961
14983346591
14983352938
14983358859
14983365390
14983370944
14983377902
14983383761
14983391513
14983396395
14983404208
14983409945
14983415194
14983422335
14983428866
14983435336
14983439730
14983445651
14983449923
14983455172
14983460299
14983465914
14983474093
14983480990
14983487154
14983493075
14983498446
14983505221
14983510958
14983518893
14983522738
14983530978
14983537813
14983544588
14983550936
14983556368
14983563143
14983570711
14983577547
14983586031
14983593416
14983602083
14983611849
14983619173
14983629366
14983635775
14983647798
14983655794
14983662325
14983671724
14983679964
14983687960
14983697420
14983702547
14983713533
14983722322
14983729158
14983738313
14983748262
14983757539
14983766389
14983774141
14983781709
14983790315
14983797334
14983807283
14983820467
14983829561
14983836519
14983845003
14983854097
14983860567
14983871370
14983880586
14983890046
14983895845
14983904939
14983912935
14983918855
14983928193
14983934419
14983945649
14983952363
14983960847
14983970368
14983980378
14983989533
14983995454
14984008149
14984013581
14984023286
14984028413
14984037873
14984043794
14984052827
14984059174
14984070222
14984077912
14984084138
14984089021
14984099091
14984105317
14984113190
14984121735
14984130952
14984139863
14984146577
14984155610
14984162385
14984170136
14984178071
14984188752
14984194672
14984204560
14984209259
14984219941
14984227631
14984238068
14984246491
14984255707
14984264618
14984273224
14984279999
14984287995
14984294953
14984305084
14984310761
14984320954
14984329682
14984336456
14984347931
14984355377
14984364777
14984371796
14984379852
14984386017
14984393707
14984399933
14984409698
14984417389
14984428131
14984439361
14984447723
14984454498
14984462433
14984468841
14984475799
14984486175
14984491668
14984502166
14984510467
14984517364
14984524322
14984531036
14984540618
14984546722
14984555267
14984560821
14984568450
14984576019
14984583038
14984589202
14984597930
14984604339
14984612640
14984618499
14984627288
14984634857
14984641998
14984649627
14984656646
14984663482
14984671844
14984679229
14984687347
14984696014
14984700774
14984710967
14984719085
14984725921
14984736785
14984742827
14984752654
14984760711
14984768584
14984778594
14984787749
14984793975
14984802703
14984810637
14984819609
14984826873
14984834502
14984844939
14984851409
14984861296
14984868193
14984878081
14984883818
14984894499
14984899382
14984909819
14984914824
14984921477
14984927153
14984932402
14984938323
14984945097
14984950163
14984955534
14984962675
14984969023
14984974882
14984980132
14984987517
14984991545
14984998869
14985004973
14985010405
14985016569
14985021818
14985026701
14985032072
14985036772
14985043303
14985048491
14985053190
14985058195
14985065153
14985070707
14985079924
14985085234
14985092253
14985098967
14985104521
14985111540
14985119169
14985123198
14985129545
14985134733
14985140226
14985145964
14985151335
14985157011
14985163969
14985167875
14985174223
14985178007
14985184172
14985190885
14985197111
14985204374
14985212003
14985218229
14985226713
14985235136
14985241972
14985249967
14985256559
14985267545
14985272672
14985282560
14985287199
14985295988
14985300504
14985309904
14985318510
14985326993
14985335050
14985341031
14985345609
14985356473
14985364896
14985371793
14985380094
14985386625
14985395536
14985402616
14985409513
14985417325
14985423673
14985433133
14985440580
14985450284
14985459684
14985465604
14985474942
14985481717
14985490750
14985498075
14985504971
14985514798
14985523587
14985531583
14985536710
14985546903
14985552579
14985562650
14985571255
14985577908
14985586941
14985591763
14985604642
14985613248
14985619900
14985625088
14985636563
14985643887
14985652371
14985660672
14985666836
14985675564
14985684597
14985691311
14985701565
14985708340
14985718106
14985725247
14985735623
14985741543
14985750454
14985759182
14985765591
14985776272
14985782253
14985793057
14985802273
14985809048
14985817898
14985826565
14985833828
14985840115
14985852444
14985857449
14985868557
14985877529
14985882778
14985887173
14985896938
14985905056
14985911037
14985921413
14985928066
14985937282
14985944423
14985951992
14985956814
14985967006
14985975490
14985982082
14985989834
14985997890
14986005520
14986013332
14986024379
14986030239
14986039455
14986048427
14986053371
14986062221
14986068447
14986076198
14986082485
14986091335
14986099330
14986107204
14986114345
14986121669
14986130336
14986137355
14986144801
14986152370
14986158534
14986166957
14986175746
14986183253
14986190639
14986199306
14986205958
14986213832
14986222255
14986230311
14986238246
14986244777
14986255336
14986262782
14986268763
14986277125
14986285670
14986294032
14986298793
14986310145
14986317652
14986323695
14986332545
14986338893
14986349513
14986356105
14986364833
14986373011
14986381617
14986389124
14986395228
14986402674
14986410182
14986419154
14986426661
14986434657
14986439112
14986450709
14986460352
14986468958
14986478480
14986487269
14986493922
14986502039
14986510706
14986515833
14986525904
14986531580
14986536707
14986542200
14986547693
14986556482
14986563257
14986571985
14986577540
14986583460
14986588099
14986595850
14986601954
14986610437
14986616175
14986621912
14986626978
14986634119
14986639551
14986645899
14986649988
14986656763
14986663233
14986669763
14986674707
14986681299
14986688074
14986693628
14986698511
14986705652
14986711145
14986718408
14986723169
14986726953
14986735620
14986739526
14986747827
14986751672
14986759851
14986763940
14986771814
14986777185
14986782007
14986788965
14986794641
14986800134
14986806970
14986811914
14986819299
14986827722
14986837121
14986843347
14986853052
14986859643
14986869592
14986879236
14986882470
14986894983
14986904138
14986911950
14986920312
14986926965
14986936486
14986944543
14986952600
14986961206
14986967858
14986976037
14986984887
14986991296
14987001000
14987010583
14987020287
14987029687
14987037316
14987043359
14987053551
14987059899
14987067651
14987073937
14987084252
14987106103
14987115685
14987125695
14987132348
14987143212
14987149560
14987158043
14987166100
14987173119
14987178856
14987188744
14987196434
14987208092
14987218529
14987226647
14987231835
14987243492
14987248436
14987258568
14987263817
14987277001
14987286217
14987295555
14987301659
14987309837
14987317955
14987324608
14987331444
14987337791
14987346092
14987352074
14987360802
14987365074
14987374229
14987382347
14987390465
14987398094
14987405907
14987414451
14987420433
14987424949
14987436119
14987445640
14987451622
14987460960
14987466331
14987474815
14987480247
14987488365
14987494529
14987503685
14987510154
14987518638
14987527488
14987535667
14987542198
14987551231
14987558555
14987566795
14987573509
14987581138
14987590415
14987600547
14987606529
14987618308
14987627219
14987633506
14987641563
14987650657
14987656699
14987663169
14987673118
14987681480
14987690208
14987698447
14987705161
14987712485
14987720725
14987730796
14987739646
14987747947
14987755027
14987762351
14987771628
14987776755
14987786582
14987795066
14987802878
14987809836
14987817527
14987825461
14987835288
14987842795
14987850119
14987857810
14987867087
14987874167
14987882712
14987890158
14987898154
14987904868
14987912863
14987922385
14987928793
14987935629
14987944540
14987954550
14987965964
14987974570
14987983054
14987990744
14987999472
14988008810
14988016379
14988023031
14988030234
14988038351
14988044882
14988053244
14988061300
14988069540
14988077292
14988084677
14988092123
14988099020
14988108236
14988112570
14988121847
14988128805
14988137838
14988144735
14988152120
14988160177
14988165792
14988171102
14988175863
14988184530
14988189413
14988193868
14988197592
14988205404
14988210287
14988214864
14988223837
14988229147
14988234945
14988241598
14988247701
14988252767
14988258749
14988266500
14988273641
14988281209
14988286825
14988292013
14988297445
14988305440
14988307577
14988315755
14988322530
14988327474
14988332479
14988336934
14988340597
14988348531
14988353536
14988359334
14988364888
14988372884
14988379537
14988384176
14988388692
14988395894
14988400472
14988406392
14988412007
14988420552
14988426351
14988430074
14988437154
14988440816
14988447774
14988451802
14988460347
14988468404
14988477193
14988487325
14988493855
14988503682
14988509236
14988520894
14988531453
14988538899
14988544514
14988557332
14988560567
14988572163
14988582173
14988589436
14988602009
14988609212
14988618977
14988627583
14988638814
14988647114
14988653584
14988663472
14988671956
14988681172
14988689961
14988696370
14988702839
14988710896
14988717671
14988726582
14988735737
14988744770
14988754536
14988761555
14988770344
14988777058
14988787861
14988794941
14988804340
14988811115
14988819660
14988827778
14988834919
14988840778
14988850666
14988859028
14988866901
14988875996
14988883442
14988892841
14988899616
14988908039
14988916401
14988922993
14988930317
14988940754
14988948200
14988957782
14988967975
14988975422
14988983539
14988990802
14989000324
14989005634
14989015705
14989025959
14989032978
14989042255
14989051044
14989059284
14989066242
14989071308
14989083759
14989094135
14989100971
14989110858
14989117633
14989127277
14989133502
14989138385
14989149371
14989159747
14989167987
14989175861
14989182025
14989190204
14989198688
14989206317
14989215594
14989224322
14989231219
14989240313
14989248980
14989255938
14989264300
14989271991
14989278766
14989286212
14989295184
14989303973
14989308612
14989317034
14989323443
14989332537
14989337603
14989347491
14989354693
14989363665
14989372149
14989380450
14989388629
14989400164
14989409075
14989419512
14989430193
14989437579
14989443194
14989457415
14989467242
14989475054
14989485430
14989492388
14989501787
14989508684
14989516802
14989522967
14989531878
14989542376
14989550066
14989557146
14989565691
14989572954
14989580156
14989587236
14989594622
14989602129
14989610735
14989617144
14989623430
14989634600
14989639788
14989649431
14989654253
14989664141
14989671587
14989679155
14989686418
14989692339
14989700212
14989710100
14989717241
14989725481
14989732927
14989740312
14989748003
14989752946
14989761919
14989768571
14989775712
14989785234
14989791154
14989799516
14989805498
14989813066
14989819536
14989828508
14989836442
14989843278
14989849748
14989855729
14989858781
14989866105
14989869706
14989878618
14989883500
14989889299
14989891313
14989898271
14989904252
14989908952
14989916459
14989921098
14989926469
14989932450
14989938127
14989943925
14989949174
14989955522
14989962480
14989968522
14989973893
14989980424
14989986222
14989991959
14989998429
14990006608
14990012589
14990019547
14990025651
14990032365
14990039933
14990045914
14990052201
14990059647
14990068558
14990075516
14990083146
14990087174
14990093949
14990101395
14990107560
14990113297
14990119523
14990124466
14990131608
14990137284
14990143509
14990148636
14990155106
14990162186
14990169815
14990176041
14990183487
14990189347
14990196610
14990202469
14990210953
14990215164
14990224015
14990231827
14990240311
14990248245
14990254105
14990262345
14990268753
14990277603
14990285416
14990293961
14990301163
14990311783
14990318863
14990327835
14990334488
14990343155
14990348892
14990357376
14990364456
14990374771
14990381790
14990390945
14990400894
14990406265
14990413650
14990422012
14990429947
14990435745
14990444290
14990450576
14990460708
14990466385
14990473465
14990481033
14990487930
14990495559
14990502578
14990511306
14990520156
14990526809
14990537368
14990542129
14990551650
14990557022
14990567642
14990577224
14990584121
14990593032
14990607497
14990619643
14990631545
14990642471
14990654800
14990667495
14990676528
14990689651
14990699294
14990711440
14990721328
14990736831
14990746169
14990761977
14990772597
14990786086
14990795302
14990807021
14990812941
14990823867
14990831618
14990839980
14990847182
14990857497
14990866835
14990874587
14990884230
14990895033
14990904921
14990914687
14990923354
14990931410
14990938002
14990947340
14990953871
14990964003
14990972548
14990979750
14990987684
14990996535
14991002882
14991010084
14991018141
14991026320
14991034315
14991041823
14991048109
14991057753
14991064589
14991069410
14991079481
14991085585
14991096937
14991102430
14991111219
14991118177
14991126356
14991134291
14991140638
14991149671
14991155897
14991162672
14991172376
14991178602
14991183485
14991194227
14991199537
14991209974
14991215589
14991225477
14991230543
14991239149
14991245985
14991254713
14991262403
14991268568
14991277479
14991285047
14991292371
14991299451
14991307630
14991313978
14991323560
14991330030
14991338392
14991344068
14991355848
14991361036
14991369275
14991376783
14991385999
14991393018
14991399366
14991406018
14991414991
14991423841
14991426587
14991438733
14991446668
14991453076
14991457898
14991467175
14991475049
14991485913
14991490918
14991501111
14991508069
14991514111
14991521130
14991529065
14991538159
14991545789
14991553723
14991560376
14991569104
14991575452
14991583935
14991589673
14991598034
14991605908
14991614941
14991618603
14991627209
14991633252
14991637890
14991644848
14991650341
14991659802
14991668225
14991675244
14991682324
14991690258
14991697033
14991701672
14991710034
14991717602
14991725415
14991729565
14991737499
14991743725
14991750378
14991754711
14991760449
14991766125
14991770031
14991775097
14991779797
14991785839
14991790966
14991796459
14991800182
14991802868
14991810741
14991815929
14991821362
14991827404
14991832897
14991837048
14991841808
14991846142
14991850841
14991855846
14991861217
14991866527
14991872326
14991877575
14991885143
14991893017
14991898998
14991907421
14991913036
14991920055
14991931408
14991936351
14991944652
14991951610
14991960033
14991966503
14991974376
14991981395
14991991649
14991998485
14992008007
14992013866
14992020641
14992029003
14992035716
14992043346
14992051891
14992060192
14992066966
14992074657
14992081676
14992089671
14992103404
14992110301
14992121776
14992128307
14992137096
14992145091
14992147777
14992158275
14992162974
14992173045
14992182872
14992189464
14992193858
14992206248
14992211009
14992220958
14992227366
14992233714
14992242320
14992249827
14992256602
14992264964
14992270945
14992278453
14992286021
14992293223
14992301463
14992308604
14992317088
14992324717
14992333995
14992341868
14992349314
14992361033
14992366160
14992376963
14992384776
14992393992
14992398997
14992409495
14992414683
14992424876
14992430369
14992441782
14992446665
14992457896
14992462961
14992472544
14992477061
14992486948
14992495066
14992502512
14992509592
14992515818
14992520823
14992531565
14992536448
14992545298
14992551706
14992563120
14992571787
14992579599
14992582346
14992593454
14992602060
14992609445
14992617502
14992623239
14992631845
14992640329
14992646616
14992654733
14992661630
14992671030
14992679697
14992686472
14992695139
14992701303
14992708505
14992716379
14992724863
14992730661
14992739572
14992747079
14992757028
14992765085
14992772226
14992780649
14992787424
14992796213
14992803659
14992812448
14992820077
14992828988
14992837594
14992846261
14992855111
14992860727
14992869455
14992877389
14992886727
14992891610
14992902536
14992912850
14992921090
14992931283
14992938668
14992945260
14992954171
14992965157
14992972543
14992979684
14992987985
14992998177
14993006234
14993013802
14993022897
14993031380
14993037972
14993046578
14993053048
14993060799
14993066292
14993075143
14993082711
14993095223
14993103768
14993111886
14993121468
14993130440
14993139229
14993146920
14993157662
14993167366
14993175118
14993182442
14993190193
14993198006
14993203194
14993213997
14993220284
14993228585
14993234322
14993241524
14993246895
14993252144
14993257088
14993263802
14993268990
14993275276
14993281258
14993287849
14993294075
14993298958
14993307503
14993312202
14993317879
14993323616
14993329048
14993334053
14993341072
14993345711
14993352974
14993357796
14993363716
14993368477
14993375191
14993380318
14993386116
14993393196
14993399544
14993405037
14993410591
14993416023
14993423469
14993428535
14993434761
14993441353
14993447883
14993453682
14993460579
14993465095
14993472847
14993477363
14993485054
14993489326
14993497566
14993504341
14993511054
14993516609
14993522163
14993528144
14993535774
14993541267
14993550300
14993557502
14993565742
14993575141
14993578742
14993590888
14993600044
14993607612
14993619575
14993627143
14993639350
14993646430
14993655341
14993664374
14993671149
14993677558
14993691047
14993697700
14993706611
14993712897
14993723334
14993729438
14993737311
14993745917
14993755866
14993762763
14993772467
14993778815
14993789008
14993798407
14993809394
14993820624
14993832831
14993843390
14993851019
14993859625
14993867865
14993877936
14993889960
14993899176
14993907965
14993915778
14993924628
14993933173
14993940741
14993951666
14993956793
14993968146
14993974554
14993982306
14993991766
14994001166
14994006964
14994014898
14994024420
14994031500
14994039312
14994047064
14994057440
14994062811
14994073004
14994080816
14994088934
14994095343
14994103521
14994112127
14994119390
14994130255
14994136846
14994145269
14994153509
14994161077
14994167974
14994176763
14994184026
14994194402
14994199834
14994209905
14994216070
14994225164
14994233160
14994242376
14994250921
14994258123
14994266302
14994273015
14994282842
14994289983
14994298406
14994305791
14994315374
14994319829
14994328862
14994338018
14994346807
14994354741
14994360540
14994370794
14994378911
14994386968
14994393987
14994403997
14994411870
14994420659
14994432439
14994439031
14994448064
14994454900
14994464787
14994473027
14994482182
14994489995
14994499272
14994503911
14994515019
14994525273
14994531682
14994539921
14994549870
14994559453
14994571477
14994580327
14994590092
14994598820
14994605229
14994614323
14994621586
14994631840
14994639714
14994649296
14994654301
14994663578
14994673710
14994681279
14994689091
14994697331
14994704777
14994713322
14994719975
14994726444
14994735844
14994740421
14994751042
14994757694
14994765751
14994774052
14994779911
14994789799
14994796452
14994805424
14994812077
14994821110
14994828922
14994836918
14994843388
14994850162
14994859257
14994865482
14994874149
14994882877
14994890812
14994898014
14994905582
14994911747
14994921512
14994926700
14994934696
14994939029
14994945621
14994950077
14994958805
14994964298
14994968204
14994973819
14994978275
14994985660
14994993045
14994997623
14995004947
14995010684
14995016056
14995021732
14995027225
14995035159
14995039310
14995047000
14995052371
14995058963
14995063968
14995070926
14995076541
14995084293
14995091129
14995096500
14995103824
14995109256
14995114688
14995120792
14995126407
14995131290
14995137149
14995143008
14995148440
14995154666
14995160220
14995166812
14995173038
14995182803
14995188479
14995197818
14995204471
14995210513
14995214969
14995223086
14995229556
14995239505
14995247256
14995256472
14995261599
14995271182
14995280276
14995286868
14995294985
14995305545
14995315493
14995324282
14995327700
14995339419
14995348452
14995354861
14995363589
14995370242
14995378725
14995387148
14995394778
14995401858
14995410708
14995418032
14995428957
14995434328
14995444948
14995453982
14995461794
14995466494
14995475100
14995479372
14995490786
14995500002
14995505434
14995513918
14995519838
14995528383
14995534548
14995543459
14995549135
14995558474
14995566591
14995572695
14995581362
14995588442
14995594484
14995602175
14995609072
14995617433
14995626344
14995634767
14995644411
14995652040
14995663027
14995673586
14995680116
14995689027
14995696352
14995707338
14995715883
14995724733
14995733339
14995739870
14995747133
14995757142
14995765321
14995772157
14995778261
14995788698
14995796510
14995804628
14995812196
14995822206
14995827699
14995838136
14995847230
14995853028
14995861451
14995869386
14995877809
14995884828
14995892396
14995900209
14995910157
14995916017
14995924317
14995933106
14995940614
14995946473
14995955445
14995961427
14995971803
14995981507
14995989014
14995996522
14996005860
14996013245
14996021912
14996028382
14996035584
14996047059
14996052491
14996060731
14996068299
14996075440
14996080628
14996091553
14996097230
14996105042
14996112610
14996119507
14996125611
14996134705
14996141846
14996150879
14996158203
14996165161
14996171204
14996178345
14996186096
14996193299
14996202515
14996208069
14996216919
14996221924
14996229675
14996237244
14996244141
14996251099
14996259888
14996264710
14996276917
14996281982
14996291870
14996301392
14996308228
14996319336
14996325745
14996335693
14996344238
14996353088
14996361877
14996369263
14996378479
14996383484
14996393249
14996401855
14996409973
14996417480
14996424560
14996433227
14996440796
14996448730
14996457031
14996463317
14996472717
14996477600
14996487121
14996493469
14996503051
14996510497
14996517639
14996527648
14996534484
14996542846
14996547729
14996557433
14996564025
14996569762
14996572021
14996579894
14996587463
14996592712
14996598510
14996602477
14996608092
14996614745
14996621520
14996627624
14996635192
14996639159
14996645934
14996649352
14996657592
14996662292
14996673156
14996678527
14996689208
14996693358
14996703673
14996707396
14996715331
14996719970
14996728392
14996732909
14996742369
14996748412
14996752929
14996759337
14996763610
14996769408
14996773986
14996779906
14996784911
14996790404
14996795287
14996801879
14996807067
14996815001
14996818968
14996826598
14996830077
14996836485
14996841368
14996846495
14996852110
14996860106
14996868346
14996874937
14996879271
14996892088
14996898009
14996906187
14996914366
14996922423
14996929930
14996937193
14996945006
14996953673
14996959776
14996968931
14996976500
14996984129
14996994749
14997000914
14997009459
14997017942
14997025572
14997034300
14997040525
14997052855
14997060545
14997068541
14997076658
14997082029
14997090696
14997098753
14997108518
14997115476
14997124449
14997130491
14997137388
14997143858
14997152158
14997159544
14997169065
14997173338
14997181211
14997186948
14997194089
14997201109
14997208921
14997215818
14997225584
14997233579
14997240293
14997247129
14997254514
14997262510
14997270872
14997278928
14997289609
14997294187
14997303403
14997308469
14997318540
14997325559
14997333799
14997341367
14997350217
14997360776
14997369382
14997380979
14997392331
14997397031
14997407956
14997416379
14997426328
14997436582
14997445126
14997455136
14997460263
14997470029
14997478574
14997484433
14997494321
14997502194
14997510739
14997521359
14997529904
14997538266
14997544797
14997554684
14997561398
14997569089
14997578976
14997584591
14997593625
14997600277
14997609616
14997614438
14997623471
14997637448
14997642575
14997653012
14997660824
14997668820
14997676815
14997684567
14997694332
14997699032
14997708859
14997716427
14997723751
14997730465
14997740170
14997747067
14997754635
14997763119
14997768063
14997779415
14997788265
14997794064
14997803097
14997809444
14997820370
14997824764
14997833797
14997842342
14997848629
14997858272
14997863399
14997876583
14997886104
14997893673
14997902950
14997909725
14997920467
14997929622
14997938167
14997945430
14997953792
14997960994
14997968624
14997977596
14997984004
14997992916
14998000911
14998009578
14998017452
14998023555
14998034541
14998041316
14998049922
14998056697
14998064876
14998072688
14998082698
14998088802
14998099666
14998104915
14998117366
14998127498
14998134334
14998143550
14998150203
14998160640
14998167598
14998174128
14998181025
14998186091
14998192317
14998197688
14998203181
14998207881
14998213496
14998220149
14998225764
14998231623
14998241389
14998250788
14998261286
14998270869
14998277339
14998285456
14998295466
14998303584
14998313960
14998323298
14998329829
14998339594
14998346430
14998353144
14998361933
14998371272
14998378901
14998388117
14998394587
14998402399
14998410212
14998417231
14998426264
14998433893
14998441340
14998448298
14998456476
14998462641
14998471735
14998480463
14998487482
14998491877
14998501703
14998512812
14998520014
14998531855
14998539118
14998550775
14998561335
14998570612
14998584101
14998591791
14998603876
14998613397
14998622797
14998633966
14998641840
14998653070
14998658624
14998674188
14998682977
14998693597
14998703363
14998714349
14998726068
14998736444
14998746637
14998758294
14998769281
14998779046
14998791314
14998802057
14998813104
14998823053
14998835504
14998844293
14998859124
14998870050
14998887139
14998898980
14998913506
14998924920
14998942071
14998952081
14998964715
14998974725
14998986321
14998995049
14999004632
14999016961
14999025323
14999036309
14999045830
14999054253
14999064629
14999073296
14999082451
14999091424
14999102715
14999111870
14999122979
14999132256
14999140679
14999150261
14999159233
14999169426
14999179375
14999190239
14999199455
14999208611
14999213738
14999225029
14999233940
14999244011
14999253960
14999264580
14999274895
14999282463
14999294609
14999299980
14999312553
14999323418
14999332939
14999342827
14999353203
14999362114
14999372123
14999382499
14999392265
14999402153
14999411552
14999422844
14999432060
14999441520
14999451591
14999461845
14999472099
14999479789
14999493217
14999502189
14999511466
14999523002
14999533073
14999542106
14999549979
14999563041
14999568595
14999581901
14999591239
14999600700
14999612601
14999624625
14999634025
14999642997
14999652152
14999661979
14999670707
14999681693
14999687186
14999694571
14999701407
14999707938
14999715384
14999722953
14999732596
14999740103
14999745658
14999753592
14999760489
14999768485
14999776969
14999784537
14999790702
14999797598
14999803458
14999808768
14999817435
14999823538
14999830435
14999835135
14999841727
14999848929
14999854788
14999862723
14999868582
14999874747
14999881094
14999886649
14999891348
14999898123
14999906058
14999912039
14999918021
14999924612
14999930838
14999935843
14999942007
14999949515
14999955801
14999963247
14999969717
14999976187
14999981741
14999987784
14999997610
15000005911
15000011465
15000020864
15000030508
15000036245
15000042532
15000049185
15000053396
15000060293
15000063650
15000070425
15000076040
15000080984
15000085623
15000091665
15000095877
15000101980
15000106802
15000111379
15000116384
15000120413
15000125417
15000129507
15000135427
15000139944
15000145254
15000149770
15000155508
15000160024
15000164663
15000168569
15000177175
15000180837
15000186880
15000192251
15000198720
15000202077
15000208181
15000211843
15000218252
15000223318
15000227956
15000233083
15000237417
15000242177
15000249807
15000255300
15000261098
15000269582
15000275747
15000281972
15000292043
15000300405
15000309011
15000318837
15000326528
15000331044
15000340261
15000346730
15000355214
15000361562
15000370473
15000377309
15000385243
15000393605
15000400258
15000406056
15000414845
15000420583
15000429555
15000436025
15000445912
15000452931
15000462575
15000469044
15000474049
15000485951
15000493642
15000501881
15000507008
15000516164
15000523671
15000533192
15000540211
15000547658
15000557362
15000565053
15000571827
15000581288
15000588124
15000596119
15000604664
15000607594
15000620106
15000627980
15000636647
15000641468
15000650868
15000658192
15000667103
15000674183
15000683155
15000690479
15000699635
15000708912
15000716725
15000723927
15000731129
15000740833
15000747181
15000755787
15000765125
15000771839
15000780384
15000786671
15000791737
15000802906
15000807972
15000819568
15000824695
15000834705
15000841785
15000851185
15000858509
15000866626
15000873462
15000881946
15000888477
15000899219
15000906177
15000914234
15000922596
15000931140
15000937671
15000942798
15000954883
15000960315
15000972034
15000977161
15000987110
15000994800
15001002918
15001009998
15001017200
15001026294
15001033740
15001043384
15001051868
15001060962
15001068713
15001076404
15001082385
15001095203
15001101611
15001116015
15001125598
15001135180
15001142383
15001150928
15001155932
15001167163
15001172900
15001184863
15001196826
15001204516
15001211352
15001219775
15001227954
15001236987
15001245227
15001254199
15001258959
15001268786
15001273364
15001283312
15001288439
15001300036
15001304858
15001314684
15001320971
15001329638
15001336169
15001345019
15001352160
15001360522
15001369006
15001378649
15001386340
15001394213
15001400683
15001408617
15001417650
15001425463
15001434008
15001440783
15001449267
15001456835
15001464464
15001473925
15001481615
15001486803
15001495165
15001502489
15001511156
15001518724
15001528307
15001535326
15001543505
15001549852
15001558702
15001567491
15001576036
15001582567
15001589647
15001598680
15001603624
15001614549
15001619615
15001628954
15001636766
15001648058
15001653368
15001662401
15001669298
15001678270
15001683397
15001693407
15001701463
15001710191
15001718065
15001726304
15001733934
15001743272
15001750108
15001758104
15001764757
15001770738
15001776109
15001781968
15001787034
15001792405
15001797654
15001805162
15001810472
15001816453
15001820665
15001826158
15001832322
15001838121
15001842515
15001848191
15001852403
15001859727
15001865281
15001871079
15001878709
15001885118
15001892930
15001898911
15001905320
15001909776
15001915818
15001923020
15001928391
15001934800
15001941514
15001946885
15001951463
15001955308
15001959763
15001967393
15001972581
15001976853
15001981126
15001988145
15001993272
15001999985
15002006455
15002011948
15002016282
15002021592
15002027817
15002032334
15002038987
15002044846
15002051499
15002055893
15002062668
15002068039
15002073899
15002079697
15002084336
15002090378
15002095200
15002102036
15002108261
15002113816
15002118576
15002122849
15002132187
15002137192
15002141709
15002148117
15002153916
15002159348
15002164597
15002170151
15002177658
15002183823
15002189194
15002193649
15002199509
15002204025
15002210678
15002216477
15002223618
15002228256
15002232163
15002240830
15002245285
15002253281
15002257187
15002263596
15002270065
15002276169
15002281235
15002286728
15002291305
15002296677
15002303940
15002308945
15002314743
15002324142
15002329513
15002336410
15002340927
15002345505
15002354843
15002358627
15002364547
15002370712
15002376877
15002384079
15002388656
15002393478
15002399704
15002406417
15002410995
15002417221
15002424057
15002429000
15002435409
15002440231
15002444625
15002452682
15002456832
15002463302
15002470138
15002477523
15002485214
15002492599
15002498885
15002506088
15002511703
15002519027
15002527694
15002531966
15002538558
15002544845
15002549606
15002554244
15002560348
15002566940
15002573653
15002579024
15002584762
15002590011
15002595626
15002600509
15002607284
15002612289
15002619124
15002626266
15002631148
15002637008
15002639083
15002649032
15002653670
15002661483
15002665328
15002674056
15002677901
15002684005
15002689742
15002695968
15002700728
15002707503
15002710799
15002718978
15002723922
15002727828
15002735274
15002738875
15002746932
15002750838
15002757491
15002762496
15002768843
15002772811
15002780867
15002786360
15002790694
15002797347
15002802718
15002807906
15002814925
15002820967
15002823103
15002832198
15002838057
15002842818
15002846419
15002853377
15002859602
15002866743
15002871809
15002877364
15002881941
15002887984
15002895125
15002901045
15002905745
15002912337
15002916853
15002922896
15002929915
15002935164
15002941572
15002946028
15002952986
15002957136
15002964399
15002969282
15002976301
15002979963
15002985823
15002990889
15002997236
15003005293
15003010786
15003016096
15003023176
15003028486
15003034712
15003038984
15003044538
15003049787
15003057783
15003064497
15003070295
15003076216
15003083357
15003089338
15003095503
15003103193
15003107404
15003115461
15003119306
15003125349
15003131574
15003138898
15003145185
15003151777
15003158430
15003164167
15003169050
15003174482
15003179121
15003185468
15003191205
15003198591
15003203596
15003209821
15003215986
15003221052
15003225812
15003229963
15003238569
15003242292
15003248884
15003253339
15003261030
15003266156
15003272321
15003277936
15003283979
15003288739
15003295392
15003300214
15003307538
15003314557
15003319806
15003324445
15003330426
15003335065
15003340436
15003348004
15003353559
15003359967
15003364911
15003371442
15003377667
15003382672
15003387250
15003394452
15003400250
15003407575
15003413617
15003418378
15003424237
15003426312
15003436017
15003440350
15003447980
15003453717
15003459393
15003464520
15003471539
15003477765
15003482709
15003487286
15003493939
15003499249
15003505414
15003511395
15003516522
15003523236
15003527020
15003535321
15003538983
15003546551
15003553875
15003559063
15003564129
15003569684
15003575299
15003582135
15003587384
15003592633
15003598065
15003604962
15003609661
15003617169
15003622174
15003629986
15003635113
15003641033
15003646282
15003654949
15003660076
15003666973
15003672405
15003678143
15003685162
15003692242
15003699444
15003707989
15003714520
15003718670
15003727947
15003735516
15003744305
15003748760
15003756817
15003762798
15003768841
15003780682
15003785625
15003790935
15003797893
15003803509
15003808575
15003815960
15003822368
15003827862
15003833477
15003839458
15003845867
15003851299
15003855510
15003859173
15003867290
15003872844
15003879131
15003882427
15003890972
15003894512
15003901714
15003905376
15003912700
15003917522
15003923320
15003928691
15003935955
15003940776
15003946147
15003952617
15003958354
15003963359
15003969280
15003975017
15003980449
15003986797
15003993083
15003998332
15004006267
15004011089
15004018047
15004022990
15004028545
15004035808
15004041362
15004047832
15004053447
15004060039
15004065288
15004071391
15004078288
15004084270
15004089458
15004095927
15004101604
15004107890
15004113811
15004119121
15004124919
15004128459
15004138041
15004142192
15004149455
15004157451
15004164348
15004168071
15004176310
15004179850
15004185588
15004190348
15004197245
15004203532
15004209452
15004214274
15004219950
15004226664
15004232096
15004237101
15004240702
15004249003
15004253337
15004261820
15004265666
15004274943
15004278483
15004286540
15004291911
15004299113
15004304606
15004310099
15004316813
15004321513
15004328227
15004334879
15004341044
15004348124
15004353678
15004361552
15004367167
15004373637
15004378641
15004383707
15004389994
15004395670
15004401224
15004406656
15004412821
15004417948
15004423136
15004428446
15004434183
15004438273
15004443705
15004452372
15004458048
15004466288
15004472086
15004479593
15004486979
15004492044
15004496805
15004502176
15004506815
15004511454
15004516275
15004521036
15004525431
15004530069
15004535929
15004540506
15004544840
15004549234
15004553507
15004559122
15004563944
15004568765
15004574991
15004580301
15004585428
15004589273
15004594705
15004599954
15004606363
15004611124
15004618936
15004623697
15004628946
15004633402
15004639566
15004645364
15004650613
15004654520
15004662454
15004668741
15004673196
15004679117
15004683816
15004689371
15004694375
15004699808
15004705667
15004710306
15004716836
15004721963
15004727456
15004732889
15004739236
15004743081
15004750467
15004754861
15004761575
15004765664
15004771219
15004776956
15004782205
15004788675
15004793191
15004799356
15004805154
15004810403
15004814675
15004819986
15004825357
15004829995
15004839456
15004845132
15004850930
15004856301
15004860696
15004866494
15004872781
15004879861
15004887490
15004894936
15004899819
15004905373
15004911294
15004915933
15004922341
15004928445
15004936806
15004943154
15004948342
15004954873
15004960671
15004964638
15004969155
15004976296
15004980385
15004987527
15004992592
15004998879
15005002114
15005008706
15005013589
15005019692
15005024575
15005030861
15005036538
15005041726
15005046120
15005051613
15005055642
