15198695161
15198702058
15198707184
15198713532
15198719391
15198723847
15198728486
15198733002
15198739716
15198744355
15198749543
15198754792
15198761872
15198767426
15198773407
15198778840
15198785859
15198792023
15198797516
15198803131
15198809906
15198815155
15198820710
15198827057
15198833588
15198840241
15198847748
15198852326
15198861481
15198868927
15198876190
15198882843
15198889557
15198897492
15198904205
15198912140
15198918671
15198924408
15198932404
15198941437
15198949738
15198959442
15198965973
15198976349
15198984344
15198994232
15199004242
15199016449
15199027008
15199036102
15199045318
15199053680
15199063629
15199073639
15199083587
15199092437
15199100067
15199108123
15199116546
15199124542
15199133087
15199141387
15199149932
15199158233
15199165801
15199174163
15199182098
15199191314
15199199981
15199207427
15199216583
15199226653
15199238738
15199247466
15199259124
15199274505
15199282622
15199293670
15199304107
15199314544
15199324798
15199331878
15199346038
15199354827
15199365325
15199377288
15199387481
15199396575
15199407927
15199419097
15199428984
15199436431
15199449553
15199458586
15199467681
15199477019
15199491606
15199501616
15199512969
15199522246
15199532378
15199543425
15199555266
15199562712
15199575285
15199584441
15199595427
15199605192
15199616423
15199628264
15199639189
15199647429
15199656767
15199667875
15199675505
15199686186
15199696745
15199704313
15199715910
15199725187
15199734465
15199743132
15199752531
15199760649
15199772672
15199780058
15199790128
15199798124
15199806486
15199817594
15199827421
15199834318
15199846220
15199859525
15199867216
15199876920
15199884428
15199894926
15199902982
15199913602
15199925504
15199932035
15199945035
15199955411
15199963163
15199971769
15199984586
15199994535
15200005033
15200013761
15200024320
15200035001
15200043851
15200054410
15200065457
15200075162
15200084500
15200092069
15200103482
15200114163
15200123502
15200133450
15200145230
15200152371
15200163724
15200172513
15200183011
15200191861
15200202908
15200211758
15200222500
15200232327
15200239590
15200251736
15200258755
15200268704
15200279080
15200288174
15200297757
15200306912
15200316677
15200325894
15200334378
15200346218
15200356655
15200365078
15200375210
15200385525
15200393154
15200403042
15200412441
15200423000
15200434353
15200440517
15200448330
15200454617
15200460903
15200467373
15200473904
15200480373
15200488247
15200492885
15200500637
15200506130
15200512234
15200517971
15200526394
15200531826
15200539150
15200545864
15200551906
15200558986
15200565151
15200571376
15200580166
15200585476
15200592250
15200599147
15200604702
15200612392
15200617763
15200625881
15200629970
15200634914
15200639736
15200644496
15200650051
15200653835
15200657802
15200663783
15200668117
15200672389
15200678188
15200682521
15200687282
15200692043
15200699550
15200704189
15200709316
15200714504
15200719203
15200725368
15200730129
15200736537
15200741908
15200747340
15200751674
15200759914
15200765407
15200771632
15200777858
15200785060
15200790553
15200799892
15200805263
15200808742
15200814296
15200819789
15200824794
15200829310
15200833888
15200838893
15200844020
15200849757
15200854884
15200859095
15200866237
15200871363
15200876490
15200882533
15200891688
15200896632
15200902980
15200908534
15200917018
15200923487
15200929774
15200935755
15200945033
15200952052
15200959010
15200965113
15200974330
15200981654
15200988246
15200995020
15201001551
15201007838
15201016077
15201022425
15201029322
15201035914
15201041834
15201048670
15201055140
15201064051
15201071375
15201077235
15201085596
15201092066
15201099390
15201105860
15201113917
15201122278
15201128199
15201136927
15201144434
15201152369
15201160059
15201167017
15201174952
15201179285
15201188196
15201193995
15201202600
15201208826
15201215357
15201222437
15201230371
15201239038
15201244043
15201252710
15201258875
15201269861
15201276636
15201283289
15201291345
15201298059
15201304163
15201313257
15201320459
15201327356
15201334375
15201342432
15201346277
15201358240
15201365259
15201372766
15201376733
15201386926
15201396387
15201404992
15201411523
15201419641
15201428979
15201434167
15201444055
15201450342
15201460901
15201469506
15201477136
15201485864
15201494409
15201501184
15201509606
15201517724
15201526635
15201535607
15201542138
15201550866
15201558618
15201564477
15201573266
15201579308
15201588403
15201594323
15201601769
15201610436
15201617028
15201625756
15201631921
15201641198
15201648888
15201656762
15201665246
15201672631
15201681359
15201689660
15201699669
15201708214
15201712365
15201726098
15201733117
15201741112
15201748620
15201756188
15201764061
15201772057
15201778466
15201784996
15201795739
15201804467
15201810448
15201818627
15201826683
15201838585
15201846825
15201855614
15201863976
15201871788
15201878075
15201885582
15201891625
15201898949
15201907005
15201915428
15201924278
15201931847
15201937950
15201946251
15201952721
15201959679
15201967247
15201978355
15201988975
15201998253
15202005516
15202012291
15202019859
15202026817
15202035911
15202043297
15202049705
15202058128
15202065757
15202072471
15202079185
15202087791
15202095359
15202104209
15202112266
15202118003
15202124778
15202133018
15202138511
15202146995
15202154563
15202164207
15202170738
15202179283
15202185264
15202193931
15202200034
15202209007
15202215171
15202225608
15202231834
15202240928
15202248740
15202255637
15202263877
15202270957
15202273215
15202289329
15202298606
15202304465
15202309165
15202316794
15202321189
15202327109
15202334800
15202340049
15202345664
15202350547
15202354148
15202359092
15202364646
15202368918
15202375388
15202380698
15202388205
15202392966
15202399802
15202405661
15202410605
15202416465
15202422507
15202426474
15202431662
15202435630
15202442954
15202449118
15202453452
15202459067
15202467063
15202474509
15202482077
15202487326
15202493124
15202500510
15202506369
15202512534
15202517538
15202522971
15202528098
15202532614
15202539389
15202544211
15202551047
15202555380
15202562521
15202572775
15202578329
15202584982
15202593832
15202600363
15202606344
15202616598
15202625021
15202632345
15202636923
15202646200
15202652426
15202659506
15202663534
15202675070
15202681356
15202689230
15202696493
15202704184
15202710958
15202717733
15202725668
15202731466
15202738485
15202745016
15202752218
15202759115
15202766927
15202773336
15202779989
15202788412
15202797384
15202803487
15202812093
15202818136
15202825826
15202832601
15202841878
15202849386
15202854757
15202862813
15202868612
15202876790
15202883626
15202889852
15202898092
15202902791
15202912313
15202919881
15202928304
15202935933
15202944661
15202952840
15202962239
15202969686
15202977987
15202985494
15202992696
15202999715
15203006490
15203014424
15203022908
15203030232
15203039754
15203046956
15203057332
15203065022
15203070821
15203079305
15203085774
15203094197
15203101521
15203109334
15203116597
15203124593
15203132161
15203139790
15203146687
15203154317
15203160969
15203168660
15203176533
15203185139
15203192708
15203201314
15203208088
15203216633
15203224507
15203233418
15203239888
15203248494
15203255940
15203265889
15203273640
15203282185
15203289814
15203298786
15203303486
15203313191
15203321064
15203328999
15203333454
15203342427
15203349446
15203358601
15203365559
15203376179
15203380818
15203390827
15203398151
15203404560
15203412006
15203420002
15203428059
15203437824
15203444416
15203450519
15203459431
15203466755
15203475788
15203482014
15203491718
15203499958
15203506428
15203514911
15203521564
15203529621
15203535724
15203544330
15203551288
15203559345
15203567035
15203577411
15203585346
15203590839
15203598407
15203607502
15203613849
15203620807
15203629474
15203637836
15203642414
15203651264
15203657916
15203667316
15203674152
15203684284
15203690997
15203701129
15203707721
15203716876
15203724017
15203732135
15203740131
15203746722
15203756915
15203763141
15203773944
15203782184
15203788775
15203797503
15203804156
15203812274
15203818683
15203824298
15203834796
15203841082
15203849139
15203857013
15203866473
15203871478
15203880084
15203886248
15203896258
15203903033
15203909625
15203918475
15203925677
15203933184
15203940203
15203949114
15203953326
15203959185
15203964617
15203969866
15203975359
15203982806
15203987872
15203993792
15203999468
15204005938
15204011553
15204017657
15204023577
15204029559
15204035235
15204040911
15204047198
15204053118
15204059954
15204065935
15204071368
15204078692
15204083208
15204090838
15204095415
15204101946
15204105730
15204111651
15204115801
15204121843
15204126055
15204133196
15204137163
15204144793
15204148699
15204156145
15204160906
15204165606
15204173662
15204179583
15204185381
15204189897
15204195940
15204200518
15204207231
15204212419
15204219194
15204224443
15204231401
15204239885
15204247637
15204252214
15204262468
15204268938
15204280107
15204287553
15204297685
15204304948
15204312151
15204322221
15204330583
15204339250
15204347734
15204356340
15204364152
15204372575
15204381364
15204388872
15204395097
15204403459
15204411821
15204420060
15204428911
15204435136
15204441484
15204450822
15204457719
15204469621
15204477616
15204484269
15204493547
15204499833
15204507829
15204517167
15204523393
15204531083
15204537980
15204546708
15204555619
15204564042
15204571183
15204578935
15204585648
15204592851
15204601151
15204609635
15204618912
15204626542
15204634354
15204640885
15204648453
15204654557
15204664323
15204673173
15204679947
15204688981
15204698136
15204704606
15204712662
15204718705
15204727677
15204736283
15204741837
15204752701
15204759537
15204768509
15204774552
15204783707
15204789139
15204799271
15204806778
15204814286
15204822830
15204830277
15204836930
15204844498
15204852432
15204860672
15204867386
15204875259
15204884598
15204893143
15204900101
15204907791
15204916336
15204922195
15204928482
15204936600
15204948196
15204954849
15204960892
15204968704
15204977554
15204983719
15204992691
15205000137
15205010330
15205016372
15205025894
15205030716
15205040481
15205047622
15205055496
15205064285
15205072647
15205080581
15205090530
15205098464
15205108352
15205117324
15205123855
15205134841
15205141555
15205148147
15205157668
15205164932
15205174819
15205181411
15205190994
15205199233
15205207534
15205214065
15205224258
15205226272
15205239455
15205245986
15205254653
15205262527
15205271194
15205279433
15205287673
15205295119
15205302688
15205308669
15205316176
15205324660
15205330581
15205340651
15205349196
15205357009
15205364760
15205370803
15205379287
15205386855
15205392714
15205402663
15205408827
15205418288
15205424025
15205431960
15205439040
15205447218
15205456435
15205462599
15205472304
15205478224
15205486464
15205494093
15205500685
15205507094
15205516371
15205522963
15205533339
15205539564
15205548903
15205555372
15205564345
15205570082
15205579481
15205587111
15205594801
15205602553
15205610792
15205619215
15205626906
15205634230
15205642164
15205649427
15205657728
15205667616
15205673597
15205682569
15205687330
15205694654
15205699598
15205706312
15205711317
15205716932
15205724256
15205728346
15205734449
15205738355
15205744581
15205748609
15205755934
15205762708
15205768324
15205773939
15205778944
15205783521
15205790235
15205795545
15205801893
15205806593
15205813612
15205820509
15205825086
15205831922
15205836561
15205842054
15205847730
15205853834
15205858289
15205863477
15205868116
15205874830
15205881360
15205887586
15205893751
15205899244
15205904737
15205912610
15205916456
15205924146
15205929822
15205938428
15205943555
15205951246
15205958265
15205964185
15205969922
15205976636
15205983228
15205995069
15206001294
15206011060
15206016553
15206024976
15206033399
15206041211
15206047742
15206055676
15206062390
15206072034
15206078259
15206086804
15206092969
15206101575
15206107495
15206115857
15206123914
15206131116
15206140942
15206147229
15206156323
15206161938
15206169446
15206175976
15206186596
15206193799
15206202893
15206211499
15206218945
15206226025
15206233838
15206239636
15206247448
15206254406
15206263623
15206270398
15206279553
15206287487
15206292248
15206301647
15206309094
15206319164
15206326122
15206335583
15206342358
15206349438
15206356640
15206363842
15206367809
15206381603
15206389721
15206397228
15206403820
15206413952
15206420910
15206428722
15206435924
15206445385
15206454174
15206462536
15206467113
15206476940
15206483043
15206490185
15206499523
15206505504
15206515758
15206524913
15206532787
15206538707
15206547374
15206552868
15206562450
15206569591
15206579540
15206587902
15206594005
15206601696
15206608959
15206617381
15206624217
15206630687
15206638622
15206647228
15206655528
15206659374
15206671031
15206678050
15206685619
15206691844
15206702220
15206708995
15206719249
15206723827
15206734202
15206741893
15206751720
15206758433
15206765330
15206774913
15206781260
15206791270
15206798289
15206805613
15206811717
15206820201
15206828135
15206839122
15206847117
15206854808
15206860667
15206869456
15206877269
15206885081
15206892588
15206902110
15206910105
15206918284
15206924632
15206931712
15206939646
15206948252
15206955576
15206962595
15206972971
15206979746
15206989024
15206999400
15207005930
15207013071
15207020212
15207028452
15207039500
15207046213
15207053049
15207060129
15207069895
15207077097
15207084543
15207092173
15207100351
15207109629
15207116892
15207124765
15207132517
15207139902
15207147898
15207156870
15207165354
15207173044
15207183786
15207193247
15207200571
15207209116
15207219492
15207226877
15207234628
15207242502
15207250009
15207257272
15207265451
15207273264
15207280771
15207288522
15207295236
15207305490
15207314157
15207320077
15207328622
15207334970
15207344186
15207350229
15207357675
15207369699
15207378793
15207385446
15207392526
15207399484
15207407113
15207414743
15207421273
15207432626
15207438607
15207444772
15207449289
15207456735
15207462350
15207466684
15207472970
15207481149
15207487252
15207493234
15207500497
15207507455
15207513680
15207519479
15207525949
15207532174
15207538705
15207543710
15207549203
15207555550
15207560250
15207565072
15207570809
15207577279
15207582040
15207586495
15207593026
15207597970
15207602364
15207607552
15207613534
15207618233
15207623971
15207629464
15207634225
15207638863
15207645394
15207650887
15207659493
15207664071
15207670846
15207676522
15207681649
15207685738
15207692696
15207698372
15207705147
15207711373
15207718209
15207725350
15207732918
15207737191
15207749276
15207753975
15207766671
15207774300
15207782479
15207790779
15207798287
15207805977
15207813729
15207821602
15207830208
15207836983
15207845467
15207851814
15207862801
15207869270
15207878181
15207884468
15207894234
15207900703
15207907906
15207917183
15207922920
15207931770
15207937874
15207947578
15207954170
15207963936
15207971809
15207978706
15207986091
15207992988
15207997078
15208009346
15208015327
15208026008
15208033577
15208043647
15208050422
15208058845
15208066413
15208074043
15208082588
15208091499
15208099372
15208105781
15208111885
15208121345
15208127326
15208135993
15208143684
15208152168
15208161445
15208166694
15208175422
15208184272
15208190803
15208198920
15208207770
15208213447
15208223640
15208230231
15208239509
15208247504
15208255012
15208262031
15208270148
15208278815
15208287482
15208291877
15208302497
15208310920
15208319220
15208323981
15208333869
15208339972
15208346991
15208357367
15208366523
15208373175
15208382086
15208390326
15208398932
15208405219
15208414679
15208420905
15208430365
15208439765
15208445807
15208452460
15208460577
15208469367
15208475531
15208485724
15208492682
15208502020
15208508856
15208515936
15208524542
15208531805
15208538397
15208549505
15208556463
15208564459
15208571600
15208579230
15208586859
15208595160
15208604193
15208613226
15208620489
15208630438
15208637152
15208644598
15208654119
15208660406
15208666876
15208677252
15208685003
15208692999
15208698980
15208706976
15208716009
15208720770
15208730047
15208738836
15208745428
15208754583
15208763250
15208770879
15208779424
15208784307
15208793279
15208801519
15208809942
15208818304
15208825811
15208831487
15208841375
15208849004
15208855962
15208862371
15208873052
15208880193
15208888799
15208895513
15208903203
15208911443
15208919500
15208926519
15208934514
15208941961
15208950139
15208956548
15208966863
15208974675
15208982915
15208988835
15208998357
15209005132
15209014409
15209020452
15209028203
15209038274
15209044377
15209051579
15209059758
15209070256
15209077092
15209087285
15209093510
15209102971
15209109685
15209117314
15209124577
15209133671
15209137944
15209150822
15209156499
15209165104
15209172123
15209177311
15209182744
15209188237
15209193608
15209200566
15209205937
15209211674
15209216801
15209222966
15209227299
15209234990
15209241886
15209246708
15209253178
15209258183
15209265690
15209270573
15209277165
15209283268
15209288883
15209294438
15209299992
15209306706
15209311100
15209315678
15209322758
15209329533
15209335331
15209341007
15209345829
15209351322
15209356205
15209360416
15209368534
15209373539
15209380863
15209389286
15209395390
15209402531
15209407902
15209416691
15209422184
15209427616
15209434818
15209439945
15209445072
15209450626
15209456302
15209459904
15209474979
15209482914
15209492679
15209498844
15209508670
15209514713
15209522403
15209529361
15209538089
15209545597
15209554142
15209560611
15209569278
15209578372
15209584049
15209594119
15209602481
15209610599
15209618533
15209625125
15209632816
15209639591
15209646121
15209655460
15209661868
15209671512
15209679263
15209687320
15209692386
15209701968
15209709720
15209716678
15209722903
15209731448
15209740298
15209747928
15209756656
15209764346
15209772220
15209780459
15209788699
15209795108
15209804995
15209813296
15209822024
15209828006
15209834475
15209844424
15209850466
15209860110
15209870303
15209876589
15209886233
15209892764
15209900759
15209908328
15209914370
15209921511
15209932742
15209940249
15209949404
15209956362
15209963198
15209971743
15209979372
15209987002
15209996584
15210004214
15210011477
15210019228
15210026125
15210033694
15210041445
15210048891
15210057192
15210066164
15210074587
15210082705
15210090700
15210094729
15210104982
15210111330
15210120241
15210129457
15210135805
15210143801
15210151430
15210157778
15210166017
15210173036
15210179323
15210190737
15210197695
15210206423
15210211244
15210221498
15210229860
15210237306
15210244936
15210253359
15210263185
15210270937
15210277956
15210285890
15210292787
15210300478
15210307924
15210316774
15210326295
15210332521
15210338624
15210348024
15210353944
15210361635
15210370851
15210377260
15210388673
15210397889
15210404603
15210413697
15210419862
15210427491
15210434938
15210443422
15210450929
15210457948
15210467713
15210474977
15210482667
15210489869
15210498109
15210505555
15210513856
15210521913
15210530152
15210538392
15210546510
15210554322
15210562318
15210568909
15210579835
15210587403
15210596314
15210602967
15210612366
15210619569
15210630128
15210636231
15210642762
15210653382
15210661988
15210668091
15210677613
15210685059
15210692261
15210701966
15210707825
15210717835
15210724427
15210733948
15210740784
15210749634
15210754944
15210763062
15210771057
15210780091
15210789429
15210796570
15210803223
15210811157
15210817871
15210825501
15210834717
15210844055
15210852844
15210861328
15210868774
15210876770
15210883423
15210891052
15210899597
15210904358
15210915039
15210922302
15210927368
15210933166
15210937866
15210942993
15210947571
15210954956
15210960388
15210965881
15210970886
15210976989
15210981567
15210986328
15210991821
15210998779
15211004699
15211011047
15211015197
15211020568
15211025695
15211033142
15211037719
15211044006
15211050476
15211055908
15211060668
15211066345
15211071166
15211077087
15211082519
15211089599
15211096130
15211101989
15211107116
15211111877
15211119689
15211123535
15211130065
15211136779
15211142883
15211149902
15211155944
15211159057
15211166442
15211171447
15211181213
15211187743
15211192687
15211197570
15211207336
15211213378
15211221984
15211228576
15211235534
15211245666
15211254516
15211262999
15211268004
15211277221
15211284606
15211292174
15211299498
15211310057
15211317504
15211324767
15211333312
15211340331
15211347289
15211355895
15211364257
15211374755
15211381102
15211389281
15211395751
15211403502
15211412352
15211418334
15211424437
15211434752
15211442015
15211450743
15211456786
15211464476
15211473448
15211480345
15211487974
15211495238
15211505614
15211511839
15211521055
15211528685
15211537474
15211545042
15211552122
15211560667
15211569456
15211577391
15211586729
15211593382
15211600950
15211610167
15211617369
15211623777
15211632139
15211639952
15211647825
15211655394
15211663572
15211670164
15211680906
15211688658
15211698423
15211705808
15211715818
15211722959
15211730406
15211736875
15211744993
15211752866
15211760923
15211768308
15211776609
15211786558
15211793027
15211801389
15211809019
15211815916
15211824644
15211834348
15211840574
15211849058
15211857725
15211865781
15211874143
15211880491
15211886899
15211897519
15211905576
15211911557
15211919065
15211928342
15211934751
15211942258
15211949765
15211957456
15211965573
15211974790
15211980222
15211990109
15211996518
15212004209
15212011350
15212019956
15212029111
15212037656
15212045346
15212053403
15212062192
15212070065
15212078061
15212084164
15212093869
15212102353
15212108761
15212118710
15212124875
15212134701
15212140683
15212147336
15212157589
15212167172
15212173886
15212180905
15212191281
15212197689
15212206784
15212213192
15212222836
15212231320
15212237301
15212244992
15212253659
15212259884
15212267086
15212276486
15212284176
15212291378
15212300106
15212305111
15212314572
15212321102
15212328854
15212336178
15212344540
15212353512
15212361507
15212365902
15212376339
15212382320
15212391537
15212397640
15212406368
15212413021
15212422848
15212428890
15212437374
15212444027
15212452572
15212459530
15212467769
15212477291
15212485470
15212495052
15212502315
15212512142
15212518428
15212528072
15212537654
15212544673
15212554927
15212561458
15212570430
15212580501
15212587703
15212595210
15212603755
15212611812
15212618953
15212629573
15212635921
15212643977
15212652156
15212658931
15212665523
15212672603
15212678401
15212684627
15212687678
15212697810
15212702266
15212709529
15212713679
15212721065
15212726314
15212732417
15212736629
15212742793
15212747310
15212753291
15212757441
15212764216
15212770869
15212775508
15212782710
15212788081
15212793818
15212799311
15212805659
15212813105
15212820369
15212826289
15212831965
15212836299
15212844233
15212848445
15212855952
15212864192
15212870539
15212876094
15212881159
15212885249
15212890559
15212894892
15212902278
15212909602
15212913569
15212920771
15212925105
15212932185
15212936945
15212942011
15212949519
15212957636
15212966486
15212973750
15212981928
15212988764
15212995417
15213002924
15213011103
15213019526
15213026179
15213034601
15213042719
15213050348
15213057306
15213065180
15213070978
15213079157
15213088800
15213097101
15213103693
15213109919
15213118891
15213124689
15213133783
15213141596
15213151911
15213158991
15213168390
15213173395
15213182367
15213190363
15213197565
15213204523
15213213434
15213221674
15213229669
15213237177
15213245111
15213251703
15213259271
15213268304
15213274835
15213281732
15213290948
15213296930
15213304681
15213313837
15213321039
15213327997
15213335504
15213343438
15213352472
15213359430
15213364496
15213374627
15213381768
15213389703
15213396966
15213406182
15213413385
15213420037
15213426446
15213436151
15213444390
15213450616
15213459344
15213464837
15213475884
15213481133
15213490289
15213497979
15213504876
15213512139
15213519158
15213526055
15213534051
15213542901
15213551080
15213557183
15213564751
15213573052
15213579705
15213588738
15213597161
15213606499
15213611626
15213621026
15213627373
15213637078
15213642754
15213652092
15213658928
15213669976
15213676873
15213685723
15213693230
15213700615
15213707878
15213715142
15213722039
15213730767
15213739189
15213746941
15213754265
15213761772
15213769463
15213777519
15213784111
15213793938
15213800652
15213809197
15213817070
15213824761
15213832817
15213838554
15213846550
15213854668
15213865166
15213871391
15213879692
15213886894
15213895866
15213901665
15213910515
15213916618
15213926140
15213935783
15213941826
15213948662
15213958122
15213965141
15213972038
15213980278
15213988334
15213997306
15214004264
15214011772
15214019828
15214027030
15214034599
15214041679
15214049980
15214056571
15214066703
15214072990
15214078788
15214088065
15214093986
15214103568
15214110343
15214121085
15214127738
15214136649
15214142509
15214151115
15214157951
15214165153
15214172721
15214181754
15214190848
15214198112
15214205253
15214212882
15214220634
15214228690
15214236014
15214242118
15214250663
15214258902
15214265006
15214273917
15214280143
15214288138
15214297110
15214303824
15214314444
15214320548
15214329276
15214334708
15214344107
15214351798
15214358695
15214366446
15214373709
15214382681
15214389151
15214393546
15214400321
15214408438
15214413321
15214418570
15214426871
15214433585
15214442557
15214451468
15214459341
15214464529
15214471976
15214478323
15214484244
15214487051
15214494681
15214501822
15214510061
15214513540
15214522085
15214525015
15214532828
15214540274
15214545950
15214551321
15214557058
15214563955
15214568167
15214575552
15214582571
15214590506
15214595816
15214602407
15214608938
15214613760
15214620291
15214625723
15214633474
15214638723
15214642935
15214650381
15214655264
15214662344
15214667349
15214673696
15214677847
15214685049
15214690603
15214697866
15214704031
15214712881
15214722219
15214729665
15214733755
15214744314
15214752004
15214759817
15214767507
15214775808
15214784109
15214793203
15214800832
15214809072
15214817068
15214825735
15214832754
15214840993
15214849233
15214857534
15214864370
15214874379
15214882497
15214889455
15214896596
15214903798
15214912343
15214920156
15214928273
15214938649
15214946889
15214960073
15214970937
15214982533
15214994435
15215002980
15215012319
15215023671
15215032033
15215040150
15215045461
15215054921
15215064137
15215070546
15215082082
15215089101
15215096486
15215103810
15215112782
15215120167
15215128651
15215137074
15215142933
15215154103
15215162587
15215170765
15215179554
15215185048
15215195485
15215201832
15215210987
15215218800
15215228688
15215235401
15215244435
15215253468
15215259327
15215267201
15215276417
15215284535
15215291920
15215299488
15215307789
15215313892
15215322926
15215331165
15215337513
15215346302
15215354603
15215362049
15215368030
15215376392
15215383228
15215393238
15215399952
15215409168
15215415150
15215424183
15215430591
15215439380
15215449146
15215456592
15215464344
15215470325
15215478443
15215484302
15215492542
15215499561
15215507801
15215514453
15215522571
15215529590
15215536243
15215544422
15215551258
15215558032
15215567310
15215574817
15215581836
15215589160
15215599048
15215605090
15215612659
15215620166
15215629077
15215636707
15215645190
15215649097
15215659595
15215665698
15215674548
15215683520
15215688159
15215696033
15215705676
15215713733
15215720874
15215729480
15215734668
15215744128
15215751696
15215761584
15215767566
15215776965
15215784533
15215791491
15215799548
15215806811
15215810778
15215824206
15215830676
15215838793
15215847338
15215854785
15215862292
15215870165
15215877673
15215885607
15215893359
15215901659
15215908434
15215917895
15215924242
15215932421
15215940844
15215947619
15215958910
15215965502
15215974840
15215981554
15215990282
15215998095
15216005358
15216010424
15216020617
15216029772
15216036608
15216042711
15216050524
15216058580
15216066881
15216074938
15216083361
15216091295
15216099657
15216103624
15216113085
15216122484
15216130602
15216136888
15216146349
15216153002
15216158983
15216164232
15216169542
15216174730
15216179735
15216184923
15216194200
15216199693
15216205614
15216209520
15216215624
15216220934
15216227159
15216231981
15216238451
15216244676
15216248888
15216255174
15216262132
15216267931
15216273363
15216280260
15216286973
15216292100
15216297227
15216303209
15216307115
15216312974
15216317186
15216325120
15216331773
15216342454
15216349839
15216355638
15216361314
15216367967
15216374742
15216381334
15216387315
15216393907
15216400071
15216405442
15216411241
15216416978
15216424485
15216431016
15216436265
15216443528
15216453538
15216460801
15216468797
15216477403
15216485825
15216493882
15216502488
15216509568
15216516526
15216524888
15216531541
15216539536
15216549058
15216557786
15216564072
15216572922
15216582200
15216590012
15216596665
15216605454
15216614853
15216626694
15216633530
15216643540
15216652146
15216660630
15216668137
15216674118
15216684433
15216692673
15216700669
15216706345
15216714951
15216722580
15216729050
15216735642
15216746506
15216755966
15216764145
15216770065
15216779343
15216785996
15216793503
15216800034
15216810288
15216815903
15216825363
15216832748
15216840866
15216844833
15216854599
15216860763
15216869675
15216876205
15216885788
15216893783
15216899460
15216909714
15216918075
15216927109
15216931747
15216941391
15216950058
15216956039
15216962875
15216972274
15216979721
15216986496
15216992843
15217004196
15217011764
15217018539
15217025131
15217033615
15217040878
15217048934
15217058090
15217067855
15217073898
15217084335
15217089889
15217097823
15217105087
15217113265
15217119247
15217129379
15217136642
15217147872
15217153976
15217163863
15217169967
15217179977
15217186019
15217194747
15217202498
15217212325
15217220626
15217225936
15217236861
15217244918
15217251021
15217258162
15217267745
15217274642
15217283492
15217291365
15217298629
15217305831
15217312789
15217321395
15217332320
15217340071
15217347457
15217353499
15217363082
15217368025
15217377852
15217384932
15217393050
15217400618
15217409102
15217418379
15217424178
15217430342
15217440657
15217447127
15217456404
15217466658
15217475569
15217481856
15217491743
15217498335
15217506392
15217514326
15217520003
15217530256
15217539656
15217545942
15217553267
15217562788
15217568464
15217577559
15217582808
15217594404
15217602278
15217611006
15217618757
15217626387
15217634443
15217641401
15217647810
15217656904
15217664106
15217673872
15217680769
15217688459
15217696027
15217703962
15217710981
15217719465
15217727338
15217735578
15217741621
15217750532
15217756757
15217764570
15217773420
15217782758
15217788923
15217798017
15217804365
15217814863
15217820905
15217828107
15217836896
15217842450
15217852521
15217859967
15217869489
15217875653
15217882611
15217890119
15217894696
15217899152
15217907636
15217914655
15217923749
15217931134
15217937116
15217944684
15217951520
15217959027
15217966351
15217971906
15217976239
15217980695
15217984906
15217989850
15217994489
15218000470
15218005231
15218009564
15218014203
15218018781
15218023236
15218027386
15218034039
15218039410
15218043561
15218048566
15218053448
15218058087
15218062054
15218068036
15218072430
15218077801
15218083295
15218088666
15218093365
15218099591
15218104779
15218111493
15218116742
15218122662
15218127423
15218134015
15218138958
15218143719
15218152569
15218158612
15218163433
15218171978
15218177410
15218185955
15218191937
15218200238
15218207318
15218213238
15218220196
15218225323
15218230938
15218238384
15218244549
15218253094
15218261944
15218267071
15218274273
15218280865
15218287945
15218293072
15218301006
15218309002
15218316265
15218321331
15218330791
15218338543
15218345135
15218351726
15218358501
15218364300
15218372906
15218378582
15218386516
15218391704
15218399639
15218406048
15218413128
15218419903
15218426983
15218435161
15218441631
15218447918
15218457073
15218463604
15218471294
15218479595
15218486736
15218493511
15218500469
15218508831
15218516338
15218522930
15218530742
15218538921
15218546672
15218553325
15218560344
15218567729
15218574687
15218581218
15218590740
15218597453
15218605327
15218614116
15218620403
15218627299
15218634319
15218641215
15218648479
15218655131
15218664653
15218669963
15218678691
15218685588
15218692546
15218696208
15218706279
15218715251
15218722697
15218731059
15218737468
15218743449
15218753642
15218759745
15218768290
15218775126
15218784709
15218793742
15218801738
15218807719
15218816935
15218825724
15218833598
15218843791
15218852702
15218858439
15218867533
15218873698
15218881632
15218887187
15218896098
15218902384
15218911417
15218919352
15218925028
15218934428
15218940409
15218949564
15218956827
15218966593
15218973124
15218982218
15218989420
15218996317
15219004191
15219011637
15219017985
15219028360
15219037760
15219045450
15219053873
15219060770
15219066935
15219074381
15219083475
15219090067
15219100077
15219108377
15219115457
15219123636
15219129556
15219138285
15219144327
15219151468
15219162882
15219171060
15219179544
15219184915
15219194132
15219201456
15219208658
15219215555
15219226663
15219233499
15219242960
15219249856
15219257364
15219263772
15219273233
15219280130
15219288492
15219295816
15219304117
15219313272
15219319131
15219327798
15219335428
15219341775
15219347696
15219357583
15219367471
15219373635
15219382302
15219388345
15219395669
15219404214
15219410989
15219420816
15219429544
15219435525
15219442788
15219451638
15219457375
15219466958
15219474160
15219484170
15219489846
15219498879
15219506570
15219513589
15219520180
15219527444
15219533059
15219540078
15219546059
15219552956
15219557961
15219565835
15219571572
15219577675
15219584023
15219591469
15219597878
15219605141
15219610024
15219619057
15219623818
15219630410
15219636574
15219642067
15219647194
15219653542
15219659218
15219665322
15219670510
15219678505
15219685280
15219691933
15219697914
15219703713
15219706948
15219713906
15219719521
15219725868
15219731362
15219736794
15219742592
15219749611
15219755776
15219759804
15219765541
15219771217
15219778114
15219783730
15219790993
15219796913
15219804359
15219810707
15219816139
15219822609
15219828773
15219834084
15219842934
15219849953
15219860329
15219866981
15219873207
15219882545
15219890358
15219897804
15219904518
15219914772
15219920570
15219927955
15219934913
15219942909
15219947425
15219958473
15219966774
15219973304
15219980751
15219991310
15219998024
15220005897
15220012489
15220019203
15220029090
15220036109
15220043861
15220052345
15220060523
15220066261
15220074134
15220078346
15220088722
15220097083
15220104469
15220111304
15220120826
15220127357
15220137061
15220144630
15220149818
15220159278
15220167884
15220175696
15220184180
15220191138
15220198462
15220205298
15220212623
15220220740
15220229285
15220238135
15220247351
15220254432
15220260413
15220267920
15220276160
15220284034
15220292517
15220298621
15220308386
15220316565
15220323889
15220332800
15220340369
15220349036
15220357703
15220366675
15220375281
15220384070
15220388403
15220397498
15220406287
15220413916
15220419958
15220429114
15220437476
15220445471
15220454809
15220462988
15220469092
15220477331
15220484595
15220493200
15220501684
15220510168
15220517737
15220524511
15220534277
15220540442
15220548315
15220554968
15220563757
15220571569
15220579748
15220589331
15220595312
15220603308
15220610815
15220616735
15220626501
15220650305
15220661718
15220668981
15220676244
15220685461
15220693456
15220700475
15220708166
15220715551
15220723974
15220732458
15220740209
15220747716
15220755590
15220765172
15220770177
15220779821
15220785314
15220795385
15220802038
15220809606
15220817601
15220824376
15220831640
15220842138
15220848180
15220857518
15220863622
15220872777
15220878698
15220889684
15220896459
15220906041
15220912145
15220920018
15220928441
15220933690
15220942540
15220949254
15220959935
15220965856
15220975255
15220983373
15220993260
15221002965
15221009862
15221019566
15221028355
15221037389
15221043980
15221053441
15221061253
15221066502
15221075230
15221082127
15221091771
15221099156
15221108006
15221115696
15221122227
15221131260
15221138340
15221147068
15221156163
15221165684
15221172886
15221181492
15221189366
15221198826
15221207249
15221215672
15221225559
15221234226
15221240635
15221247105
15221256077
15221264866
15221271763
15221279697
15221289036
15221295872
15221304111
15221308262
15221316135
15221321323
15221326694
15221332371
15221340305
15221346775
15221350864
15221357029
15221361118
15221366978
15221371128
15221377964
15221384678
15221390842
15221393772
15221402256
15221409397
15221416172
15221421177
15221427402
15221433567
15221440342
15221447666
15221454746
15221458469
15221468967
15221475071
15221481113
15221486850
15221489780
15221496799
15221501926
15221507053
15221512912
15221518650
15221522617
15221529941
15221535312
15221541110
15221547031
15221552341
15221558200
15221563876
15221570529
15221576083
15221583408
15221590488
15221596347
15221604465
15221612033
15221622714
15221631198
15221638888
15221645602
15221653110
15221660251
15221668124
15221676242
15221684604
15221692660
15221700778
15221707858
15221715793
15221721713
15221730746
15221736728
15221746371
15221755893
15221764071
15221770358
15221777865
15221786898
15221793002
15221802035
15221808871
15221818392
15221824679
15221833895
15221840365
15221850009
15221857943
15221865939
15221872591
15221883456
15221892306
15221899874
15221907626
15221914461
15221920626
15221930636
15221938021
15221946261
15221952730
15221960848
15221968538
15221976229
15221980074
15221991121
15222000704
15222007113
15222015474
15222023958
15222029940
15222038607
15222046602
15222052523
15222061922
15222071443
15222080904
15222092134
15222099153
15222108736
15222115938
15222125643
15222134737
15222139986
15222150789
15222159395
15222166109
15222175142
15222182222
15222191805
15222200533
15222207063
15222218233
15222226839
15222233613
15222241060
15222251131
15222257600
15222267915
15222274263
15222282136
15222291902
15222300508
15222307954
15222314729
15222322847
15222333589
15222342012
15222348787
15222355867
15222365693
15222372163
15222381623
15222387910
15222397798
15222404328
15222414887
15222421235
15222431001
15222437104
15222446626
15222453523
15222461152
15222469025
15222480256
15222488007
15222496247
15222503815
15222513459
15222521760
15222530060
15222538300
15222549958
15222555878
15222565766
15222574311
15222580903
15222587983
15222598725
15222609345
15222616303
15222625031
15222633088
15222640778
15222647614
15222655304
15222662140
15222671784
15222681549
15222689606
15222694672
15222704132
15222712738
15222718231
15222728363
15222733551
15222746185
15222752411
15222760712
15222768829
15222774872
15222784210
15222790802
15222799896
15222808380
15222816498
15222825348
15222831085
15222839020
15222847076
15222854339
15222861236
15222870025
15222878021
15222887176
15222894806
15222902496
15222910675
15222916595
15222928070
15222938934
15222946441
15222955108
15222963714
15222971527
15222979766
15222988739
15222995941
15223005035
15223011138
15223020843
15223027740
15223036407
15223042266
15223048370
15223053619
15223059783
15223065337
15223069976
15223075958
15223080230
15223087737
15223095489
15223101409
15223106048
15223112579
15223116790
15223122222
15223128570
15223133880
15223139922
15223146697
15223151092
15223157561
15223162566
15223168975
15223173125
15223179778
15223185698
15223191497
15223199065
15223203826
15223209746
15223215850
15223222258
15223228484
15223234893
15223239043
15223244841
15223250457
15223254485
15223260710
15223266448
15223274138
15223279936
15223285918
15223291411
15223299101
15223304473
15223309233
15223318022
15223326506
15223335784
15223342131
15223348418
15223358794
15223365630
15223373076
15223384123
15223393706
15223400298
15223407500
15223416838
15223423186
15223432341
15223439360
15223449919
15223455900
15223464689
15223470305
15223479399
15223485380
15223495146
15223500334
15223510283
15223519499
15223526884
15223534452
15223541288
15223548552
15223556364
15223564176
15223572966
15223581816
15223590116
15223597013
15223604582
15223611845
15223620085
15223626432
15223632414
15223642240
15223651090
15223657072
15223666288
15223673002
15223681059
15223688078
15223696134
15223705289
15223714506
15223721708
15223726652
15223736356
15223742521
15223752286
15223756315
15223766691
15223775968
15223782132
15223788541
15223798673
15223804593
15223813627
15223819852
15223829557
15223839139
15223847379
15223853727
15223862882
15223868802
15223876493
15223883756
15223891812
15223900723
15223908048
15223916837
15223923978
15223931546
15223942105
15223950223
15223959134
15223967679
15223974088
15223982449
15223991238
15223998563
15224006070
15224014737
15224022244
15224031094
15224039273
15224046170
15224055508
15224061551
15224069913
15224075528
15224085660
15224094815
15224102017
15224110012
15224116726
15224127163
15224136624
15224143399
15224153103
15224160916
15224171841
15224180020
15224186856
15224195400
15224205837
15224212673
15224219448
15224230862
15224238064
15224247097
15224254238
15224263271
15224270412
15224279934
15224286098
15224298794
15224307583
15224316067
15224322719
15224331997
15224338405
15224348720
15224355373
15224366970
15224373501
15224382595
15224389248
15224395900
15224404751
15224410854
15224420437
15224427578
15224435268
15224442226
15224449794
15224458278
15224466457
15224473598
15224482387
15224489772
15224498012
15224506557
15224514675
15224522609
15224530116
15224534328
15224543788
15224552394
15224560146
15224567226
15224577296
15224583339
15224590053
15224600246
15224606593
15224616420
15224623683
15224632594
15224640590
15224647365
15224655421
15224662257
15224671107
15224678004
15224686854
15224695094
15224703639
15224711268
15224718165
15224725673
15224734217
15224742091
15224746363
15224760218
15224767726
15224776087
15224783045
15224788905
15224794276
15224798976
15224804164
15224810633
15224817591
15224822474
15224829859
15224834681
15224842066
15224846888
15224851771
15224860377
15224866175
15224871058
15224876185
15224881678
15224886988
15224892298
15224899439
15224904566
15224911158
15224917689
15224923487
15224930323
15224935572
15224941981
15224950464
15224956873
15224961878
15224975062
15224981714
15224988184
15224993555
15224999964
15225007593
15225013819
15225018946
15225025537
15225032557
15225037439
15225044580
15225050074
15225058191
15225064234
15225070032
15225075403
15225081507
15225087549
15225095056
15225102136
15225110681
15225120569
15225128748
15225136621
15225144861
15225151819
15225159387
15225165369
15225174463
15225184167
15225192651
15225199365
15225207056
15225213159
15225222803
15225229150
15225236352
15225246301
15225254358
15225260461
15225267724
15225277185
15225284570
15225291101
15225297876
15225306543
15225313379
15225320214
15225327417
15225334436
15225341516
15225348962
15225357690
15225366113
15225372705
15225381188
15225390283
15225398767
15225406396
15225414086
15225421044
15225430016
15225438561
15225446740
15225452782
15225460961
15225467065
15225476342
15225485802
15225492028
15225499047
15225509728
15225518456
15225526330
15225532555
15225541039
15225547448
15225554589
15225565331
15225573021
15225582482
15225591576
15225601952
15225614464
15225626549
15225639122
15225651818
15225657555
15225666771
15225674462
15225681664
15225688927
15225697777
15225704735
15225714989
15225722618
15225731835
15225739586
15225749413
15225757164
15225762840
15225770103
15225779564
15225787865
15225793846
15225801048
15225809776
15225817222
15225824425
15225832115
15225841698
15225846702
15225855491
15225863121
15225870262
15225877647
15225884666
15225893638
15225902183
15225909568
15225917747
15225925560
15225933250
15225940025
15225948387
15225954490
15225964317
15225974082
15225980674
15225990074
15225995933
15226003990
15226010276
15226019737
15226025474
15226036643
15226044151
15226053123
15226060325
15226067405
15226074912
15226082053
15226089133
15226099876
15226108237
15226117637
15226124229
15226133323
15226139304
15226149070
15226156455
15226164023
15226170310
15226180442
15226187583
15226195701
15226202414
15226210288
15226218222
15226224936
15226234030
15226242759
15226251120
15226258811
15226265036
15226272422
15226279746
15226287802
15226297507
15226304648
15226312766
15226322104
15226329123
15226335410
15226343588
15226352133
15226360373
15226366782
15226376730
15226383261
15226392538
15226399313
15226407553
15226416586
15226424887
15226434714
15226443197
15226447409
15226457663
15226463949
15226472983
15226479086
15226485617
15226497213
15226506613
15226513327
15226521444
15226528646
15226536276
15226545492
15226550924
15226560141
15226567343
15226573446
15226579550
15226585409
15226590109
15226596639
15226600851
15226608480
15226614095
15226618734
15226624227
15226629842
15226633566
15226638998
15226645467
15226650106
15226656271
15226661337
15226666219
15226670553
15226677267
15226682211
15226688680
15226693624
15226699605
15226703756
15226710775
15226716024
15226721273
15226727010
15226734029
15226740377
15226746297
15226751546
15226756490
15226762105
15226767721
15226774617
15226781148
15226787740
15226794332
15226799276
15226805440
15226811055
15226815633
15226822835
15226830648
15226837667
15226843648
15226852925
15226859334
15226866536
15226873555
15226882527
15226891072
15226898030
15226907674
15226912679
15226922322
15226929524
15226936971
15226944539
15226951253
15226961568
15226970174
15226977559
15226985066
15226991231
15226999165
15227005757
15227014851
15227024739
15227033345
15227039815
15227047871
15227053975
15227061177
15227070576
15227077290
15227087117
15227093403
15227102620
15227110371
15227117329
15227124653
15227131794
15227139546
15227148030
15227155232
15227163960
15227170918
15227178547
15227185749
15227194172
15227202961
15227211506
15227220783
15227227680
15227234028
15227244526
15227253742
15227262226
15227268635
15227275410
15227286030
15227294331
15227300678
15227309223
15227315998
15227322895
15227332294
15227339802
15227350422
15227356891
15227366840
15227373249
15227382892
15227390583
15227397541
15227404621
15227413410
15227420856
15227429279
15227437458
15227445453
15227453510
15227461200
15227467426
15227477191
15227484882
15227492938
15227499164
15227506793
15227515521
15227523761
15227529926
15227536578
15227547199
15227555865
15227561847
15227570575
15227576617
15227584430
15227593768
15227600543
15227610248
15227616229
15227625628
15227632892
15227640155
15227648089
15227655047
15227661151
15227672015
15227678485
15227686663
15227695147
15227703448
15227709857
15227717913
15227724688
15227733538
15227742999
15227751666
15227757647
15227765887
15227773821
15227782183
15227788531
15227795855
15227805743
15227811907
15227820757
15227828814
15227836321
15227844439
15227853350
15227861040
15227870623
15227879412
15227887041
15227894549
15227901629
15227908770
15227917071
15227924395
15227932390
15227941424
15227947527
15227956133
15227964068
15227970842
15227978411
15227986467
15227991167
15228001421
15228010271
15228018572
15228023455
15228034258
15228042620
15228050127
15228059038
15228069780
15228076738
15228086748
15228094621
15228102007
15228108904
15228116167
15228123979
15228135149
15228140764
15228150591
15228156206
15228164140
15228173906
15228179765
15228188310
15228197649
15228206926
15228213518
15228222001
15228229631
15228235673
15228243913
15228252641
15228257951
15228268144
15228275346
15228284135
15228289628
15228296220
15228300920
15228306840
15228310441
15228317277
15228324540
15228329850
15228335954
15228342424
15228347734
15228353593
15228357682
15228362504
15228369401
15228375871
15228381059
15228387162
15228392594
15228397477
15228403825
15228408891
15228414567
15228420548
15228425065
15228429643
15228434892
15228439652
15228446854
15228452164
15228459428
15228465958
15228471390
15228479203
15228485001
15228492875
15228496110
15228504166
15228511368
15228516129
15228521073
15228528946
15228534134
15228540787
15228548356
15228556107
15228563187
15228568192
15228575516
15228583268
15228590409
15228595169
15228606644
15228613907
15228623001
15228629410
15228639054
15228645218
15228654373
15228660416
15228668411
15228678238
15228684769
15228693253
15228700455
15228707718
15228715469
15228722488
15228730850
15228739273
15228748550
15228755936
15228765457
15228773148
15228781692
15228789444
15228796463
15228805496
15228812759
15228822830
15228828567
15228836441
15228844314
15228852859
15228856949
15228869339
15228876236
15228883865
15228891189
15228899429
15228906143
15228913589
15228921585
15228927749
15228939895
15228947830
15228953811
15228962173
15228968704
15228976028
15228984939
15228991531
15229001724
15229008560
15229017898
15229024734
15229033462
15229039504
15229047256
15229056594
15229065749
15229074050
15229083938
15229089614
15229099624
15229104751
15229114272
15229121230
15229130019
15229136367
15229144973
15229153945
15229162246
15229169387
15229177016
15229181228
15229191359
15229200942
15229206557
15229215956
15229224868
15229231459
15229240126
15229246108
15229254531
15229262465
15229271254
15229278334
15229285719
15229294631
15229303481
15229310988
15229318373
15229325819
15229334425
15229341750
15229348891
15229356398
15229365370
15229371535
15229379652
15229388808
15229397047
15229405531
15229416701
15229425245
15229432997
15229441115
15229450392
15229459242
15229465712
15229476088
15229482740
15229491041
15229499647
15229507765
15229515577
15229525160
15229532911
15229541090
15229547743
15229556288
15229564588
15229573744
15229581800
15229591078
15229599622
15229608228
15229612562
15229625379
15229631544
15229640638
15229647108
15229657972
15229665052
15229672498
15229680311
15229688123
15229694471
15229704542
15229712232
15229719800
15229728589
15229735059
15229744703
15229751417
15229761487
15229771314
15229780530
15229788648
15229798719
15229806226
15229814344
15229821302
15229827100
15229835950
15229845716
15229854627
15229863050
15229871289
15229878247
15229886792
15229894666
15229903516
15229910291
15229919019
15229926038
15229936169
15229943738
15229951672
15229958203
15229967419
15229974805
15229982434
15229988782
15229997265
15230004285
15230012951
15230019421
15230028210
15230034314
15230039990
15230045422
15230051159
15230056408
15230062756
15230067761
15230073986
15230081067
15230087231
15230093274
15230097607
15230103100
15230107800
15230114331
15230119580
15230125622
15230131787
15230137219
15230142956
15230149609
15230153393
15230161022
15230167065
15230172375
15230179577
15230184887
15230190319
15230195263
15230201611
15230205761
15230211254
15230216503
15230221996
15230226452
15230231823
15230237072
15230242992
15230248669
15230254894
15230259838
15230268810
15230275402
15230282238
15230287182
15230295299
15230302196
15230309093
15230315685
15230323864
15230331127
15230338207
15230346508
15230353710
15230362682
15230369701
15230378124
15230385326
15230393688
15230400585
15230409191
15230415538
15230422557
15230431530
15230438488
15230447765
15230454540
15230462840
15230471385
15230478771
15230484813
15230493785
15230501537
15230509532
15230513866
15230524364
15230531139
15230540660
15230547679
15230554088
15230567027
15230575206
15230588695
15230596812
15230608958
15230620860
15230629344
15230643687
15230654368
15230665538
15230675486
15230696605
15230706797
15230716014
15230726634
15230736582
15230747142
15230758677
15230771556
15230781687
15230791087
15230800974
15230810923
15230822581
15230831919
15230841257
15230849436
15230859690
15230868662
15230878184
15230887217
15230895762
15230905710
15230914194
15230923472
15230933054
15230943552
15230952952
15230962412
15230971445
15230981028
15230992014
15231000986
15231010202
15231019358
15231028757
15231037119
15231047861
15231057504
15231067575
15231074533
15231085581
15231092783
15231103220
15231112436
15231119638
15231131845
15231139352
15231150095
15231158090
15231166696
15231174753
15231184762
15231193185
15231203256
15231210702
15231220895
15231229074
15231239877
15231250131
15231257516
15231266305
15231279977
15231291024
15231299142
15231310495
15231321969
15231331674
15231339364
15231351205
15231360238
15231372628
15231382272
15231392526
15231401986
15231411324
15231420602
15231429940
15231440133
15231451913
15231459847
15231468697
15231476327
15231488351
15231496590
15231506478
15231516976
15231527352
15231536995
15231546883
15231557564
15231567147
15231577095
15231587227
15231598580
15231607247
15231617501
15231625557
15231633065
15231644417
15231654366
15231666145
15231675423
15231687264
15231699654
15231711556
15231722115
15231729195
15231740608
15231748421
15231762459
15231770698
15231782173
15231792915
15231802559
15231811836
15231821419
15231828743
15231843391
15231851509
15231860725
15231870552
15231881843
15231891365
15231899543
15231908393
15231920417
15231930244
15231938667
15231948677
15231959052
15231965583
15231976264
15231990547
15232000984
15232010871
15232015998
15232029792
15232039436
15232047858
15232059272
15232068061
15232080512
15232092231
15232100593
15232109199
15232119575
15232125983
15232139533
15232147468
15232156684
15232162665
15232172065
15232181037
15232187384
15232197211
15232206061
15232214118
15232222907
15232231146
15232238898
15232246222
15232254462
15232264838
15232271918
15232280158
15232286322
15232290289
15232296942
15232300604
15232306769
15232313239
15232317694
15232323370
15232327826
15232333441
15232339178
15232343756
15232349371
15232354742
15232358404
15232365485
15232369879
15232374518
15232380682
15232385748
15232391302
15232395575
15232401190
15232405890
15232411688
15232419073
15232425970
15232434515
15232442144
15232449408
15232455633
15232462164
15232470404
15232479681
15232488775
15232496038
15232500982
15232508551
15232515631
15232522589
15232529852
15232536810
15232544805
15232551824
15232559271
15232565191
15232571722
15232579717
15232586920
15232594366
15232601629
15232609380
15232615484
15232623296
15232630560
15232637456
15232644048
15232653509
15232661260
15232668523
15232675909
15232683965
15232691350
15232698308
15232706182
15232714177
15232721563
15232729741
15232736760
15232740423
15232751958
15232757756
15232765569
15232774419
15232784246
15232791753
15232800176
15232809331
15232817754
15232823064
15232831914
15232841008
15232852727
15232861882
15232873113
15232884160
15232893559
15232900090
15232907414
15232914861
15232920354
15232927434
15232933720
15232940861
15232946965
15232952031
15232961613
15232968266
15232974187
15232981084
15232987675
15232995793
15233003666
15233012272
15233019291
15233026249
15233034489
15233041569
15233050114
15233055668
15233064579
15233073246
15233078801
15233085453
15233093571
15233101139
15233109074
15233116947
15233123600
15233132511
15233138188
15233148075
15233154911
15233161869
15233167484
15233177677
15233184696
15233192265
15233198307
15233207584
15233214115
15233221134
15233227665
15233236698
15233241703
15233249699
15233258305
15233266666
15233270939
15233280399
15233286198
15233294803
15233299015
15233309757
15233315861
15233324955
15233333805
15233338688
15233347538
15233353458
15233364322
15233369693
15233378971
15233385318
15233393680
15233400211
15233408206
15233414981
15233424686
15233432010
15233440616
15233449100
15233455448
15233465213
15233471622
15233480167
15233488895
15233493350
15233503360
15233510013
15233517337
15233528079
15233534000
15233541812
15233550418
15233559329
15233568362
15233576175
15233582156
15233590396
15233597964
15233607120
15233614627
15233623355
15233630130
15233638247
15233645816
15233652285
15233661746
15233667788
15233675113
15233682986
15233690921
15233698489
15233706607
15233713504
15233721377
15233728823
15233737918
15233744448
15233752566
15233761538
15233767520
15233774233
15233783999
15233790408
15233797854
15233802981
15233808169
15233816470
15233820559
15233826723
15233834109
15233839541
15233846194
15233850771
15233858156
15233863589
15233869204
15233873781
15233880862
15233885500
15233891665
15233896181
15233901735
15233906740
15233913149
15233918947
15233924196
15233931521
15233936709
15233942873
15233950075
15233955324
15233960756
15233965395
15233971010
15233975710
15233981508
15233986940
15233994387
15234000185
15234006838
15234011476
15234017824
15234023744
15234030214
15234035219
15234041017
15234045717
15234052492
15234056276
15234062074
15234068239
15234073976
15234078005
15234086672
15234091798
15234099672
15234102907
15234110658
15234115541
15234123109
15234127748
15234134645
15234141664
15234146608
15234152162
15234160341
15234165346
15234174318
15234183168
15234191347
15234200014
15234205690
15234213319
15234220704
15234227418
15234230653
15234238710
15234245485
15234250306
15234254884
15234262208
15234267579
15234274842
15234279908
15234284425
15234290528
15234298036
15234303956
15234309449
15234314698
15234321046
15234327027
15234331239
15234337098
15234342225
15234349061
15234354859
15234361085
15234365785
15234372498
15234377381
15234382935
15234391480
15234395631
15234403260
15234408997
15234415711
15234421021
15234426881
15234432557
15234439515
15234442567
15234452332
15234458253
15234464234
15234469361
15234474366
15234481812
15234487305
15234493043
15234498658
15234503357
15234510254
15234514710
15234519715
15234526490
15234531312
15234539063
15234544434
15234551636
15234557862
15234562500
15234568604
15234573853
15234578858
15234587830
15234592652
15234598145
15234603333
15234609436
15234614990
15234622193
15234628845
15234636597
15234644165
15234650452
15234656006
15234661011
15234668091
15234674805
15234679749
15234684265
15234693543
15234697754
15234705261
15234712402
15234718872
15234723450
15234730530
15234737244
15234744263
15234751404
15234756653
15234764404
15234769653
15234774719
15234782043
15234787720
15234794189
15234800415
15234807312
15234814819
15234820251
15234826294
15234833435
15234839965
15234845153
15234853027
15234861816
15234868408
15234874206
15234880127
15234886718
15234890930
15234897705
15234905151
15234908386
15234916137
15234921508
15234928405
15234933105
15234939269
15234944091
15234949584
15234956603
15234961974
15234969848
15234976928
15234982238
15234989745
15234995178
15235003417
15235009460
15235015441
15235020202
15235027282
15235034301
15235040221
15235046874
15235055968
15235063476
15235068725
15235075927
15235081481
15235088134
15235094665
15235101562
15235108397
15235113830
15235119811
15235126403
15235132079
15235138732
15235143248
15235149291
15235155761
15235161681
15235167052
15235171691
15235179137
15235184142
15235190428
15235197447
15235204467
15235210814
15235217284
15235222411
15235228392
15235233336
15235239318
15235244689
15235249938
15235255187
15235262999
15235268065
15235272582
15235279051
15235284972
15235289854
15235296507
15235301573
15235308592
15235315062
15235321776
15235328429
15235333861
15235341551
15235346556
15235353697
15235359007
15235366881
15235373778
15235378538
15235385679
15235392882
15235400084
15235407957
15235416929
15235424009
15235431944
15235438780
15235449217
15235456358
15235461729
15235471922
15235478208
15235487181
15235497984
15235510862
15235518614
15235521299
15235536680
15235543516
15235555296
15235563352
15235569151
15235579221
15235586057
15235593565
15235600950
15235611814
15235619260
15235623899
15235634519
15235639280
15235649473
15235657712
15235665525
15235673520
15235681699
15235687681
15235697385
15235703733
15235711118
15235717649
15235726865
15235735166
15235742490
15235750241
15235755918
15235765073
15235772580
15235782224
15235787168
15235797116
15235805844
15235814206
15235822385
15235831540
15235841001
15235845639
15235857175
15235865415
15235871579
15235880978
15235886655
15235899960
15235904904
15235913632
15235925351
15235930234
15235939633
15235949704
15235956357
15235964047
15235970029
15235980527
15235987485
15235993527
15236000363
15236011105
15236017880
15236026486
15236032223
15236041012
15236049618
15236054501
15236063290
15236070980
15236080319
15236088131
15236096371
15236102963
15236110653
15236117855
15236125485
15236133541
15236140255
15236147335
15236154415
15236160885
15236168697
15236175533
15236180599
15236187618
15236193111
15236200802
15236206112
15236211727
15236217525
15236223385
15236228451
15236236690
15236242489
15236248592
15236254207
15236260921
15236266720
15236273128
15236279171
15236286129
15236291744
15236297786
15236303463
15236308956
15236316768
