14891936913
14891943016
14891948082
14891953026
14891958824
14891964439
14891970543
14891975182
14891980919
14891986351
14891992149
14891997276
14892002525
14892008446
14892013817
14892019188
14892025474
14892030968
14892037193
14892042625
14892048118
14892053001
14892057396
14892062340
14892067589
14892072105
14892076866
14892082481
14892087303
14892091758
14892097496
14892102134
14892107017
14892112938
14892118126
14892122581
14892128196
14892133201
14892138206
14892142418
14892148033
14892153099
14892158104
14892163230
14892169212
14892175254
14892180809
14892185935
14892190208
14892194114
14892199119
14892203697
14892207481
14892212974
14892217185
14892222129
14892227073
14892231346
14892236533
14892241233
14892245200
14892250022
14892253989
14892258994
14892262901
14892266868
14892271812
14892276145
14892280174
14892285789
14892290122
14892296043
14892301719
14892308128
14892313499
14892318992
14892323264
14892329490
14892337668
14892344749
14892348716
14892356467
14892364768
14892371787
14892378623
14892387168
14892391135
14892402244
14892414328
14892423789
14892431845
14892441184
14892451072
14892458762
14892468711
14892476523
14892485984
14892496665
14892506613
14892516318
14892528464
14892536398
14892546774
14892555563
14892563254
14892573203
14892579794
14892584250
14892590353
14892597983
14892605124
14892610800
14892616965
14892624167
14892629233
14892636252
14892642538
14892650656
14892657553
14892663046
14892669333
14892675070
14892682211
14892687704
14892694479
14892700644
14892706869
14892713156
14892720602
14892726278
14892733725
14892741354
14892746908
14892753866
14892761129
14892766378
14892773214
14892779562
14892786764
14892794576
14892800558
14892805624
14892813375
14892821188
14892829550
14892836446
14892843466
14892850546
14892858236
14892863973
14892872884
14892879903
14892886800
14892894369
14892902425
14892908407
14892916524
14892923971
14892932394
14892939168
14892947774
14892955831
14892963094
14892971090
14892979390
14892986959
14892995504
14893002279
14893008443
14893018148
14893025716
14893034993
14893042318
14893051473
14893058553
14893067647
14893075032
14893084432
14893091085
14893098165
14893106893
14893118428
14893127095
14893138936
14893151753
14893160237
14893169209
14893177998
14893185933
14893192891
14893199910
14893206197
14893214314
14893221272
14893227559
14893235310
14893241719
14893250020
14893257527
14893262837
14893270344
14893275532
14893279500
14893283528
14893288899
14893293660
14893298176
14893303486
14893309102
14893314595
14893320027
14893324971
14893331318
14893339131
14893344990
14893349385
14893355854
14893358845
14893366963
14893371540
14893379048
14893384480
14893389302
14893395710
14893400959
14893407368
14893412678
14893417927
14893422932
14893429218
14893434101
14893439655
14893445637
14893452290
14893455463
14893462482
14893467365
14893472736
14893479023
14893485188
14893491474
14893496845
14893502216
14893508503
14893514973
14893520100
14893524372
14893531269
14893537861
14893542682
14893548176
14893553303
14893559955
14893565876
14893572407
14893581806
14893589374
14893596943
14893606342
14893613605
14893621051
14893629169
14893633319
14893642902
14893653278
14893659320
14893668598
14893674762
14893683368
14893691364
14893697711
14893705036
14893713214
14893718158
14893732257
14893739032
14893747577
14893755939
14893762470
14893771259
14893778400
14893786395
14893795734
14893805072
14893816669
14893826129
14893836017
14893845782
14893852618
14893863543
14893870624
14893882159
14893890033
14893898700
14893907184
14893914569
14893923907
14893931353
14893938678
14893946795
14893954486
14893962603
14893970172
14893975360
14893984881
14893991656
14893999102
14894007281
14894014605
14894023638
14894030840
14894037371
14894045489
14894054705
14894062762
14894066973
14894077715
14894084124
14894093279
14894099993
14894108172
14894115374
14894121905
14894132281
14894137346
14894147417
14894154925
14894163225
14894167681
14894177080
14894183611
14894194109
14894200518
14894207354
14894216875
14894224566
14894232073
14894238481
14894246477
14894254900
14894263018
14894269426
14894277422
14894283830
14894293474
14894299944
14894308550
14894315080
14894323869
14894333147
14894340105
14894347551
14894353166
14894361345
14894369035
14894377214
14894383623
14894393388
14894399980
14894409074
14894415605
14894423723
14894431047
14894439165
14894446489
14894454423
14894462541
14894470048
14894478227
14894486650
14894492814
14894501603
14894509965
14894516740
14894525041
14894531572
14894538835
14894548173
14894556047
14894562150
14894568132
14894577592
14894586076
14894594865
14894599870
14894609025
14894616349
14894623429
14894631303
14894639909
14894648026
14894657060
14894665482
14894674149
14894681718
14894690690
14894698868
14894707291
14894714921
14894723160
14894731949
14894739152
14894746903
14894753007
14894762528
14894769852
14894778519
14894785965
14894793168
14894800614
14894806412
14894815018
14894821000
14894829483
14894835404
14894845902
14894851761
14894860062
14894865799
14894872696
14894881607
14894888260
14894896805
14894903519
14894910172
14894917313
14894924088
14894932572
14894939285
14894946182
14894953873
14894961075
14894968338
14894976395
14894983719
14894990860
14894998367
14895005081
14895012405
14895020523
14895024856
14895029434
14895036941
14895042129
14895045425
14895051346
14895057571
14895062149
14895068741
14895072952
14895079422
14895084732
14895089920
14895094803
14895099807
14895104751
14895112442
14895118118
14895122634
14895129043
14895132400
14895140640
14895147720
14895152175
14895158523
14895164260
14895170059
14895176773
14895181350
14895185745
14895193374
14895197647
14895204910
14895209182
14895214858
14895222427
14895227798
14895232803
14895238540
14895243240
14895249526
14895254836
14895261062
14895266677
14895273879
14895277175
14895283889
14895288711
14895295791
14895303237
14895308242
14895314406
14895325698
14895333694
14895343886
14895352492
14895359328
14895369948
14895380080
14895388686
14895397475
14895404372
14895411513
14895421645
14895428420
14895437819
14895446425
14895454665
14895460951
14895468154
14895477736
14895483840
14895491164
14895499892
14895507765
14895515090
14895523085
14895530776
14895539076
14895546584
14895554762
14895561171
14895569350
14895577956
14895586134
14895592604
14895601637
14895610426
14895615858
14895625197
14895630629
14895641249
14895646864
14895655043
14895663954
14895670057
14895676405
14895686659
14895692946
14895701674
14895707899
14895715467
14895724989
14895733534
14895740004
14895746656
14895756239
14895762342
14895770582
14895782179
14895789564
14895798170
14895805494
14895812025
14895820509
14895827833
14895836012
14895842542
14895852918
14895858900
14895868665
14895875318
14895884168
14895890516
14895898389
14895908033
14895914625
14895922132
14895928663
14895939161
14895945691
14895953687
14895960889
14895969251
14895978284
14895986768
14895993116
14896002454
14896008924
14896018323
14896024915
14896032666
14896040235
14896048535
14896055799
14896064038
14896071668
14896075879
14896088880
14896093213
14896103162
14896109509
14896119641
14896125989
14896132764
14896142407
14896148999
14896156262
14896166211
14896174207
14896180188
14896192029
14896197217
14896208874
14896217358
14896224560
14896231274
14896241162
14896251843
14896261853
14896268384
14896276684
14896284070
14896292065
14896298535
14896308422
14896315014
14896322277
14896331494
14896338940
14896346508
14896352673
14896362988
14896370678
14896378185
14896386852
14896395092
14896402050
14896410046
14896416638
14896426159
14896432629
14896438854
14896448498
14896458080
14896464672
14896471386
14896480968
14896488048
14896495495
14896503307
14896511547
14896515758
14896527050
14896536327
14896545177
14896552868
14896559093
14896567699
14896575756
14896582409
14896590648
14896598034
14896606334
14896613720
14896621898
14896630138
14896638378
14896646373
14896650890
14896661205
14896667613
14896677806
14896684276
14896692211
14896700939
14896707774
14896717296
14896723094
14896732738
14896741039
14896748851
14896754771
14896762889
14896770335
14896778453
14896786143
14896794322
14896800609
14896810496
14896816539
14896822581
14896827342
14896832713
14896839854
14896847178
14896852916
14896859385
14896866588
14896870494
14896877635
14896881297
14896888804
14896892711
14896898021
14896904490
14896910350
14896915293
14896920848
14896926646
14896933421
14896939952
14896946788
14896952525
14896958811
14896962901
14896972544
14896978343
14896982981
14896989268
14896999522
14897007090
14897013072
14897018748
14897024607
14897030100
14897034617
14897041270
14897047251
14897053721
14897058665
14897063059
14897069529
14897073801
14897078745
14897086130
14897093516
14897098704
14897103892
14897109019
14897114512
14897121836
14897128916
14897137583
14897143320
14897151987
14897159006
14897165659
14897171885
14897180307
14897189402
14897197580
14897201914
14897213266
14897217539
14897228098
14897234507
14897241770
14897251535
14897260141
14897266550
14897274118
14897283457
14897290354
14897297922
14897304575
14897312570
14897320810
14897329111
14897338815
14897347116
14897351266
14897362009
14897368539
14897378732
14897385141
14897393930
14897400461
14897408212
14897415903
14897424447
14897432016
14897438058
14897448678
14897454233
14897462716
14897471261
14897479257
14897485666
14897495431
14897502023
14897511361
14897517709
14897525033
14897534921
14897541085
14897550729
14897557870
14897565377
14897573068
14897581796
14897587045
14897596078
14897604257
14897613534
14897619943
14897628854
14897634042
14897643136
14897649422
14897658700
14897664620
14897673714
14897680672
14897689583
14897695321
14897704598
14897710641
14897721749
14897734810
14897741402
14897750985
14897761178
14897771676
14897781502
14897790047
14897799263
14897808602
14897816475
14897824349
14897830880
14897838936
14897847054
14897855171
14897864693
14897872505
14897879585
14897887703
14897895210
14897903511
14897911018
14897919197
14897925789
14897936226
14897942696
14897951607
14897959969
14897965706
14897975655
14897982979
14897990425
14897997261
14898005257
14898012886
14898020881
14898028572
14898036201
14898045357
14898051399
14898060493
14898068794
14898075264
14898084114
14898090644
14898098823
14898108345
14898115303
14898122749
14898131965
14898139472
14898145820
14898154060
14898162361
14898170661
14898177680
14898185859
14898193794
14898202339
14898208747
14898217902
14898224494
14898233711
14898240180
14898248725
14898256232
14898264106
14898271674
14898278693
14898286872
14898294929
14898303229
14898311164
14898319282
14898328132
14898336554
14898346015
14898352118
14898358649
14898368232
14898376838
14898381842
14898391608
14898399298
14898406745
14898413825
14898424323
14898432013
14898439521
14898447333
14898456000
14898463263
14898472235
14898488471
14898499213
14898506293
14898514655
14898522223
14898530219
14898537115
14898545660
14898552863
14898560797
14898570746
14898577460
14898587591
14898595648
14898600531
14898607489
14898614081
14898620428
14898626288
14898631659
14898636480
14898641974
14898647101
14898652594
14898657782
14898663519
14898669317
14898673773
14898678534
14898686590
14898690619
14898699163
14898703070
14898710638
14898715094
14898721136
14898725653
14898730047
14898736639
14898742987
14898748113
14898752691
14898759222
14898763189
14898769232
14898775396
14898782598
14898787969
14898794256
14898799383
14898806097
14898811163
14898816900
14898823126
14898828436
14898833440
14898840032
14898844793
14898851507
14898856390
14898862066
14898867315
14898873968
14898880132
14898887212
14898894659
14898902166
14898910283
14898917303
14898925542
14898934392
14898943609
14898950628
14898958684
14898965337
14898974736
14898983159
14898991704
14898998296
14899006719
14899016179
14899021978
14899031316
14899039067
14899046392
14899054204
14899061894
14899070745
14899077947
14899085759
14899093816
14899100346
14899108098
14899116032
14899123906
14899131596
14899139348
14899146733
14899154118
14899158025
14899168462
14899174321
14899181828
14899187810
14899197697
14899203740
14899210515
14899219182
14899226079
14899232914
14899239201
14899253666
14899261967
14899269902
14899280949
14899288334
14899298283
14899307011
14899314823
14899324711
14899334477
14899342045
14899346073
14899355839
14899361698
14899370915
14899376774
14899384648
14899390812
14899398563
14899407291
14899412846
14899421452
14899428226
14899435307
14899445560
14899452213
14899460148
14899466984
14899472904
14899480411
14899488285
14899495792
14899503849
14899511661
14899518131
14899525638
14899529484
14899539127
14899545414
14899555301
14899561771
14899571109
14899577335
14899584720
14899591373
14899599674
14899606571
14899614749
14899621891
14899630191
14899638248
14899647952
14899655033
14899663211
14899670841
14899679691
14899686893
14899696780
14899703250
14899713138
14899719791
14899726810
14899736087
14899742191
14899750247
14899760989
14899769778
14899778140
14899786319
14899795047
14899803103
14899809268
14899818667
14899824344
14899833682
14899840457
14899847598
14899855044
14899863406
14899870547
14899878665
14899885318
14899895083
14899901492
14899908938
14899918460
14899925723
14899933169
14899939089
14899949465
14899956301
14899964419
14899971743
14899979312
14899987368
14899993044
14899999026
14900007327
14900018191
14900027163
14900035220
14900043703
14900053713
14900061282
14900070559
14900078432
14900087771
14900096987
14900103884
14900111757
14900119082
14900129458
14900135256
14900142580
14900151369
14900159487
14900166994
14900173769
14900181337
14900188112
14900194094
14900203798
14900211306
14900218080
14900225222
14900232973
14900239870
14900247621
14900254335
14900261904
14900270448
14900276369
14900282106
14900291078
14900296816
14900304384
14900313356
14900317873
14900324464
14900329042
14900333681
14900340028
14900346315
14900351625
14900356569
14900362306
14900368104
14900373720
14900381349
14900387453
14900392579
14900396364
14900403016
14900406984
14900412843
14900419252
14900425294
14900431886
14900437867
14900441713
14900448976
14900453614
14900458864
14900466737
14900470094
14900476503
14900481385
14900487367
14900493837
14900499208
14900504090
14900510743
14900513917
14900522035
14900527101
14900533937
14900538941
14900545045
14900550233
14900555238
14900561036
14900567933
14900574159
14900580689
14900585877
14900590943
14900597840
14900603272
14900607728
14900614747
14900621156
14900630372
14900635438
14900644959
14900651124
14900660767
14900667542
14900674622
14900683777
14900691346
14900698243
14900708436
14900715516
14900723572
14900730774
14900737000
14900744019
14900755066
14900762146
14900773316
14900788391
14900799378
14900812561
14900824036
14900830628
14900840821
14900847901
14900855347
14900862976
14900871521
14900878967
14900887695
14900895874
14900902405
14900909424
14900918640
14900925354
14900931641
14900939453
14900947266
14900952393
14900961243
14900968445
14900974731
14900980224
14900989319
14900996277
14901002441
14901008301
14901016907
14901022094
14901030945
14901037658
14901044861
14901051696
14901060852
14901066894
14901073913
14901081237
14901088134
14901094482
14901101806
14901111511
14901117065
14901125854
14901133117
14901138977
14901146484
14901155334
14901162841
14901171142
14901179015
14901184997
14901193725
14901201476
14901208801
14901214660
14901222228
14901229919
14901236022
14901244872
14901250365
14901259338
14901265746
14901274291
14901281493
14901288695
14901296325
14901303344
14901309447
14901319030
14901324584
14901333800
14901338866
14901348327
14901352294
14901361876
14901370299
14901377990
14901384459
14901391783
14901397643
14901404296
14901413390
14901422118
14901428282
14901436522
14901444152
14901449706
14901458067
14901465087
14901472167
14901478758
14901488341
14901494872
14901504027
14901510252
14901519347
14901525694
14901535094
14901544066
14901552122
14901564207
14901572630
14901580565
14901587950
14901595152
14901601378
14901608214
14901615965
14901623533
14901629576
14901638121
14901644224
14901652342
14901661375
14901669493
14901675535
14901683836
14901691526
14901697142
14901705870
14901711729
14901720823
14901726560
14901735227
14901742613
14901749510
14901757261
14901764402
14901770994
14901778684
14901785520
14901794798
14901800230
14901807615
14901813474
14901822446
14901830625
14901838071
14901844297
14901852354
14901860166
14901867612
14901873838
14901881833
14901889524
14901895505
14901902097
14901909849
14901918332
14901924314
14901932798
14901940549
14901947080
14901953977
14901962095
14901966794
14901979917
14901988156
14901995603
14902002805
14902011167
14902019101
14902025083
14902031247
14902037656
14902040952
14902048276
14902053586
14902059567
14902064938
14902069882
14902076657
14902082639
14902088132
14902092893
14902098813
14902104855
14902111386
14902116757
14902122617
14902128903
14902134274
14902139340
14902146237
14902150693
14902155270
14902160580
14902166745
14902172482
14902180356
14902186764
14902191830
14902198117
14902203793
14902208920
14902213254
14902219784
14902226376
14902232785
14902238705
14902243710
14902248959
14902256833
14902262082
14902270138
14902275631
14902280331
14902288632
14902299130
14902306149
14902315914
14902322384
14902331661
14902340695
14902349972
14902360348
14902371945
14902383785
14902393734
14902401669
14902411739
14902422115
14902431637
14902441585
14902451473
14902463924
14902471737
14902480648
14902489376
14902500179
14902508907
14902519161
14902528011
14902538143
14902547359
14902558956
14902566280
14902576595
14902590084
14902600154
14902608638
14902617122
14902626766
14902632381
14902641963
14902650752
14902657100
14902666866
14902673213
14902682552
14902688899
14902699336
14902705684
14902717464
14902727107
14902736507
14902745723
14902754939
14902762996
14902774043
14902782100
14902792354
14902798335
14902808650
14902817622
14902827754
14902838557
14902847224
14902856318
14902865535
14902874507
14902883113
14902892146
14902901240
14902912532
14902919367
14902931025
14902937373
14902949397
14902957697
14902968073
14902974848
14902985224
14902992365
14903002863
14903010859
14903021845
14903029597
14903041132
14903048456
14903060297
14903071650
14903079584
14903090571
14903097529
14903108576
14903118036
14903130121
14903139826
14903148676
14903158381
14903168329
14903178278
14903186823
14903195124
14903204889
14903210626
14903219416
14903226679
14903235773
14903245111
14903254450
14903263910
14903271478
14903283868
14903298456
14903307306
14903317316
14903325861
14903336359
14903344537
14903354791
14903363214
14903372796
14903381036
14903389276
14903399591
14903407525
14903417596
14903425897
14903436395
14903446832
14903454095
14903464837
14903472222
14903483087
14903493096
14903502191
14903512506
14903521539
14903530816
14903542230
14903552178
14903560418
14903568536
14903579217
14903591058
14903599053
14903610833
14903618279
14903628899
14903635918
14903648797
14903656792
14903668511
14903678826
14903689385
14903696831
14903707268
14903716118
14903726677
14903736687
14903747612
14903756707
14903765190
14903776299
14903783684
14903795159
14903802910
14903814018
14903822502
14903833061
14903843620
14903851006
14903861260
14903870476
14903879570
14903889336
14903900871
14903908867
14903918449
14903924614
14903930290
14903936821
14903944511
14903951530
14903962211
14903970756
14903978569
14903987114
14903993339
14904001274
14904010429
14904015312
14904024467
14904030327
14904036430
14904043449
14904047783
14904053032
14904058403
14904061821
14904066764
14904071891
14904075370
14904080619
14904084159
14904089347
14904094657
14904099174
14904102836
14904108268
14904111869
14904117790
14904121452
14904126701
14904131828
14904136527
14904141532
14904146171
14904150504
14904155021
14904161125
14904166557
14904172172
14904177360
14904181876
14904186454
14904191703
14904196403
14904201347
14904205924
14904211478
14904216117
14904221000
14904225639
14904231559
14904236930
14904244804
14904250724
14904255790
14904260551
14904264579
14904270438
14904275138
14904281730
14904288321
14904296622
14904303153
14904312308
14904318839
14904326468
14904335624
14904341239
14904349784
14904358329
14904366202
14904374320
14904382560
14904390067
14904397757
14904406058
14904411978
14904420584
14904428824
14904435172
14904443961
14904452384
14904460074
14904466361
14904475577
14904479727
14904490958
14904498953
14904507254
14904516837
14904522574
14904531180
14904538199
14904546377
14904554068
14904560538
14904568411
14904576285
14904585989
14904595205
14904601858
14904613028
14904621267
14904631216
14904641531
14904649282
14904657095
14904667593
14904673513
14904684378
14904688467
14904698233
14904707632
14904715628
14904723440
14904731497
14904739858
14904747854
14904753896
14904763845
14904770193
14904779836
14904786062
14904794546
14904802969
14904811697
14904818105
14904827383
14904833547
14904842763
14904851064
14904860158
14904866689
14904875417
14904883779
14904889699
14904898916
14904907949
14904914235
14904921621
14904930715
14904938710
14904946950
14904955739
14904961904
14904968984
14904977956
14904984914
14904994741
14905001454
14905010671
14905016469
14905025502
14905034413
14905042714
14905048940
14905058522
14905067067
14905073476
14905082265
14905090199
14905099416
14905106129
14905115346
14905124684
14905132374
14905140553
14905149037
14905157460
14905165639
14905173512
14905181569
14905187672
14905196461
14905202565
14905211537
14905218800
14905225880
14905233693
14905242970
14905250721
14905257130
14905265736
14905270985
14905280629
14905287709
14905294972
14905305287
14905311939
14905320545
14905326649
14905335499
14905342335
14905351246
14905359425
14905368885
14905380360
14905385181
14905396412
14905400562
14905413258
14905421253
14905430225
14905438587
14905446827
14905453663
14905461292
14905468372
14905476307
14905483082
14905492054
14905498401
14905506092
14905513721
14905522266
14905528675
14905535816
14905542469
14905549915
14905556202
14905565906
14905574024
14905583545
14905589954
14905598682
14905606311
14905614978
14905621875
14905628101
14905637866
14905646167
14905652942
14905662891
14905668872
14905677905
14905685840
14905691516
14905695972
14905702930
14905710437
14905716968
14905720935
14905725146
14905731738
14905734668
14905744372
14905751208
14905756396
14905761279
14905767993
14905773486
14905780383
14905785022
14905789172
14905795093
14905802356
14905809558
14905815417
14905822070
14905827502
14905833484
14905838672
14905846057
14905852465
14905858996
14905864245
14905870959
14905877063
14905883349
14905889086
14905894335
14905900805
14905905505
14905910815
14905919116
14905925952
14905931140
14905936266
14905941943
14905947253
14905954577
14905961047
14905965746
14905974474
14905979357
14905985644
14905991198
14905998705
14906011156
14906016711
14906024157
14906032213
14906038500
14906045519
14906056811
14906064196
14906074877
14906082323
14906089342
14906100939
14906111010
14906119982
14906129808
14906138659
14906145739
14906153063
14906160204
14906167650
14906174669
14906181383
14906190843
14906199388
14906206652
14906213548
14906223497
14906231615
14906239061
14906245958
14906255785
14906262071
14906272752
14906278124
14906285509
14906292162
14906299547
14906306505
14906316515
14906323595
14906331895
14906339830
14906348375
14906356187
14906364488
14906374132
14906382005
14906389818
14906399095
14906404039
14906414293
14906422349
14906429368
14906438523
14906445176
14906453721
14906462327
14906469773
14906476915
14906486558
14906493516
14906499803
14906506089
14906515122
14906522752
14906529038
14906537644
14906545457
14906553208
14906562241
14906569199
14906576768
14906586167
14906593125
14906598496
14906608567
14906618211
14906624375
14906632249
14906640916
14906648606
14906653977
14906662888
14906669236
14906679917
14906687424
14906694687
14906701584
14906710556
14906717087
14906725815
14906736069
14906743332
14906751816
14906760666
14906765610
14906774277
14906781601
14906789597
14906798325
14906806381
14906817185
14906821884
14906831467
14906836899
14906847275
14906854599
14906863876
14906872421
14906881210
14906889023
14906893661
14906903366
14906910507
14906921127
14906927475
14906936325
14906943649
14906952011
14906961349
14906967941
14906974716
14906983383
14906993271
14906999252
14907009079
14907016891
14907024521
14907032638
14907040817
14907047470
14907055160
14907060897
14907068038
14907076522
14907084518
14907093673
14907099838
14907108749
14907116012
14907122238
14907129623
14907136886
14907144759
14907152145
14907160751
14907167281
14907174911
14907182601
14907192428
14907198836
14907207748
14907215804
14907224288
14907231551
14907237350
14907244002
14907251815
14907258773
14907267196
14907274093
14907284285
14907293441
14907300948
14907310592
14907316146
14907325057
14907332015
14907340194
14907348372
14907355513
14907358687
14907364424
14907370223
14907375045
14907382613
14907387007
14907393172
14907398604
14907402999
14907406905
14907414107
14907418501
14907423628
14907428816
14907436324
14907440535
14907445967
14907451399
14907455855
14907460799
14907467207
14907473677
14907478865
14907484175
14907490340
14907499068
14907508101
14907513289
14907520064
14907528059
14907536238
14907542158
14907547652
14907553206
14907557600
14907562788
14907566572
14907571943
14907576704
14907580244
14907586348
14907592939
14907596968
14907600691
14907607405
14907612654
14907618574
14907625349
14907633162
14907640242
14907648542
14907653425
14907660566
14907666243
14907673445
14907681440
14907690046
14907698286
14907703657
14907712141
14907717451
14907724775
14907733503
14907740583
14907748396
14907755293
14907762312
14907769086
14907775251
14907781965
14907790998
14907799177
14907805097
14907813093
14907820173
14907826459
14907832136
14907840314
14907847516
14907855756
14907861982
14907869733
14907876874
14907883832
14907889020
14907897016
14907904462
14907913068
14907920209
14907925885
14907933881
14907939130
14907946393
14907951947
14907962934
14907969709
14907977033
14907983563
14907991925
14907997052
14908005292
14908011273
14908020184
14908028607
14908035199
14908043439
14908051068
14908056989
14908065228
14908074994
14908083539
14908090802
14908097882
14908104413
14908111676
14908118329
14908125287
14908135296
14908143109
14908155133
14908164776
14908175946
14908184979
14908196209
14908204998
14908213849
14908222821
14908231549
14908239483
14908248211
14908256634
14908265667
14908275555
14908282635
14908292645
14908300213
14908308148
14908316815
14908325421
14908333782
14908341595
14908351299
14908358379
14908369122
14908378338
14908384808
14908392986
14908402142
14908409283
14908417705
14908425274
14908434185
14908440471
14908451031
14908456951
14908465984
14908473125
14908483196
14908490947
14908500957
14908510418
14908518230
14908526592
14908533611
14908540813
14908548992
14908557537
14908564800
14908571331
14908578472
14908586894
14908594768
14908600810
14908610942
14908619670
14908628520
14908635906
14908642497
14908649577
14908656657
14908668193
14908675945
14908683635
14908690837
14908700236
14908705180
14908714275
14908722758
14908729289
14908736857
14908745524
14908753093
14908758830
14908767863
14908774150
14908783305
14908790324
14908796977
14908804362
14908811137
14908814860
14908823222
14908830668
14908839823
14908845500
14908852336
14908858195
14908867472
14908876567
14908886576
14908897196
14908906413
14908916056
14908922160
14908931376
14908937479
14908945231
14908948649
14908956034
14908961649
14908965678
14908970744
14908975138
14908980143
14908985392
14908991190
14908998698
14909005534
14909015421
14909024332
14909030741
14909036906
14909042155
14909049967
14909054789
14909060892
14909065897
14909072428
14909077555
14909084452
14909090433
14909096476
14909099649
14909106669
14909109415
14909117289
14909121439
14909127359
14909132425
14909138529
14909144937
14909149942
14909154459
14909159342
14909165872
14909170328
14909175516
14909181558
14909186930
14909192179
14909197489
14909201944
14909207010
14909212259
14909219461
14909226297
14909235452
14909242593
14909249246
14909257913
14909264627
14909270303
14909279153
14909287454
14909296915
14909302652
14909311624
14909317483
14909327005
14909331949
14909341165
14909351358
14909358377
14909368448
14909375284
14909386087
14909393899
14909404214
14909412881
14909420572
14909428872
14909437783
14909445657
14909451821
14909462503
14909470071
14909479409
14909488809
14909496621
14909504800
14909512612
14909522744
14909531045
14909541421
14909549966
14909560891
14909568032
14909577737
14909586526
14909598061
14909604409
14909614724
14909623696
14909631692
14909639809
14909649270
14909658303
14909664956
14909673073
14909679665
14909688210
14909696877
14909704628
14909711953
14909719643
14909725930
14909734352
14909740456
14909748391
14909754250
14909764748
14909771523
14909779579
14909788185
14909793862
14909802345
14909809914
14909817116
14909824562
14909832375
14909840309
14909848976
14909856667
14909862770
14909871193
14909878212
14909885109
14909895180
14909903786
14909909401
14909917580
14909925575
14909936867
14909949013
14909959816
14909969948
14909979042
14909988380
14909997108
14910006019
14910013893
14910024269
14910032264
14910041847
14910048805
14910056190
14910065406
14910072486
14910081397
14910090370
14910099037
14910108009
14910114539
14910124000
14910130775
14910140113
14910146644
14910154273
14910164161
14910170997
14910180396
14910186622
14910195350
14910203895
14910212806
14910221290
14910228370
14910238135
14910246741
14910254737
14910265662
14910275000
14910283667
14910291358
14910302527
14910314429
14910323035
14910332129
14910339881
14910348120
14910355689
14910366492
14910371741
14910379248
14910385352
14910394751
14910401831
14910407507
14910416235
14910425269
14910432288
14910438513
14910445776
14910453345
14910461035
14910468115
14910476904
14910485205
14910493018
14910499914
14910509497
14910514746
14910524328
14910532446
14910539831
14910548498
14910555945
14910562842
14910570715
14910573950
14910581579
14910584814
14910592382
14910597815
14910603186
14910608252
14910613867
14910618811
14910623449
14910628576
14910635473
14910640356
14910646948
14910652746
14910658483
14910664953
14910669348
14910673071
14910679479
14910683019
14910690832
14910694433
14910702917
14910707372
14910713415
14910718969
14910723974
14910729467
14910735326
14910742284
14910746252
14910752416
14910758215
14910764928
14910770605
14910776220
14910783544
14910790258
14910794103
14910802160
14910806921
14910814306
14910819250
14910824193
14910831701
14910837499
14910845373
14910850683
14910856420
14910862340
14910869176
14910877721
14910886571
14910891149
14910904699
14910912023
14910923375
14910930761
14910938939
14910948033
14910955480
14910962499
14910974828
14910982030
14910989537
14911000035
14911006200
14911015660
14911023595
14911033299
14911042882
14911049596
14911059422
14911065709
14911074559
14911080296
14911089329
14911095433
14911107518
14911113682
14911122594
14911128514
14911135777
14911144322
14911150181
14911159153
14911167332
14911173558
14911182103
14911187718
14911196324
14911203953
14911211399
14911219578
14911226231
14911234959
14911242527
14911248448
14911258824
14911264683
14911271031
14911279942
14911289158
14911295506
14911303929
14911312779
14911320164
14911326145
14911333714
14911339695
14911351353
14911357700
14911367161
14911380222
14911388096
14911395847
14911404209
14911412876
14911423557
14911430515
14911438206
14911445469
14911452854
14911461582
14911468906
14911473484
14911486484
14911493869
14911501926
14911506321
14911515842
14911524265
14911531406
14911540134
14911547458
14911556064
14911563510
14911570957
14911578464
14911586032
14911593173
14911601047
14911608432
14911616184
14911623630
14911631931
14911639072
14911642917
14911653903
14911661594
14911671359
14911677341
14911684604
14911691806
14911700290
14911707919
14911714938
14911722262
14911730197
14911739169
14911745944
14911752597
14911759982
14911767306
14911777865
14911785128
14911796298
14911805148
14911812777
14911822787
14911830294
14911836703
14911846408
14911853671
14911862826
14911869479
14911878085
14911885043
14911892245
14911899813
14911906527
14911916232
14911924960
14911931002
14911939730
14911947726
14911953707
14911960909
14911969759
14911976534
14911985628
14911991854
14912000277
14912007967
14912015352
14912020724
14912029879
14912039339
14912045748
14912053866
14912061373
14912068636
14912076510
14912084017
14912089937
14912099337
14912107821
14912115328
14912121309
14912129427
14912136751
14912144869
14912151461
14912159517
14912165926
14912175081
14912182894
14912190462
14912197359
14912205232
14912213167
14912220674
14912229036
14912236482
14912242220
14912249666
14912257234
14912265352
14912271638
14912282808
14912288728
14912295015
14912302217
14912310090
14912314668
14912320283
14912329988
14912334810
14912341096
14912346467
14912350129
14912356477
14912360994
14912367341
14912372529
14912379121
14912383699
14912390901
14912396333
14912402070
14912408967
14912412812
14912420076
14912428132
14912433137
14912439668
14912444612
14912451448
14912459077
14912465180
14912470429
14912478547
14912483247
14912490693
14912496003
14912501008
14912509065
14912516633
14912522614
14912531525
14912536347
14912541962
14912549592
14912554780
14912561188
14912565705
14912570283
14912577119
14912582429
14912587861
14912592438
14912598908
14912606537
14912612458
14912620209
14912629181
14912638886
14912643769
14912651215
14912658234
14912665009
14912671540
14912679902
14912686860
14912692719
14912701691
14912709565
14912717072
14912725434
14912732575
14912739594
14912748810
14912754730
14912764008
14912767792
14912776825
14912785431
14912792694
14912797089
14912809906
14912816132
14912823822
14912831574
14912838654
14912846344
14912852386
14912861725
14912869415
14912878204
14912885467
14912892425
14912899872
14912907196
14912914093
14912921173
14912931305
14912939056
14912946380
14912953338
14912960846
14912967621
14912975006
14912981537
14912994415
14913001373
14913008758
14913016143
14913023895
14913032074
14913039154
14913045989
14913055877
14913060943
14913070587
14913076568
14913085418
14913091827
14913099395
14913107269
14913117217
14913123260
14913132232
14913138335
14913145721
14913154632
14913161346
14913170196
14913177398
14913184966
14913193450
14913199737
14913208343
14913215056
14913224822
14913233550
14913243499
14913250213
14913259673
14913267974
14913274199
14913283049
14913293608
14913302153
14913308074
14913316863
14913323333
14913332793
14913338103
14913346770
14913354949
14913364043
14913372527
14913380156
14913387724
14913394988
14913401152
14913409026
14913417876
14913425261
14913433928
14913441618
14913447905
14913455046
14913460722
14913469023
14913477751
14913485258
14913494231
14913502043
14913508269
14913515410
14913523710
14913531340
14913535429
14913547575
14913554167
14913561674
14913569914
14913577177
14913583586
14913590910
14913599089
14913606779
14913613737
14913620939
14913629301
14913636381
14913642607
14913650602
14913660307
14913667692
14913676359
14913683744
14913689787
14913698759
14913704679
14913712187
14913720976
14913729154
14913738371
14913744962
14913751066
14913760038
14913766447
14913773893
14913783964
14913791044
14913798002
14913805509
14913813199
14913819974
14913829679
14913836454
14913843534
14913853055
14913860441
14913867215
14913874051
14913881131
14913889981
14913896939
14913906400
14913914151
14913919828
14913930448
14913936612
14913945828
14913955350
14913962369
14913971280
14913980252
14913985928
14913993192
14913998135
14914003507
14914010342
14914017667
14914023160
14914027615
14914035367
14914040921
14914048367
14914052640
14914058987
14914063931
14914069485
14914076810
14914083157
14914087735
14914094693
14914099270
14914105618
14914110074
14914115506
14914121548
14914126675
14914132046
14914137112
14914141690
14914147061
14914151761
14914158474
14914162686
14914169217
14914174588
14914179593
14914185208
14914190579
14914197293
14914202481
14914206570
14914213589
14914218716
14914223782
14914227505
14914234646
14914239834
14914245327
14914248867
14914256375
14914260952
14914267788
14914275295
14914282681
14914289761
14914298245
14914306423
14914314419
14914322903
14914330776
14914338772
14914347439
14914354946
14914363430
14914371670
14914380215
14914388210
14914399380
14914407314
14914415005
14914422268
14914432888
14914439541
14914448574
14914455227
14914463161
14914470302
14914477138
14914488124
14914494045
14914503200
14914512294
14914521450
14914530910
14914537990
14914547206
14914552761
14914563442
14914571620
14914579677
14914587795
14914596401
14914603420
14914612392
14914621364
14914630519
14914637416
14914647304
14914654262
14914662440
14914672145
14914679896
14914690700
14914698756
14914707240
14914715358
14914725917
14914737513
14914747767
14914755397
14914765895
14914772792
14914783290
14914791285
14914799769
14914809474
14914818812
14914826930
14914834498
14914840602
14914848597
14914856471
14914864527
14914873072
14914881556
14914888758
14914898646
14914903162
14914919276
14914938746
14914952113
14914963282
14914972742
14914982447
14914991602
14915002894
14915012232
14915022303
14915029993
14915038294
14915046045
14915053797
14915061365
14915068995
14915076197
14915084192
14915093164
14915100244
14915108057
14915115625
14915122217
14915129846
14915137354
14915144922
14915151209
14915160547
14915169031
14915176538
14915183557
14915191065
14915197046
14915206934
14915214258
14915222620
14915228906
14915237634
14915245935
14915253503
14915261438
14915266870
14915274927
14915284692
14915292077
14915299463
14915305322
14915314111
14915320032
14915327966
14915337060
14915344812
14915351281
14915359643
14915365564
14915375390
14915381372
14915390527
14915396691
14915407067
14915413476
14915422021
14915429956
14915437463
14915443322
14915449548
14915458886
14915465905
14915474816
14915482018
14915490991
14915497216
14915505334
14915512780
14915519738
14915531518
14915540551
14915549035
14915557641
14915564599
14915575280
14915581933
14915592248
14915600426
14915611168
14915617516
14915628930
14915637230
14915644310
14915651207
14915661095
14915668724
14915677758
14915682640
14915691857
14915697106
14915705101
14915711998
14915720299
14915726647
14915732689
14915738732
14915746117
14915750145
14915759422
14915764794
14915770714
14915773522
14915782738
14915786949
14915791100
14915797752
14915802635
14915807701
14915812340
14915818810
14915823265
14915828697
14915834679
14915839989
14915845360
14915850365
14915854027
14915859825
14915865562
14915870933
14915874962
14915881004
14915886070
14915890343
14915896385
14915901817
14915906700
14915912864
14915917564
14915934776
14915942527
14915944175
14915953758
14915957786
14915964561
14915970054
14915974876
14915980064
14915985435
14915990074
14915995506
14916004295
14916009056
14916014915
14916021263
14916025901
14916032371
14916039146
14916043907
14916054099
14916060813
14916071128
14916077232
14916085166
14916093040
14916101707
14916107993
14916116904
14916123679
14916133811
14916141807
14916151694
14916160117
14916167197
14916176536
14916184226
14916193442
14916200828
14916207847
14916216025
14916224814
14916234214
14916243918
14916252585
14916260459
14916270163
14916279685
14916288108
14916296408
14916305747
14916315024
14916323447
14916330466
14916337851
14916343772
14916353110
14916359824
14916369345
14916375754
14916385520
14916392539
14916399374
14916406393
14916414389
14916422141
14916430136
14916437155
14916443076
14916454794
14916461691
14916472494
14916480429
14916491232
14916501364
14916508871
14916516440
14916523520
14916531820
14916539816
14916547018
14916553793
14916560507
14916568380
14916575216
14916583639
14916590658
14916599142
14916606771
14916615316
14916621969
14916629049
14916637045
14916644186
14916651693
14916660360
14916665548
14916674703
14916678732
14916689596
14916693502
14916702840
14916708822
14916718282
14916727377
14916733480
14916739767
14916750204
14916757162
14916766683
14916774923
14916780477
14916789754
14916796346
14916805562
14916813253
14916820943
14916829854
14916837117
14916844808
14916853292
14916861531
14916867513
14916875997
14916884236
14916891194
14916899190
14916908712
14916915914
14916923421
14916932942
14916940084
14916948628
14916955953
14916961995
14916971944
14916978414
14916986470
14916992879
14917001607
14917008443
14917018758
14917025227
14917034505
14917042989
14917055745
14917065816
14917072407
14917086079
14917096638
14917104756
14917114033
14917122334
14917130391
14917139912
14917147358
14917155354
14917161946
14917171589
14917180622
14917188679
14917195027
14917201374
14917211262
14917218281
14917227741
14917235066
14917242878
14917250813
14917258625
14917266071
14917274067
14917282368
14917290546
14917298603
14917306904
14917312946
14917322407
14917328632
14917337604
14917346394
14917352192
14917362263
14917368549
14917378254
14917387104
14917394428
14917400532
14917410724
14917416462
14917424457
14917434284
14917442402
14917449237
14917459003
14917466816
14917477680
14917487384
14917498493
14917507831
14917521564
14917528827
14917536518
14917542926
14917547992
14917550983
14917557880
14917562702
14917569110
14917573993
14917579242
14917584674
14917589313
14917594562
14917599200
14917607990
14917612628
14917616962
14917622882
14917627460
14917633502
14917637714
14917644122
14917650653
14917655231
14917661639
14917668231
14917673480
14917680072
14917686175
14917693805
14917699237
14917704181
14917709674
14917715228
14917720233
14917724566
14917729571
14917734271
14917740619
14917745562
14917750628
14917754596
14917759723
14917765765
14917772296
14917778521
14917785174
14917791033
14917796649
14917805743
14917813677
14917821795
14917828570
14917837664
14917844866
14917851519
14917858782
14917865374
14917874407
14917880755
14917888140
14917896014
14917903338
14917910479
14917917681
14917926043
14917934038
14917942583
14917948382
14917954729
14917965166
14917971514
14917980669
14917986956
14917996294
14918004595
14918012530
14918021074
14918029314
14918035662
14918042864
14918052691
14918060869
14918068315
14918073992
14918084551
14918091692
14918099443
14918107927
14918115801
14918120195
14918131059
14918139604
14918144609
14918154497
14918160600
14918170000
14918177080
14918186540
14918194109
14918201372
14918210161
14918217851
14918225725
14918233659
14918240861
14918249345
14918257524
14918265459
14918271806
14918279863
14918288896
14918298051
14918304704
14918314470
14918320817
14918328141
14918337663
14918343705
14918353166
14918360246
14918369462
14918377092
14918385026
14918391740
14918401261
14918406755
14918414750
14918423722
14918433732
14918440812
14918447770
14918455094
14918462235
14918470719
14918478593
14918486955
14918496110
14918503251
14918512467
14918518754
14918528153
14918534623
14918544388
14918555131
14918561295
14918570206
14918577408
14918585831
14918596940
14918603043
14918613724
14918624100
14918632279
14918640091
14918649674
14918656083
14918664505
14918673172
14918681046
14918688980
14918695816
14918702469
14918709976
14918716507
14918727371
14918730972
14918740616
14918749771
14918757889
14918764114
14918772781
14918779251
14918789139
14918795242
14918801407
14918812637
14918818008
14918827347
14918836075
14918843582
14918852249
14918859756
14918865982
14918873855
14918883621
14918892044
14918896133
14918906997
14918916275
14918924331
14918932510
14918938491
14918945022
14918954666
14918963272
14918969314
14918978775
14918985549
14918993423
14919001602
14919008987
14919020523
14919029861
14919035110
14919043105
14919051284
14919059402
14919066848
14919075393
14919084365
14919092300
14919099441
14919107681
14919114455
14919123794
14919130386
14919139114
14919145888
14919154983
14919166579
14919173598
14919181289
14919190932
14919198623
14919206862
14919214126
14919223586
14919230727
14919239699
14919248488
14919257582
14919265883
14919274794
14919279921
14919282851
14919290663
14919293410
14919299880
14919304335
14919312941
14919320754
14919326369
14919329299
14919338210
14919342909
14919347853
14919353224
14919359877
14919364272
14919370192
14919377211
14919384840
14919392287
14919402663
14919408949
14919417128
14919421339
14919432204
14919441176
14919447523
14919452894
14919457716
14919459975
14919468275
14919472609
14919478712
14919483412
14919488173
14919493300
14919499342
14919504042
14919509291
14919515822
14919520643
14919525709
14919531141
14919536634
14919542738
14919548414
14919554152
14919559462
14919565321
14919571302
14919578199
14919584425
14919592298
14919598280
14919605787
14919614393
14919620802
14919630262
14919641432
14919648512
14919656324
14919664381
14919671339
14919677686
14919684522
14919693128
14919700208
14919706678
14919713941
14919721265
14919728956
14919736890
14919744581
14919754102
14919760999
14919768018
14919775464
14919782545
14919792127
14919802198
14919813611
14919825208
14919836316
14919844434
14919853955
14919861402
14919868360
14919876172
14919882825
14919891553
14919898389
14919906201
14919913831
14919920484
14919929395
14919935376
14919944287
14919952771
14919960523
14919968945
14919975476
14919982983
14919991711
14919997510
14920007336
14920012769
14920021741
14920029065
14920037976
14920043286
14920052258
14920060193
14920066235
14920075146
14920083874
14920089612
14920100354
14920109814
14920115796
14920123364
14920132397
14920139965
14920146618
14920155041
14920163281
14920171154
14920181225
14920189465
14920199902
14920207775
14920215832
14920223644
14920231640
14920238049
14920244702
14920254772
14920260998
14920270886
14920277721
14920287304
14920294750
14920303173
14920310375
14920318554
14920325939
14920334606
14920345714
14920354076
14920362438
14920370434
14920376842
14920386059
14920393017
14920401867
14920408397
14920415966
14920425975
14920432445
14920440502
14920448619
14920456737
14920464977
14920473522
14920477977
14920489452
14920496410
14920504711
14920511669
14920520763
14920527172
14920535594
14920543834
14920551891
14920561473
14920567577
14920576122
14920584544
14920593333
14920601390
14920609386
14920614024
14920624461
14920631358
14920641246
14920647716
14920655101
14920663035
14920672069
14920679393
14920689708
14920697032
14920706065
14920713511
14920721568
14920729380
14920735545
14920745982
14920753917
14920761851
14920766246
14920777049
14920784007
14920792369
14920798838
14920806712
14920816599
14920822276
14920832896
14920839549
14920848033
14920857981
14920865366
14920871287
14920879649
14920888804
14920898264
14920907847
14920915720
14920919932
14920930430
14920938364
14920945811
14920950449
14920962290
14920969309
14920979441
14920983713
14920993357
14920999582
14921012461
14921020395
14921031992
14921040049
14921045176
14921050730
14921057260
14921062693
14921067575
14921072153
14921077951
14921082529
14921088022
14921091928
14921097788
14921102304
14921107797
14921115427
14921121286
14921126474
14921132150
14921136911
14921142465
14921148325
14921154916
14921158701
14921166452
14921171091
14921177622
14921182932
14921189096
14921193674
14921198923
14921206491
14921212472
14921219308
14921224069
14921229501
14921235422
14921241220
14921246042
14921252267
14921258737
14921264230
14921268808
14921273935
14921279001
14921284799
14921289804
14921295114
14921299692
14921306588
14921311349
14921315866
14921323617
14921329171
14921337899
14921343515
14921352792
14921361276
14921370187
14921377084
14921383859
14921391793
14921401437
14921409127
14921416574
14921425363
14921432992
14921441232
14921447946
14921455514
14921462960
14921467233
14921478707
14921486520
14921496651
14921501229
14921511056
14921519173
14921524789
14921532906
14921541024
14921547555
14921555977
14921562569
14921569405
14921579659
14921585946
14921593453
14921601021
14921608773
14921618966
14921626168
14921632332
14921640816
14921653084
14921661446
14921671089
14921677376
14921686531
14921694771
14921702217
14921723274
14921731453
14921738533
14921746468
14921754524
14921761543
14921769295
14921776131
14921784920
14921789375
14921799019
14921805733
14921813606
14921820625
14921830391
14921837349
14921843757
14921850593
14921858650
14921866890
14921874214
14921882149
14921887764
14921895881
14921904304
14921912483
14921916755
14921925727
14921932197
14921941597
14921948860
14921956184
14921963203
14921970954
14921979072
14921984992
14921992622
14922001411
14922008369
14922017036
14922022895
14922031135
14922037605
14922046027
14922050971
14922061775
14922073554
14922082648
14922096198
14922107612
14922115852
14922121894
14922130927
14922137336
14922146796
14922153083
14922161994
14922169806
14922177924
14922185370
14922193732
14922201423
14922210029
14922215461
14922223334
14922230780
14922236274
14922245063
14922250922
14922261969
14922267707
14922274481
14922280158
14922288092
14922295661
14922300849
14922308600
14922317511
14922325324
14922332037
14922338263
14922348517
14922355109
14922363471
14922370795
14922379218
14922387030
14922393011
14922404730
14922411566
14922421576
14922428351
14922438421
14922445807
14922452337
14922458563
14922467779
14922474371
14922487494
14922496954
14922506476
14922512091
14922520086
14922527349
14922531134
14922541998
14922548346
14922555792
14922564886
14922571722
14922579779
14922588812
14922598516
14922607183
14922615057
14922621710
14922629583
14922638616
14922646490
14922653082
14922660589
14922669378
14922676458
14922683294
14922692327
14922699468
14922705938
14922709966
14922715154
14922721746
14922726934
14922731084
14922736516
14922742071
14922747259
14922752019
14922756536
14922763189
14922768194
14922772100
14922778753
14922783635
14922789007
14922794805
14922800420
14922805913
14922812078
14922817754
14922822088
14922827398
14922833196
14922837651
14922843694
14922847478
14922856938
14922861333
14922868169
14922871892
14922877690
14922882451
14922887761
14922892583
14922897710
14922902776
14922909062
14922914433
14922918218
14922924443
14922929326
14922935552
14922940740
14922945012
14922951970
14922956303
14922961797
14922966740
14922973088
14922978642
14922983647
14922994023
14923001408
14923008183
14923017644
14923024724
14923036381
14923043217
14923050908
14923059086
14923069340
14923077824
14923084782
14923097355
14923105778
14923116764
14923127873
14923134282
14923141301
14923151493
14923160954
14923167424
14923177433
14923188481
14923200505
14923208622
14923217961
14923225895
14923233585
14923241764
14923249149
14923256962
14923263798
14923272404
14923281498
14923289738
14923295841
14923303348
14923309696
14923317264
14923325809
14923333073
14923339786
14923347355
14923354679
14923361515
14923369755
14923378116
14923385990
14923392704
14923400028
14923408146
14923416141
14923425113
14923431156
14923438968
14923446292
14923452213
14923460697
14923469120
14923478031
14923484561
14923492923
14923500553
14923506534
14923513248
14923520572
14923527530
14923536746
14923544498
14923552737
14923560001
14923567569
14923574344
14923581851
14923589908
14923594119
14923603885
14923610110
14923618960
14923627627
14923633731
14923640018
14923648807
14923657657
14923666079
14923672732
14923681827
14923687686
14923694278
14923702884
14923710574
14923717349
14923726199
14923735110
14923745242
14923751712
14923760684
14923770938
14923779055
14923783206
14923794863
14923804324
14923812502
14923820376
14923828188
14923835330
14923843447
14923849978
14923860232
14923869448
14923877627
14923883974
14923892702
14923899050
14923906863
14923916445
14923928591
14923939089
14923947146
14923955630
14923963747
14923971071
14923980227
14923986208
14924001833
14924010988
14924018496
14924026613
14924035768
14924042665
14924052309
14924060182
14924066286
14924072695
14924081179
14924087404
14924096193
14924103273
14924110048
14924120790
14924127687
14924135439
14924141298
14924150331
14924156618
14924162782
14924172060
14924181459
14924188051
14924193849
14924202455
14924207765
14924217042
14924224122
14924231203
14924239503
14924248659
14924256593
14924263490
14924269410
14924277101
14924283815
14924291505
14924301759
14924309388
14924316346
14924323671
14924330445
14924338380
14924346559
14924351197
14924360414
14924369874
14924376344
14924381898
14924390504
14924396058
14924405152
14924411683
14924416444
14924423219
14924428773
14924434876
14924443238
14924450562
14924455994
14924460633
14924466615
14924472901
14924477723
14924482423
14924489259
14924494263
14924499024
14924504334
14924509644
14924517335
14924522584
14924528626
14924532715
14924539124
14924544312
14924547547
14924555787
14924562501
14924568299
14924573731
14924577454
14924585083
14924589722
14924596985
14924601502
14924606568
14924612976
14924618592
14924623719
14924629578
14924634095
14924642884
14924649109
14924654846
14924660584
14924667542
14924672913
14924679810
14924686035
14924693726
14924702820
14924708252
14924713074
14924721558
14924728088
14924734985
14924741577
14924750366
14924757202
14924766174
14924772522
14924781616
14924790039
14924796143
14924803772
14924813415
14924820923
14924827820
14924836059
14924845398
14924853515
14924860229
14924867309
14924876404
14924882385
14924894287
14924903869
14924916504
14924923523
14924936401
14924944213
14924951904
14924959350
14924968322
14924974975
14924982360
14924990051
14924997619
14925004516
14925014160
14925020202
14925030151
14925036926
14925044982
14925051879
14925060180
14925068542
14925076537
14925083800
14925092101
14925101256
14925107482
14925116149
14925124023
14925131469
14925139037
14925146361
14925155211
14925161803
14925171081
14925177306
14925187072
14925193847
14925202819
14925208983
14925218139
14925228270
14925236571
14925245177
14925251281
14925259520
14925267272
14925274962
14925282103
14925286681
14925297240
14925305541
14925312865
14925320799
14925328307
14925335936
14925343443
14925351500
14925359923
14925369994
14925377562
14925384337
14925392271
14925401610
14925408690
14925422179
14925430479
14925439268
14925448668
14925455870
14925463743
14925470335
14925478453
14925487913
14925499571
14925507322
14925516417
14925524473
14925533018
14925540892
14925548704
14925555174
14925562193
14925571714
14925579771
14925586851
14925595457
14925602781
14925610716
14925618711
14925625547
14925633665
14925641905
14925650083
14925658140
14925666196
14925672605
14925681333
14925690733
14925695982
14925705686
14925711912
14925721250
14925728269
14925735532
14925742246
14925752439
14925761106
14925768369
14925772641
14925783506
14925790403
14925800596
14925808042
14925819211
14925826352
14925835080
14925845700
14925851010
14925859677
14925868161
14925876889
14925885495
14925894284
14925898862
14925910520
14925917539
14925926511
14925934873
14925940427
14925950253
14925956174
14925963437
14925973202
14925981808
14925989255
14925997250
14926005185
14926012631
14926019345
14926026730
14926034176
14926043759
14926050900
14926059811
14926066037
14926072934
14926081784
14926088192
14926097043
14926104123
14926113034
14926119931
14926126522
14926134030
14926141110
14926148556
14926156613
14926163937
14926169247
14926174740
14926180111
14926183285
14926190792
14926193783
14926200741
14926205441
14926212399
14926215756
14926222530
14926227047
14926233883
14926239132
14926244625
14926249813
14926257076
14926261593
14926266537
14926271603
14926278316
14926284054
14926291012
14926296383
14926302730
14926306881
14926311397
14926316158
14926320919
14926327144
14926330746
14926336117
14926343563
14926348751
14926352962
14926358211
14926363155
14926368526
14926373287
14926379879
14926385982
14926392025
14926395321
14926402706
14926405452
14926412471
14926417171
14926424068
14926428707
14926435909
14926440609
14926446834
14926451534
14926457210
14926462703
14926467525
14926474666
14926481197
14926486446
14926491145
14926496395
14926500057
14926507198
14926511714
14926516109
14926523189
14926529048
14926534663
14926538753
14926542964
14926549251
14926553951
14926558284
14926565242
14926574092
14926578853
14926584346
14926589168
14926593684
14926599422
14926604365
14926611995
14926617061
14926623652
14926626277
14926634028
14926639400
14926645320
14926648128
14926655391
14926660579
14926668818
14926672542
14926679561
14926683772
14926689753
14926694392
14926698542
14926705500
14926709956
14926716853
14926720637
14926726985
14926732966
14926739558
14926742854
14926751094
14926756953
14926765681
14926768855
14926775569
14926781245
14926787348
14926792536
14926798518
14926804804
14926811152
14926818171
14926825068
14926830317
14926835078
14926840937
14926846125
14926850703
14926855647
14926867121
14926873713
14926880366
14926884089
14926892023
14926896662
14926903254
14926907770
14926916559
14926921076
14926926935
14926932978
14926937128
14926943659
14926948176
14926954645
14926961420
14926965998
14926971857
14926976862
14926981928
14926988764
14926991999
14926999506
14927006159
14927011774
14927015863
14927021418
14927026789
14927033319
14927037775
14927045038
14927048334
14927056330
14927061273
14927068537
14927073419
14927080377
14927084650
14927090875
14927096185
14927101984
14927107538
14927113092
14927119013
14927125116
14927130121
14927135919
14927142084
14927147272
14927153192
14927158075
14927163629
14927168024
14927174982
14927179376
14927185602
14927190118
14927198114
14927204462
14927208551
14927214899
14927220453
14927225702
14927230218
14927235650
14927242608
14927248407
14927253473
14927259881
14927265802
14927271539
14927277581
14927281732
14927289239
14927295404
14927301507
14927308404
14927312799
14927320123
14927324578
14927330926
14927339715
14927346429
14927353143
14927359063
14927365960
14927372796
14927378106
14927383355
14927389398
14927394952
14927401910
14927407525
14927412957
14927422051
14927430535
14927435052
14927442315
14927449578
14927455193
14927460198
14927466363
14927471062
14927477959
14927484734
14927489678
14927495537
14927500664
14927505242
14927510735
14927516717
14927520440
14927524712
14927533257
14927538262
14927543694
14927549676
14927554986
14927557854
14927564385
14927569024
14927576653
14927582512
14927586724
14927592705
14927598076
14927602044
14927607659
14927611626
14927620720
14927627007
14927631157
14927636895
14927641045
14927647393
14927652092
14927656548
14927664543
14927671501
14927675469
14927681999
14927687065
14927691704
14927695366
14927701897
14927708794
14927715386
14927719414
14927724602
14927729424
14927736198
14927740532
14927745476
14927748589
14927758781
14927763969
14927769402
14927775749
14927779838
14927783867
14927790031
14927794121
14927800896
14927807243
14927812614
14927816582
14927821892
14927827690
14927831718
14927838188
14927844169
14927850883
14927855278
14927862419
14927867241
14927873100
14927876823
14927884025
14927889518
14927895744
14927900138
14927905204
14927910575
14927915519
14927921012
14927926567
14927931266
14927938041
14927941947
14927948722
14927953056
14927958549
14927963493
14927968437
14927973930
14927979789
14927987357
14927992973
14927997733
14928002616
14928005607
14928012687
14928018119
14928025138
14928032645
14928039420
14928045463
14928051871
14928056388
14928061332
14928067130
14928073051
14928079764
14928084037
14928088248
14928094901
14928098807
14928104728
14928110709
14928116508
14928122794
14928126945
14928130973
14928137992
14928143424
14928148429
14928153068
14928160575
14928165152
14928171561
14928175589
14928181449
14928186026
14928191153
14928195731
14928201407
14928207694
14928211783
14928218009
14928222647
14928227957
14928231070
14928237784
14928244681
14928254447
14928259146
14928264884
14928268851
14928274039
14928278128
14928284415
14928289542
14928295584
14928300345
14928306510
14928312125
14928317069
14928321768
14928327017
14928332388
14928339774
14928345877
14928350760
14928354666
14928364004
14928369742
14928373892
14928378836
14928385611
14928390738
14928397879
14928402579
14928408987
14928413260
14928418753
14928426626
14928434134
14928439749
14928444876
14928450735
14928461783
14928470999
14928475271
14928486441
14928494558
14928500357
14928510488
14928515432
14928526358
14928532888
14928540274
14928548330
14928558218
14928566763
14928572256
