15160381721
15160386909
15160392341
15160399543
15160405708
15160411384
15160417060
15160422981
15160429328
15160435493
15160442634
15160449165
15160456245
15160461921
15160470527
15160477851
15160484443
15160490119
15160496040
15160502387
15160508979
15160515144
15160522468
15160528571
15160533698
15160540778
15160546393
15160553718
15160562751
15160569160
15160576301
15160585578
15160594733
15160603461
15160610358
15160617499
15160626471
15160634162
15160641913
15160650580
15160659369
15160666205
15160672187
15160682135
15160689948
15160697211
15160702033
15160710578
15160716010
15160722846
15160729071
15160735724
15160741400
15160747809
15160754157
15160759406
15160768073
15160776007
15160785101
15160791754
15160799445
15160806769
15160814215
15160820990
15160825995
15160832342
15160839545
15160846014
15160851080
15160858526
15160864996
15160871039
15160877142
15160883063
15160889227
15160895270
15160902472
15160909857
15160915960
15160921454
15160927008
15160932440
15160939947
15160946356
15160953131
15160957830
15160964849
15160971624
15160978765
15160984381
15160989141
15160996771
15161004522
15161010870
15161014654
15161022283
15161027654
15161035467
15161042913
15161050909
15161057501
15161063116
15161070074
15161075811
15161083440
15161091192
15161096746
15161103765
15161111456
15161117193
15161125249
15161131780
15161138006
15161144536
15161150945
15161157232
15161163885
15161170965
15161177862
15161184759
15161189947
15161196905
15161204229
15161211492
15161216741
15161223272
15161233831
15161241704
15161250615
15161258794
15161265020
15161271184
15161277898
15161286382
15161296453
15161303411
15161312261
15161318181
15161324651
15161330754
15161338384
15161342961
15161352178
15161359197
15161366826
15161375066
15161380559
15161387761
15161395879
15161402348
15161409184
15161417363
15161424626
15161431401
15161437993
15161444768
15161450383
15161457585
15161463566
15161470585
15161476262
15161483830
15161490300
15161498356
15161504460
15161512700
15161519719
15161525578
15161533635
15161539677
15161547856
15161554203
15161560795
15161569096
15161577030
15161583073
15161590885
15161596684
15161603764
15161609745
15161617863
15161624272
15161631352
15161638859
15161644352
15161652531
15161659184
15161665043
15161673039
15161681828
15161688236
15161696110
15161703190
15161709293
15161717594
15161723637
15161731449
15161737553
15161745731
15161751835
15161756168
15161767399
15161772953
15161781132
15161788700
15161795536
15161803653
15161810306
15161817325
15161824100
15161831546
15161838016
15161844730
15161854190
15161862491
15161869571
15161877201
15161884220
15161889896
15161895145
15161898258
15161903507
15161910648
15161915714
15161920963
15161926395
15161929813
15161935306
15161939578
15161944644
15161952518
15161957034
15161962283
15161968814
15161976871
15161980899
15161987918
15161993045
15161996951
15162003421
15162007266
15162014712
15162018497
15162024600
15162030582
15162035403
15162041080
15162048038
15162054507
15162059085
15162065555
15162069705
15162074832
15162081241
15162086123
15162089847
15162095218
15162100039
15162103702
15162109683
15162114566
15162119388
15162124148
15162128970
15162134097
15162139468
15162144290
15162148684
15162154849
15162162295
15162170108
15162176211
15162182925
15162190554
15162197634
15162204470
15162211184
15162221255
15162226321
15162235598
15162242617
15162250857
15162257998
15162266787
15162272524
15162281863
15162291262
15162298159
15162304812
15162314211
15162320498
15162328615
15162336916
15162345095
15162351076
15162358217
15162367495
15162374636
15162383242
15162389712
15162400637
15162409731
15162416018
15162426027
15162434389
15162440859
15162448244
15162454775
15162465273
15162471987
15162480654
15162487551
15162492800
15162504824
15162513124
15162518740
15162526247
15162534364
15162538881
15162548097
15162555605
15162562990
15162570314
15162577089
15162584230
15162592287
15162601320
15162607729
15162614687
15162620546
15162631715
15162639833
15162646913
15162656679
15162663453
15162672548
15162681886
15162687684
15162696473
15162703859
15162710511
15162717836
15162725404
15162732301
15162740236
15162746949
15162756288
15162761048
15162771363
15162778504
15162786988
15162794313
15162803346
15162810304
15162820130
15162827455
15162836549
15162843141
15162851319
15162858460
15162865052
15162874451
15162880494
15162888978
15162895753
15162904420
15162911378
15162917542
15162927247
15162934388
15162940308
15162951234
15162957459
15162966065
15162971924
15162982728
15162990723
15162997742
15163005982
15163013489
15163020691
15163029297
15163036438
15163043702
15163050171
15163056702
15163067749
15163074402
15163083435
15163090760
15163096680
15163101990
15163112244
15163117676
15163125305
15163133911
15163141907
15163149292
15163157166
15163162170
15163172119
15163178589
15163186096
15163194458
15163202759
15163209534
15163216919
15163222717
15163231262
15163239441
15163247131
15163253418
15163262329
15163268738
15163273254
15163282715
15163290039
15163296997
15163303528
15163311401
15163318603
15163326904
15163333374
15163341247
15163349853
15163355529
15163363220
15163370605
15163379638
15163391174
15163397827
15163406860
15163415283
15163421081
15163429687
15163435180
15163443664
15163452026
15163461974
15163468078
15163476806
15163483764
15163492065
15163499511
15163508117
15163513793
15163522704
15163529906
15163537414
15163543395
15163550292
15163557738
15163565612
15163572204
15163578246
15163581969
15163588256
15163592162
15163598876
15163602782
15163610412
15163616820
15163622069
15163625975
15163632018
15163635375
15163640868
15163645568
15163650450
15163655699
15163661010
15163665953
15163670287
15163675292
15163681090
15163684386
15163690062
15163698180
15163702880
15163707884
15163712706
15163717833
15163722167
15163727843
15163729857
15163738219
15163744444
15163749022
15163755187
15163758788
15163764464
15163768797
15163772459
15163778319
15163783446
15163789183
15163792723
15163799132
15163803404
15163809203
15163814207
15163818236
15163824278
15163830199
15163837462
15163847349
15163853819
15163860106
15163868590
15163874937
15163884642
15163890928
15163899473
15163905943
15163914061
15163921934
15163927794
15163935911
15163945616
15163951597
15163960325
15163968992
15163976988
15163982603
15163990415
15163998716
15164008055
15164016722
15164023252
15164031004
15164037962
15164044859
15164053648
15164060239
15164067747
15164075803
15164083921
15164092832
15164098569
15164104917
15164115598
15164122007
15164131223
15164138425
15164146482
15164156064
15164161497
15164169675
15164174741
15164183652
15164188901
15164198362
15164206785
15164215207
15164221250
15164230527
15164236264
15164244016
15164251828
15164261228
15164270627
15164276731
15164282346
15164291928
15164299436
15164305661
15164312436
15164320371
15164328427
15164336240
15164344663
15164350522
15164357846
15164365903
15164373471
15164380490
15164388364
15164395077
15164401974
15164408444
15164415646
15164423642
15164431027
15164438229
15164446347
15164454709
15164462094
15164467953
15164474545
15164482602
15164489010
15164498410
15164505429
15164514462
15164520443
15164528073
15164536374
15164544308
15164550106
15164557553
15164565487
15164574215
15164583248
15164589840
15164598629
15164606991
15164613461
15164620358
15164629452
15164637631
15164643856
15164650387
15164659725
15164666622
15164673824
15164679928
15164688534
15164695309
15164705868
15164712459
15164720699
15164726681
15164735042
15164741512
15164749203
15164756466
15164765987
15164775081
15164782772
15164789180
15164796444
15164804195
15164811092
15164818843
15164827022
15164835628
15164842342
15164851497
15164858821
15164866207
15164872127
15164879634
15164888545
15164899227
15164906246
15164912654
15164923091
15164929012
15164939327
15164946956
15164953548
15164962154
15164969966
15164977473
15164985713
15164990718
15165001399
15165006587
15165016658
15165027339
15165033198
15165039851
15165049312
15165056514
15165063533
15165071406
15165077937
15165085261
15165094722
15165101497
15165107112
15165113887
15165124018
15165133784
15165147151
15165154658
15165166072
15165176325
15165185115
15165194758
15165204585
15165216059
15165228755
15165240595
15165249323
15165256281
15165262873
15165270075
15165276362
15165286311
15165295588
15165303095
15165309809
15165316584
15165324641
15165331721
15165341242
15165349482
15165357905
15165366816
15165369928
15165382380
15165391352
15165397577
15165408136
15165414545
15165424128
15165431330
15165439386
15165447748
15165456110
15165463495
15165471613
15165480585
15165488153
15165494806
15165502252
15165511347
15165521906
15165530390
15165537775
15165546503
15165554620
15165561517
15165570551
15165577753
15165584405
15165590936
15165599603
15165606805
15165615350
15165624261
15165633844
15165643609
15165654596
15165661310
15165671319
15165682123
15165693353
15165704461
15165713922
15165724664
15165735711
15165745660
15165755548
15165763543
15165774224
15165785577
15165794671
15165801324
15165814874
15165824090
15165835992
15165844537
15165853814
15165864983
15165875115
15165886040
15165895806
15165906975
15165917901
15165926018
15165934014
15165942742
15165950982
15165962029
15165971062
15165980034
15165991936
15166002434
15166011956
15166020806
15166030571
15166039849
15166049004
15166060662
15166070000
15166078545
15166088310
15166098259
15166106560
15166116326
15166126030
15166136772
15166146843
15166157951
15166164543
15166176811
15166186089
15166195854
15166204948
15166215935
15166222893
15166236320
15166245537
15166255546
15166264518
15166274833
15166285331
15166294548
15166303337
15166312126
15166323234
15166332267
15166341972
15166353813
15166360649
15166373954
15166381584
15166391960
15166400199
15166411857
15166422782
15166432365
15166441520
15166450614
15166460746
15166471122
15166480094
15166490348
15166501334
15166510612
15166521110
15166530143
15166539176
15166548026
15166561027
15166568290
15166576713
15166584403
15166590690
15166598990
15166604972
15166611441
15166620597
15166627311
15166633536
15166640006
15166646292
15166652823
15166658988
15166665091
15166672293
15166683097
15166689627
15166695365
15166702445
15166710257
15166717581
15166726920
15166733878
15166738455
15166745413
15166752127
15166759573
15166766226
15166774283
15166782034
15166789053
15166795889
15166801382
15166808096
15166815481
15166822195
15166829214
15166836966
15166841910
15166849722
15166854666
15166862356
15166867178
15166873953
15166882864
15166890005
15166898001
15166904959
15166910269
15166917776
15166923208
15166930960
15166936941
15166944815
15166952322
15166959707
15166966787
15166971853
15166979910
15166987112
15166994558
15167001516
15167006948
15167013662
15167021230
15167028799
15167034597
15167042287
15167051016
15167058706
15167064321
15167071035
15167079092
15167085989
15167093862
15167098928
15167108388
15167116689
15167125600
15167131765
15167140554
15167147085
15167152334
15167158071
15167163137
15167169423
15167174245
15167179738
15167184621
15167190297
15167195913
15167201223
15167207448
15167215017
15167218679
15167224721
15167228871
15167237661
15167242238
15167251638
15167256948
15167265309
15167271230
15167275685
15167281362
15167286916
15167292226
15167298879
15167304189
15167310780
15167317067
15167323171
15167327931
15167335866
15167338490
15167347524
15167352956
15167358632
15167365285
15167370595
15167375050
15167382619
15167386464
15167393727
15167397511
15167404042
15167409535
15167414906
15167418690
15167424855
15167428639
15167436268
15167442677
15167449574
15167455555
15167462636
15167470082
15167476674
15167484791
15167491200
15167499928
15167506825
15167513356
15167519581
15167526234
15167532521
15167541676
15167549855
15167555958
15167564503
15167570545
15167578358
15167584461
15167594044
15167601063
15167608936
15167616505
15167623646
15167630482
15167637257
15167647511
15167653370
15167661915
15167669666
15167676685
15167684620
15167692493
15167700977
15167709400
15167717090
15167723316
15167731739
15167739185
15167746570
15167754078
15167762256
15167770679
15167779468
15167786182
15167793323
15167801563
15167810230
15167820118
15167826709
15167835804
15167841114
15167851795
15167859912
15167866077
15167875537
15167883472
15167893421
15167900806
15167911548
15167917163
15167926379
15167934619
15167943042
15167952625
15167962085
15167968372
15167978259
15167984485
15167995593
15168001636
15168012683
15168018664
15168027820
15168037280
15168045337
15168054126
15168062610
15168071460
15168078051
15168087695
15168093676
15168103564
15168109973
15168118335
15168125048
15168133349
15168140795
15168149096
15168157336
15168163623
15168172167
15168177600
15168185534
15168190966
15168199877
15168208727
15168215807
15168222704
15168231616
15168239184
15168247240
15168255602
15168264819
15168271654
15168277758
15168284411
15168291491
15168298693
15168306689
15168314867
15168324145
15168332079
15168338732
15168347704
15168354601
15168362597
15168373156
15168380480
15168387194
15168394823
15168402147
15168411058
15168417711
15168426989
15168435472
15168443590
15168450548
15168458788
15168466539
15168472215
15168480638
15168488634
15168495897
15168504869
15168512071
15168516832
15168525255
15168532335
15168539964
15168547350
15168553453
15168562608
15168569749
15168577684
15168586473
15168594041
15168600999
15168607347
15168617296
15168627855
15168635118
15168644395
15168654039
15168665147
15168669664
15168680284
15168686998
15168695787
15168703172
15168710191
15168719590
15168726243
15168735398
15168745835
15168752305
15168762193
15168771409
15168780686
15168788011
15168794541
15168798509
15168802598
15168808335
15168816453
15168821885
15168827500
15168831590
15168836716
15168841966
15168844834
15168851914
15168856858
15168861497
15168867905
15168871812
15168875474
15168881638
15168887742
15168892808
15168899522
15168904038
15168909653
15168914719
15168918992
15168923447
15168929612
15168936020
15168941514
15168947312
15168952439
15168958420
15168962265
15168967881
15168973130
15168977585
15168983017
15168989121
15168993393
15169000351
15169003708
15169010178
15169014878
15169021164
15169027146
15169033066
15169036484
15169042649
15169046677
15169055954
15169062119
15169071518
15169079148
15169085800
15169092880
15169099960
15169107285
15169115280
15169120895
15169130661
15169136826
15169145493
15169155014
15169162704
15169170029
15169179611
15169185043
15169193710
15169201156
15169209640
15169218368
15169223984
15169233444
15169243088
15169249679
15169262497
15169273788
15169280746
15169289840
15169297287
15169305648
15169313522
15169320358
15169329574
15169335250
15169346115
15169354293
15169362045
15169369796
15169379867
15169385848
15169396713
15169403060
15169412338
15169421615
15169427596
15169434005
15169443465
15169450790
15169456832
15169465438
15169471664
15169480453
15169485702
15169493941
15169498946
15169505599
15169512862
15169518294
15169526107
15169532699
15169538192
15169545821
15169551986
15169558333
15169564864
15169573653
15169581405
15169587386
15169595259
15169601546
15169610091
15169616988
15169625777
15169631697
15169641951
15169650069
15169658675
15169666731
15169673934
15169683272
15169692427
15169698409
15169705672
15169712569
15169723311
15169731184
15169739241
15169744368
15169755598
15169762862
15169771162
15169777937
15169784956
15169794295
15169802046
15169810286
15169818709
15169825545
15169835798
15169842695
15169851179
15169859297
15169869368
15169877485
15169885481
15169893476
15169901472
15169906904
15169918196
15169926618
15169951155
15169957014
15169968733
15169977155
15169987653
15169996565
15170004011
15170012067
15170018720
15170027021
15170033247
15170042646
15170049787
15170057722
15170065961
15170074750
15170081647
15170090009
15170096906
15170105756
15170114545
15170125226
15170134137
15170141401
15170149274
15170158551
15170165754
15170176557
15170185041
15170192182
15170199994
15170209943
15170217878
15170224713
15170232526
15170240460
15170248883
15170257001
15170265607
15170273541
15170282025
15170288800
15170295941
15170305402
15170313519
15170322125
15170330853
15170337567
15170345990
15170354474
15170362653
15170370770
15170378644
15170388348
15170394208
15170400677
15170406293
15170412945
15170420025
15170427472
15170432110
15170440167
15170444745
15170451153
15170454998
15170460186
15170465741
15170471722
15170477459
15170483075
15170486370
15170492901
15170496685
15170502850
15170506695
15170512371
15170518780
15170525311
15170531781
15170537640
15170543499
15170548626
15170552471
15170559002
15170565045
15170570843
15170576458
15170582501
15170588238
15170594524
15170600018
15170606243
15170613567
15170619366
15170626751
15170631268
15170636089
15170642925
15170650005
15170656170
15170661541
15170668072
15170674297
15170684490
15170691387
15170698284
15170705730
15170714336
15170721538
15170734356
15170742656
15170750774
15170759624
15170766460
15170774761
15170784771
15170794414
15170800457
15170814312
15170820049
15170830791
15170837017
15170846538
15170855510
15170862041
15170869975
15170877056
15170884014
15170893657
15170900981
15170907512
15170913921
15170920085
15170926677
15170934062
15170941081
15170948405
15170954021
15170962749
15170967876
15170976420
15170983440
15170988872
15170997233
15171005839
15171012004
15171020976
15171031596
15171038371
15171047587
15171051860
15171062114
15171070109
15171077800
15171085002
15171090922
15171100077
15171108500
15171115641
15171125651
15171133341
15171140605
15171149027
15171156291
15171164897
15171172221
15171181010
15171190897
15171199198
15171206400
15171215006
15171224162
15171230753
15171239787
15171247599
15171255228
15171265360
15171272684
15171282145
15171289347
15171298258
15171306437
15171314005
15171321818
15171330729
15171337809
15171348429
15171356546
15171364298
15171374064
15171381815
15171390055
15171397074
15171405313
15171413675
15171420999
15171430094
15171438394
15171448160
15171456888
15171467203
15171475199
15171486734
15171495279
15171503458
15171511881
15171518778
15171525919
15171534586
15171542215
15171550333
15171560342
15171568704
15171575845
15171584939
15171593728
15171602212
15171607522
15171617593
15171625406
15171633340
15171641641
15171649087
15171656839
15171665445
15171671304
15171680703
15171688943
15171695474
15171703653
15171711587
15171717813
15171726358
15171734658
15171741189
15171749490
15171759377
15171765481
15171772866
15171780374
15171789529
15171796792
15171806191
15171812661
15171819863
15171826333
15171835366
15171841531
15171849465
15171857827
15171864419
15171870644
15171876137
15171887673
15171893960
15171904885
15171911538
15171920083
15171928200
15171937417
15171942605
15171953408
15171958657
15171967690
15171977517
15171985634
15171992897
15172000283
15172007241
15172013222
15172024147
15172032936
15172039894
15172048256
15172056191
15172064919
15172070961
15172078163
15172088112
15172095863
15172104103
15172111366
15172118813
15172125343
15172133156
15172138039
15172142555
15172150368
15172155312
15172164162
15172168983
15172174721
15172180336
15172186134
15172191688
15172196693
15172202308
15172207802
15172215004
15172219887
15172227028
15172233314
15172238685
15172245460
15172251014
15172256630
15172263405
15172268165
15172272133
15172278846
15172283058
15172289344
15172293800
15172300270
15172305519
15172310157
15172319129
15172324989
15172329750
15172336341
15172341529
15172347572
15172353370
15172360633
15172365882
15172371986
15172376563
15172382179
15172386634
15172391822
15172398475
15172403602
15172408241
15172415015
15172420631
15172428321
15172434852
15172442481
15172448280
15172457557
15172463416
15172471168
15172477271
15172483008
15172494605
15172502540
15172508948
15172518958
15172524817
15172532203
15172539588
15172545081
15172554908
15172560279
15172571204
15172576819
15172586341
15172592994
15172602332
15172610388
15172618201
15172626502
15172633948
15172642127
15172650672
15172657874
15172666968
15172674597
15172681738
15172690955
15172693945
15172705847
15172711951
15172722388
15172728674
15172738501
15172744543
15172753760
15172762610
15172771155
15172779089
15172787390
15172792456
15172802527
15172809973
15172818762
15172825232
15172834692
15172841650
15172849707
15172858374
15172865026
15172874609
15172883215
15172889624
15172898352
15172906530
15172914709
15172922155
15172929357
15172939367
15172947058
15172954260
15172962499
15172970617
15172981298
15172992346
15172999487
15173008398
15173015783
15173023656
15173030614
15173040685
15173047521
15173055700
15173064184
15173070226
15173079381
15173088720
15173096410
15173105321
15173113622
15173122899
15173133214
15173141576
15173148595
15173157567
15173166417
15173173497
15173181432
15173189794
15173199376
15173207128
15173213048
15173221044
15173228307
15173234777
15173242955
15173249608
15173256871
15173265538
15173272496
15173281468
15173288976
15173296300
15173307957
15173314549
15173323888
15173330357
15173336583
15173347874
15173353795
15173361485
15173369054
15173377476
15173386143
15173394017
15173402318
15173410740
15173418736
15173425450
15173430272
15173440464
15173447789
15173457310
15173465184
15173472264
15173479161
15173487278
15173493870
15173501316
15173510716
15173519017
15173525547
15173531834
15173543003
15173550572
15173557041
15173565708
15173573948
15173582554
15173590000
15173598179
15173606602
15173614109
15173622715
15173629978
15173639622
15173648472
15173656956
15173664158
15173673069
15173680088
15173690708
15173697178
15173703953
15173713535
15173723484
15173730320
15173739475
15173746128
15173754245
15173761875
15173769138
15173777744
15173785190
15173794162
15173802463
15173811313
15173819370
15173829807
15173836399
15173844699
15173854404
15173863132
15173869357
15173877414
15173886508
15173893161
15173901950
15173907077
15173917331
15173923312
15173928134
15173935214
15173940951
15173945895
15173951511
15173958041
15173962375
15173970920
15173976230
15173981174
15173987155
15173993014
15173998569
15174003756
15174009311
15174015109
15174022677
15174028659
15174032016
15174037936
15174044345
15174050143
15174054293
15174061496
15174067111
15174071139
15174078463
15174082492
15174089267
15174093844
15174100802
15174105014
15174111300
15174117404
15174122225
15174128207
15174135409
15174141512
15174145968
15174150912
15174157870
15174163546
15174169528
15174175021
15174180819
15174185091
15174191683
15174196444
15174203402
15174208041
15174212313
15174219881
15174228670
15174236239
15174243197
15174253207
15174258333
15174268282
15174276156
15174285616
15174292818
15174301180
15174307711
15174313875
15174323275
15174333590
15174340059
15174346163
15174355745
15174364717
15174372835
15174381075
15174388094
15174395784
15174405428
15174411470
15174421541
15174428865
15174437532
15174444063
15174455110
15174461824
15174471285
15174478365
15174487154
15174493623
15174503389
15174510164
15174516450
15174527437
15174534395
15174544282
15174556917
15174564302
15174571809
15174581514
15174588106
15174596528
15174603608
15174610200
15174619478
15174625886
15174632417
15174642732
15174651094
15174659883
15174665742
15174677400
15174686250
15174694429
15174702912
15174711762
15174720368
15174727510
15174735200
15174744172
15174753755
15174760529
15174767060
15174776215
15174782136
15174790925
15174796967
15174806550
15174815644
15174821625
15174830720
15174836762
15174847077
15174852326
15174861848
15174869355
15174878205
15174883698
15174893586
15174900971
15174908356
15174915009
15174922150
15174930329
15174936493
15174944916
15174952057
15174958222
15174968048
15174974335
15174982819
15174989350
15174998749
15175006012
15175015473
15175022980
15175031098
15175039704
15175044830
15175054474
15175061676
15175070343
15175078217
15175086029
15175095429
15175103851
15175110443
15175119720
15175126068
15175132477
15175142609
15175148773
15175158478
15175166717
15175174652
15175183380
15175191131
15175198211
15175206329
15175216705
15175224273
15175229400
15175240570
15175248748
15175256561
15175264373
15175270904
15175278411
15175288177
15175295990
15175302825
15175310577
15175317291
15175324127
15175332183
15175339935
15175349151
15175355193
15175368194
15175376434
15175383697
15175390350
15175402312
15175409881
15175419524
15175425445
15175434112
15175440215
15175448699
15175456756
15175462920
15175471282
15175480803
15175489959
15175497893
15175504729
15175512969
15175521087
15175526824
15175537383
15175543059
15175553191
15175559356
15175568328
15175575713
15175582915
15175590483
15175599700
15175608245
15175615874
15175623931
15175631377
15175638762
15175646758
15175653044
15175661833
15175671050
15175678374
15175687529
15175693388
15175704008
15175708342
15175713896
15175719511
15175726225
15175730437
15175737089
15175741911
15175747526
15175752775
15175759367
15175764128
15175769560
15175776213
15175781279
15175785673
15175789641
15175796965
15175801237
15175808867
15175812956
15175819914
15175824431
15175831511
15175837614
15175842131
15175847075
15175854582
15175862822
15175870085
15175877104
15175884672
15175890592
15175895536
15175900236
15175906095
15175911222
15175917509
15175923490
15175929167
15175934110
15175938444
15175946073
15175952543
15175957060
15175962980
15175970915
15175975614
15175981290
15175986723
15175993253
15175999296
15176004240
15176012235
15176021452
15176030057
15176037870
15176045927
15176053800
15176060819
15176068571
15176076383
15176085355
15176095365
15176103849
15176111173
15176121732
15176129361
15176136686
15176144010
15176152188
15176161466
15176171109
15176177396
15176186063
15176195340
15176202664
15176209256
15176217923
15176227262
15176233670
15176244107
15176251798
15176259000
15176265408
15176275235
15176283780
15176295987
15176301724
15176312527
15176321255
15176329251
15176337491
15176343655
15176351163
15176363492
15176369473
15176380642
15176387295
15176395291
15176402859
15176410122
15176418606
15176431973
15176440335
15176454495
15176467068
15176476528
15176489651
15176498013
15176507290
15176516018
15176524807
15176531155
15176540249
15176548794
15176554775
15176565395
15176571682
15176580349
15176589077
15176598598
15176604580
15176614346
15176622646
15176630032
15176637722
15176645779
15176653347
15176660854
15176668423
15176674831
15176681484
15176690700
15176696987
15176704067
15176712185
15176720119
15176726650
15176735622
15176742275
15176751674
15176758327
15176766079
15176775295
15176783596
15176790431
15176799159
15176806606
15176814357
15176821742
15176829982
15176837184
15176846095
15176852870
15176861415
15176867946
15176874904
15176883449
15176891200
15176898769
15176906215
15176913478
15176922511
15176930019
15176939113
15176946925
15176954799
15176962916
15176972560
15176980128
15176985682
15176992579
15177002345
15177009791
15177017115
15177024745
15177032679
15177041163
15177048304
15177055201
15177064173
15177071986
15177078944
15177087123
15177097926
15177106166
15177114833
15177121546
15177128871
15177135035
15177143458
15177149439
15177157557
15177165919
15177174097
15177180018
15177187952
15177193873
15177201624
15177212366
15177218104
15177227137
15177233240
15177241663
15177249232
15177256312
15177263819
15177271753
15177280298
15177286280
15177293360
15177302515
15177309046
15177315943
15177324366
15177330225
15177340418
15177346033
15177354578
15177361048
15177369593
15177377893
15177385828
15177394678
15177404199
15177409937
15177418604
15177425867
15177436304
15177443506
15177450464
15177459192
15177466272
15177475183
15177481836
15177491602
15177497217
15177503931
15177507837
15177513696
15177518762
15177525110
15177530969
15177537134
15177541650
15177545740
15177552270
15177559289
15177563806
15177567163
15177575525
15177580469
15177586389
15177592492
15177598535
15177604150
15177608789
15177614343
15177620141
15177625268
15177629846
15177636132
15177640161
15177646814
15177651330
15177658471
15177662255
15177668420
15177678002
15177684228
15177689965
15177694848
15177701135
15177708703
15177713464
15177718591
15177724328
15177731225
15177735925
15177740258
15177747399
15177752099
15177759118
15177764672
15177772363
15177777490
15177787011
15177793481
15177799584
15177804467
15177813805
15177822716
15177828820
15177836449
15177843957
15177851464
15177860314
15177865563
15177874108
15177881310
15177891015
15177898827
15177907616
15177914025
15177920067
15177929589
15177935631
15177947167
15177954003
15177963524
15177971581
15177979393
15177984947
15177993737
15178001854
15178008507
15178015587
15178024071
15178030785
15178039330
15178046898
15178055992
15178063133
15178071983
15178078941
15178084801
15178095787
15178101952
15178110130
15178118309
15178125938
15178133995
15178141136
15178148460
15178157615
15178165611
15178173668
15178182884
15178190513
15178197349
15178205650
15178214195
15178221031
15178230003
15178236168
15178244163
15178251854
15178259910
15178267967
15178275901
15178285057
15178293235
15178300620
15178309226
15178315757
15178322288
15178332664
15178338828
15178348472
15178354026
15178363548
15178371604
15178382652
15178390586
15178400962
15178409385
15178417503
15178425559
15178434959
15178443564
15178452292
15178460837
15178469565
15178478660
15178487388
15178493552
15178503135
15178508262
15178519675
15178525534
15178534812
15178543479
15178552024
15178557761
15178566733
15178575522
15178585227
15178591452
15178601584
15178608298
15178616782
15178624472
15178633566
15178642844
15178652426
15178660971
15178667258
15178676230
15178682211
15178687704
15178698996
15178708517
15178715414
15178723959
15178730002
15178739889
15178745688
15178753195
15178762411
15178770895
15178779623
15178786642
15178794821
15178802572
15178809591
15178816122
15178825216
15178832968
15178841818
15178848471
15178857077
15178863363
15178871847
15178877890
15178887899
15178896993
15178903341
15178910848
15178917684
15178924825
15178933004
15178941000
15178948080
15178956442
15178963094
15178970663
15178979086
15178986898
15178993490
15179000326
15179009786
15179017354
15179025960
15179033773
15179040060
15179047872
15179053731
15179062276
15179071615
15179078573
15179085103
15179094442
15179102559
15179110921
15179117574
15179124959
15179136129
15179142171
15179151204
15179158101
15179164693
15179172994
15179179463
15179187093
15179197835
15179204549
15179211324
15179220174
15179226705
15179235127
15179241658
15179251973
15179260640
15179266927
15179272481
15179279317
15179285298
15179290852
15179295308
15179302571
15179309346
15179316060
15179320943
15179326802
15179332112
15179337666
15179342488
15179349690
15179354512
15179360798
15179366231
15179372212
15179378804
15179384419
15179389363
15179396077
15179402119
15179409810
15179414692
15179420247
15179426594
15179431782
15179436543
15179442646
15179447590
15179454304
15179459187
15179463337
15179469807
15179476033
15179481282
15179487507
15179493183
15179499653
15179504353
15179510578
15179517231
15179521320
15179527363
15179532856
15179538288
15179545368
15179550861
15179556049
15179562763
15179569416
15179577290
15179583881
15179593403
15179600788
15179607929
15179614277
15179623554
15179630268
15179638080
15179644489
15179652851
15179660358
15179669697
15179676288
15179683552
15179691730
15179698993
15179705707
15179715290
15179722553
15179730915
15179737445
15179746906
15179754230
15179761554
15179768268
15179775409
15179785663
15179791767
15179798358
15179808978
15179816669
15179823688
15179830341
15179838275
15179845660
15179855182
15179862628
15179869952
15179877399
15179884479
15179890704
15179900409
15179909198
15179918048
15179922809
15179934711
15179940692
15179948993
15179957049
15179965472
15179976336
15179982562
15179990313
15179998492
15180003863
15180013446
15180018878
15180031817
15180037677
15180048419
15180054400
15180063372
15180073504
15180079913
15180088214
15180096697
15180103350
15180113604
15180122149
15180128375
15180136981
15180142962
15180150225
15180158282
15180168047
15180174090
15180183245
15180189410
15180198016
15180205645
15180213335
15180219622
15180227556
15180235735
15180242144
15180249651
15180258196
15180264239
15180272905
15180279070
15180288958
15180295122
15180303850
15180311663
15180319414
15180325212
15180334612
15180341387
15180351030
15180357439
15180365435
15180373674
15180379595
15180387407
15180395098
15180404253
15180412004
15180418108
15180426347
15180435320
15180442278
15180448076
15180456865
15180466753
15180473955
15180480363
15180490739
15180497270
15180504655
15180512956
15180521196
15180528581
15180534440
15180544938
15180551591
15180560258
15180569047
15180575761
15180583879
15180592424
15180600541
15180610551
15180618974
15180631608
15180640397
15180654740
15180664994
15180674272
15180677323
15180689958
15180696977
15180705522
15180711686
15180720963
15180727128
15180734940
15180743424
15180752885
15180760026
15180768449
15180777604
15180785783
15180794572
15180803239
15180812211
15180819108
15180827592
15180835648
15180840958
15180849564
15180857255
15180867264
15180873307
15180884659
15180891129
15180901261
15180908768
15180917008
15180925980
15180934281
15180942459
15180951798
15180959244
15180967240
15180974503
15180982498
15180992081
15180998734
15181003311
15181009354
15181014359
15181020706
15181025467
15181031265
15181036148
15181042313
15181047257
15181053360
15181058243
15181064957
15181069534
15181073624
15181080521
15181085037
15181091995
15181096634
15181102920
15181107254
15181114212
15181118179
15181125137
15181130508
15181136307
15181142166
15181150162
15181158523
15181167557
15181174881
15181186355
15181193313
15181199234
15181205093
15181209549
15181216201
15181220962
15181227310
15181231765
15181237442
15181242996
15181248977
15181253921
15181260391
15181265457
15181271194
15181277114
15181282485
15181290054
15181297012
15181302749
15181311904
15181319290
15181328079
15181337295
15181343459
15181352309
15181359023
15181369033
15181375564
15181386611
15181391738
15181400832
15181407912
15181415969
15181425551
15181433669
15181440017
15181448867
15181456313
15181466323
15181473403
15181482497
15181492629
15181500014
15181508010
15181516555
15181524184
15181531874
15181540236
15181547377
15181557204
15181564467
15181572951
15181580336
15181590163
15181597182
15181607009
15181613539
15181618727
15181631300
15181636427
15181648573
15181654433
15181664259
15181671523
15181680434
15181687941
15181696181
15181704176
15181713637
15181720228
15181728407
15181735426
15181744642
15181751051
15181759352
15181769789
15181776503
15181786696
15181792860
15181800734
15181809462
15181817030
15181824293
15181832899
15181839857
15181849195
15181855665
15181865370
15181871778
15181877882
15181888380
15181897108
15181903700
15181912000
15181920240
15181928480
15181935987
15181943128
15181950330
15181959486
15181965833
15181974622
15181982923
15181989210
15181997816
15182004957
15182013074
15182020582
15182027906
15182036817
15182044202
15182052320
15182061719
15182068250
15182074781
15182085096
15182091443
15182100660
15182107496
15182116224
15182123914
15182132032
15182140027
15182147473
15182155225
15182162427
15182169080
15182179212
15182186780
15182193311
15182202466
15182210950
15182217053
15182225903
15182234448
15182242078
15182250439
15182257336
15182265088
15182272839
15182282422
15182290601
15182297986
15182306042
15182313367
15182323071
15182332043
15182338635
15182348218
15182355725
15182366345
15182371289
15182382885
15182391858
15182399121
15182407299
15182415844
15182424084
15182431591
15182439099
15182447521
15182455334
15182465222
15182472241
15182481823
15182491467
15182499828
15182506786
15182513317
15182523266
15182529736
15182540661
15182548779
15182555065
15182562572
15182569347
15182577343
15182585888
15182593578
15182602367
15182610119
15182616772
15182624157
15182630871
15182637646
15182645641
15182656383
15182665172
15182669994
15182679088
15182686351
15182693554
15182702098
15182709667
15182717723
15182726635
15182733837
15182741588
15182748302
15182758678
15182765209
15182771617
15182780467
15182789501
15182798229
15182801708
15182809398
15182815196
15182820018
15182825450
15182831188
15182838084
15182844188
15182848155
15182854015
15182859996
15182866283
15182870738
15182877635
15182881786
15182889232
15182893077
15182900218
15182904857
15182911815
15182916270
15182922984
15182927745
15182934764
15182939097
15182945933
15182951426
15182957164
15182960826
15182967723
15182973643
15182980174
15182983775
15182991221
15182994761
15183001292
15183006236
15183013499
15183019725
15183024607
15183029002
15183036021
15183043101
15183047557
15183053904
15183060435
15183067637
15183071604
15183079478
15183085032
15183089610
15183095225
15183103343
15183110545
15183118357
15183125315
15183134837
15183141489
15183152232
15183159190
15183165720
15183177256
15183184153
15183192881
15183201609
15183209605
15183218271
15183227610
15183235972
15183243357
15183250498
15183257822
15183267527
15183274363
15183280954
15183290598
15183299631
15183305613
15183313852
15183321848
15183330942
15183336191
15183346750
15183354868
15183362436
15183369577
15183378671
15183386057
15183393503
15183403085
15183409799
15183419016
15183427805
15183434885
15183443857
15183450327
15183456369
15183466989
15183475717
15183483469
15183491830
15183499094
15183506296
15183515695
15183523508
15183533639
15183541330
15183549081
15183558175
15183564950
15183571420
15183580392
15183589120
15183599191
15183608407
15183614999
15183626596
15183635446
15183642526
15183651132
15183659616
15183667733
15183675363
15183683969
15183694283
15183699227
15183709237
15183716317
15183724191
15183733590
15183739999
15183749154
15183759591
15183766061
15183775460
15183782052
15183788155
15183798043
15183804635
15183814217
15183822457
15183830391
15183839242
15183846993
15183854256
15183862801
15183870491
15183877938
15183885262
15183895699
15183903572
15183910286
15183919686
15183928475
15183938423
15183944588
15183953804
15183961678
15183969368
15183977425
15183985909
15183993904
15184001656
15184007515
15184017525
15184024666
15184034615
15184041389
15184050972
15184058174
15184068977
15184075508
15184085457
15184094490
15184102669
15184110847
15184117012
15184124946
15184132881
15184141731
15184150093
15184157661
15184166084
15184173896
15184181343
15184190681
15184197822
15184204719
15184213874
15184220588
15184229316
15184236213
15184242134
15184251045
15184259162
15184265815
15184273933
15184283027
15184290107
15184298103
15184305488
15184313972
15184323737
15184328925
15184337836
15184346931
15184353889
15184363349
15184370002
15184379157
15184385627
15184394904
15184402900
15184412848
15184418952
15184431098
15184437018
15184445319
15184454169
15184463324
15184471381
15184479071
15184486396
15184495063
15184502265
15184511725
15184519477
15184529975
15184542243
15184551337
15184560431
15184573371
15184584845
15184591498
15184597418
15184606452
15184613043
15184622626
15184629523
15184638190
15184643805
15184650519
15184655280
15184661017
15184664984
15184670782
15184676092
15184681280
15184686346
15184692572
15184696783
15184702826
15184707892
15184713385
15184721869
15184727240
15184733771
15184741156
15184746832
15184752020
15184759161
15184764349
15184770208
15184775580
15184782049
15184787298
15184791754
15184797918
15184802557
15184809332
15184815435
15184822576
15184827520
15184834967
15184838751
15184846868
15184853521
15184859136
15184864202
15184868414
15184872930
15184879644
15184885015
15184890936
15184895513
15184900091
15184905889
15184911443
15184916204
15184923162
15184928472
15184935918
15184941900
15184950872
15184957586
15184963689
15184972051
15184980840
15184989141
15184997259
15185004827
15185012700
15185020574
15185028020
15185037053
15185044011
15185049932
15185059331
15185068303
15185076970
15185086126
15185092412
15185100469
15185108647
15185116460
15185124822
15185133550
15185142278
15185147466
15185156804
15185164128
15185174077
15185181340
15185189275
15185198796
15185206365
15185215764
15185222112
15185230717
15185238469
15185247197
15185253423
15185264043
15185270207
15185278874
15185286931
15185295659
15185300908
15185310002
15185317143
15185326176
15185333928
15185342900
15185353215
15185361516
15185368840
15185376225
15185385624
15185394047
15185400822
15185409550
15185418156
15185424382
15185432621
15185440800
15185450077
15185455570
15185465824
15185475346
15185483219
15185492130
15185499943
15185507816
15185517277
15185524296
15185532597
15185540043
15185549992
15185557316
15185565861
15185572452
15185581730
15185587711
15185597294
15185604801
15185614445
15185621464
15185629581
15185638248
15185644352
15185653812
15185659671
15185669498
15185675724
15185685550
15185693180
15185701419
15185712528
15185723392
15185736087
15185747318
15185754642
15185763187
15185770572
15185777225
15185786197
15185792362
15185800540
15185810062
15185816043
15185826114
15185834171
15185840457
15185848636
15185856082
15185863711
15185871280
15185879947
15185888125
15185895816
15185902652
15185909427
15185917361
15185923404
15185932437
15185943179
15185949832
15185958499
15185964114
15185972903
15185980349
15185986331
15185994937
15186002200
15186012576
15186019412
15186027468
15186035525
15186043337
15186049502
15186056521
15186065066
15186072939
15186083132
15186087832
15186097842
15186104434
15186112246
15186118777
15186126833
15186134524
15186143740
15186149905
15186158755
15186164858
15186173098
15186181399
15186187136
15186195925
15186202639
15186211489
15186216555
15186226137
15186233645
15186242190
15186247683
15186256899
15186265566
15186274904
15186283815
15186291201
15186300478
15186310976
15186319826
15186327089
15186335451
15186345949
15186350832
15186360658
15186368471
15186374391
15186384523
15186391420
15186399049
15186407900
15186415590
15186421266
15186427492
15186433656
15186438600
15186443300
15186450868
15186457277
15186461854
15186467409
15186471620
15186476808
15186482667
15186487306
15186493288
15186498475
15186502626
15186507265
15186513002
15186518312
15186522218
15186527101
15186531434
15186537599
15186543336
15186547914
15186551881
15186557863
15186563600
15186567384
15186573243
15186579164
15186584962
15186589173
15186595155
15186599000
15186605226
15186610963
15186615785
15186621705
15186626405
15186630860
15186638063
15186643312
15186647950
15186653749
15186659059
15186663941
15186670594
15186675294
15186682313
15186686341
15186690370
15186698609
15186705994
15186712830
15186721375
15186730042
15186738892
15186745789
15186753175
15186760071
15186767213
15186775574
15186783570
15186791138
15186797181
15186806214
15186812501
15186820862
15186827210
15186835267
15186844178
15186851929
15186858216
15186863953
15186873963
15186880127
15186887940
15186897461
15186904175
15186913941
15186922730
15186930481
15186937805
15186942688
15186952332
15186959168
15186967163
15186975098
15186986450
15186995056
15187006470
15187014404
15187025452
15187034851
15187043579
15187051819
15187059204
15187065735
15187072388
15187079529
15187086914
15187094787
15187102173
15187110168
15187117553
15187125244
15187132568
15187139648
15187145813
15187153137
15187161255
15187172241
15187183349
15187192627
15187202270
15187207519
15187218261
15187226135
15187231567
15187241149
15187247863
15187254821
15187260986
15187267516
15187275817
15187282531
15187293090
15187300597
15187308837
15187317016
15187324035
15187330932
15187337951
15187346496
15187353393
15187361083
15187369811
15187378783
15187386169
15187392272
15187400573
15187406493
15187414184
15187422423
15187430968
15187438476
15187446654
15187454528
15187460021
15187469115
15187475768
15187483275
15187490783
15187499816
15187506957
15187514769
15187520995
15187529662
15187535643
15187544676
15187552001
15187557494
15187567931
15187574217
15187584593
15187590453
15187599669
15187604918
15187614561
15187622252
15187628477
15187635069
15187643736
15187650633
15187658079
15187666502
15187674376
15187681517
15187686888
15187696165
15187701781
15187713438
15187719725
15187728331
15187736265
15187742674
15187751219
15187759520
15187766966
15187773497
15187781065
15187789244
15187796202
15187804502
15187812498
15187820860
15187827940
15187836668
15187842893
15187852537
15187859129
15187867063
15187875791
15187881712
15187889829
15187898252
15187907041
15187915159
15187922056
15187930051
15187940000
15187949277
15187956113
15187963926
15187971799
15187979429
15187986692
15187993894
15188001706
15188011960
15188018735
15188025510
15188032895
15188039426
15188048398
15188054563
15188061521
15188070493
15188077390
15188083799
15188092710
15188098752
15188107419
15188113950
15188122129
15188126340
15188132321
15188136899
15188142331
15188147946
15188153012
15188157712
15188161069
15188170712
15188176877
15188181943
15188185178
15188190854
15188195798
15188202084
15188206479
15188212582
15188218503
15188224057
15188228390
15188232297
15188238705
15188244382
15188248776
15188253842
15188259335
15188263486
15188271359
15188275265
15188279782
15188284543
15188290646
15188295712
15188301083
15188307675
15188314267
15188318783
15188323849
15188328915
15188334347
15188338498
15188344174
15188348813
15188356137
15188360959
15188364743
15188371945
15188375790
15188381527
15188386593
15188392208
15188398739
15188405392
15188413204
15188419491
15188426022
15188433712
15188442684
15188449459
15188456906
15188467098
15188474484
15188481808
15188488522
15188498715
15188506405
15188514584
15188524349
15188527401
15188539669
15188545528
15188552792
15188561581
15188567989
15188574886
15188584102
15188593441
15188601375
15188609371
15188615719
15188625118
15188631710
15188641781
15188649837
15188656490
15188665279
15188671810
15188680416
15188686946
15188692195
15188702449
15188710262
15188718318
15188724300
15188734249
15188739498
15188747554
15188754085
15188759883
15188772212
15188775630
15188786922
15188793758
15188802486
15188810909
15188817683
15188823848
15188832454
15188840327
15188846980
15188855464
15188863582
15188868892
15188877254
15188884334
15188893184
15188899714
15188908320
15188914851
15188923945
15188931086
15188937312
15188946528
15188952937
15188962825
15188967952
15188978633
15188985713
15188994624
15188999873
15189008418
15189015864
15189023921
15189031306
15189038935
15189048579
15189056880
15189063960
15189070918
15189077509
15189086848
15189093379
15189101435
15189110163
15189116755
15189125422
15189131708
15189140009
15189148554
15189155695
15189163874
15189170588
15189180109
15189187983
15189195002
15189202509
15189209467
15189218439
15189224726
15189233271
15189240412
15189249811
15189256403
15189264460
15189271479
15189280634
15189289057
15189296869
15189305414
15189314142
15189322382
15189331415
15189340204
15189349359
15189356195
15189364374
15189372919
15189381708
15189390924
15189397577
15189405878
15189414728
15189422906
15189432428
15189441217
15189447076
15189458856
15189467401
15189475213
15189483880
15189492242
15189500299
15189508355
15189517328
15189525018
15189532403
15189541009
15189548028
15189556512
15189563409
15189573358
15189579888
15189588861
15189597345
15189606622
15189612847
15189621575
15189628655
15189636773
15189645562
15189654534
15189662164
15189669793
15189678094
15189685296
15189694390
15189700921
15189709954
15189716424
15189725945
15189735100
15189741082
15189748711
15189757073
15189765191
15189772332
15189781548
15189789055
15189797051
15189803582
15189813103
15189819573
15189829827
15189836480
15189846184
15189852776
15189858818
15189869255
15189874321
15189881951
15189885369
15189891350
15189896416
15189904412
15189911431
15189917656
15189923271
15189928948
15189933403
15189938774
15189945427
15189949516
15189955864
15189962151
15189967827
15189972954
15189979424
15189985344
15189990044
15189995415
15190002129
15190007561
15190014458
15190019768
15190025078
15190029594
15190036003
15190042290
15190046501
15190053886
15190061333
15190065849
15190075188
15190080253
15190082634
15190093681
15190098564
15190104851
15190109916
15190116325
15190120964
15190126945
15190132499
15190138420
15190144706
15190150871
15190159477
15190165275
15190169731
15190177543
15190184867
15190192985
15190200798
15190209770
15190217399
15190225456
15190231925
15190240775
15190247856
15190253776
15190264640
15190270866
15190280814
15190289787
15190297965
15190303825
15190312614
15190319694
15190328300
15190338065
15190345206
15190351859
15190361991
15190368400
15190377189
15190383842
15190393851
15190400382
15190409049
15190418204
15190424552
15190432975
15190440177
15190450309
15190458060
15190465384
15190473258
15190480643
15190490714
15190498648
15190505606
15190515738
15190522208
15190528311
15190538016
15190544486
15190555533
15190562064
15190571768
15190579886
15190588248
15190593619
15190603568
15190610892
15190618765
15190626334
15190634878
15190642020
15190651358
15190657950
15190664053
15190674368
15190680411
15190689932
15190698782
15190705435
15190712637
15190720266
15190730032
15190738394
15190745718
15190753775
15190760794
15190771048
15190777273
15190783560
15190794058
15190800283
15190809439
15190815603
15190826528
15190835623
15190842642
15190851309
15190859243
15190867178
15190876211
15190884451
15190891409
15190902151
15190913015
15190921560
15190928701
15190938161
15190944631
15190951528
15190960988
15190970083
15190976247
15190986501
15190992788
15191002065
15191010305
15191017568
15191025747
15191037465
15191046315
15191054372
15191061513
15191071279
15191078603
15191087636
15191094045
15191103993
15191111074
15191119985
15191126515
15191136281
15191143117
15191151357
15191159169
15191167897
15191175465
15191182729
15191191457
15191198842
15191207509
15191216908
15191224416
15191230885
15191237111
15191247914
15191257069
15191265919
15191274830
15191281788
15191287892
15191297780
15191306080
15191313282
15191320546
15191330372
15191338551
15191346730
15191354176
15191361378
15191367909
15191377858
15191385365
15191393910
15191402394
15191411244
15191418385
15191426563
15191434010
15191442066
15191453236
15191461598
15191470570
15191476307
15191486744
15191494617
15191501575
15191509266
15191518299
15191526417
15191535877
15191543262
15191551563
15191557789
15191568104
15191574756
15191584095
15191593311
15191600391
15191609729
15191619129
15191626148
15191634143
15191644153
15191650440
15191659290
15191667469
15191674610
15191683521
15191690418
15191697742
15191706287
15191713794
15191718128
15191724475
15191730274
15191735584
15191739856
15191747791
15191752857
15191759265
15191765613
15191770862
15191779407
15191785999
15191790027
15191796741
15191801807
15191808215
15191814197
15191820117
15191827014
15191832812
15191838306
15191845691
15191850696
15191856616
15191862964
15191867419
15191873889
15191878222
15191884875
15191889758
15191895862
15191901538
15191906726
15191912463
15191918628
15191925525
15191929858
15191934985
15191940783
15191946032
15191952197
15191957141
15191962390
15191968859
15191975207
15191980151
15191985949
15191991748
15191997912
15192002917
15192004809
15192016039
15192025256
15192032275
15192041613
15192048266
15192056262
15192063769
15192070910
15192079821
15192087084
15192095019
15192104906
15192112841
15192121874
15192131640
15192140368
15192152514
15192164843
15192173083
15192182970
15192188952
15192198839
15192207567
15192214953
15192223436
15192230578
15192239061
15192248095
15192256151
15192263231
15192270739
15192281237
15192289171
15192297350
15192305101
15192312975
15192323351
15192330431
15192340685
15192347093
15192357286
15192364061
15192375108
15192382249
15192392748
15192400987
15192407762
15192416734
15192425951
15192434190
15192440904
15192448228
15192457078
15192464403
15192473863
15192480882
15192489549
15192496568
15192505540
15192515794
15192522447
15192532335
15192539293
15192547898
15192555467
15192564195
15192571397
15192582078
15192589830
15192597764
15192607163
15192614305
15192624192
15192632920
15192639817
15192651475
15192659104
15192670335
15192678025
15192686204
15192693589
15192703294
15192712022
15192718674
15192728257
15192734605
15192744309
15192752732
15192759751
15192766892
15192775559
15192782761
15192790879
15192800950
15192809861
15192817246
15192825791
15192832261
15192842148
15192848862
15192858261
15192865525
15192875107
15192882065
15192890305
15192897873
15192906296
15192913803
15192921189
15192931381
15192939011
15192946640
15192953110
15192962814
15192969894
15192978134
15192986740
15192995895
15193005661
15193011826
15193021591
15193027695
15193036178
15193044479
15193052658
15193059799
15193067917
15193075241
15193084213
15193093307
15193100998
15193107895
15193117599
15193124130
15193130417
15193141708
15193151657
15193158859
15193167770
15193176376
15193182479
15193191574
15193200241
15193208908
15193214218
15193223800
15193231490
15193239242
15193245895
15193256332
15193262862
15193271896
15193280502
15193290878
15193297469
15193306747
15193315353
15193323592
15193329879
15193337447
15193346236
15193356551
15193364486
15193373946
15193382125
15193390059
15193396956
15193407271
15193415084
15193425277
15193434249
15193440413
15193450301
15193456404
15193466170
15193474715
15193482955
15193493941
15193502669
15193510054
15193518172
15193527266
15193535323
15193544661
15193551619
15193559615
15193566573
15193571455
15193577010
15193581526
15193588850
15193593672
15193600752
15193607710
15193613203
15193617659
15193623640
15193628828
15193635115
15193639632
15193645247
15193651045
15193657515
15193662581
15193667647
15193674483
15193679426
15193685286
15193690901
15193696211
15193700972
15193706831
15193713301
15193719282
15193723799
15193729353
15193735762
15193739485
15193746992
15193750593
15193758100
15193761885
15193768843
15193773847
15193779463
15193784284
15193790632
15193797468
15193802107
15193809370
15193813825
15193819868
15193826582
15193831342
15193836286
15193843244
15193851118
15193856794
15193862592
15193869367
15193875715
15193885236
15193891523
15193900617
15193909284
15193915021
15193925153
15193931928
15193941633
15193950239
15193956708
15193965314
15193974103
15193981794
15193994001
15194003827
15194012738
15194018171
15194027814
15194035138
15194045270
15194052655
15194060590
15194068585
15194077008
15194086957
15194094037
15194101605
15194111920
15194122357
15194133283
15194141156
15194149762
15194156476
15194166791
15194173566
15194179608
15194189374
15194194440
15194207257
15194213666
15194222089
15194231122
15194239606
15194248761
15194256634
15194264874
15194274701
15194280072
15194290082
15194298138
15194309979
15194317547
15194327496
15194336712
15194344281
15194350811
15194360394
15194367291
15194375897
15194382489
15194390057
15194398113
15194408611
15194415631
15194423260
15194429302
15194438152
15194443951
15194451763
15194461224
15194467754
15194476910
15194485821
15194492107
15194499432
15194507610
15194512432
15194523174
15194531536
15194539715
15194547466
15194554180
15194561199
15194570232
15194576763
15194583050
15194593242
15194600567
15194609478
15194616375
15194622966
15194631511
15194639873
15194645305
15194652629
15194660320
15194669780
15194675395
15194685039
15194690837
15194700237
15194705425
15194714458
15194721660
15194729961
15194736614
15194744670
15194751872
15194760539
15194767070
15194775066
15194782085
15194790996
15194797649
15194806865
15194812785
15194821635
15194828044
15194835734
15194844584
15194853740
15194860332
15194868449
15194875468
15194881999
15194891215
15194899211
15194905986
15194914347
15194923381
15194930461
15194939921
15194947123
15194954509
15194963542
15194972026
15194982218
15194989421
15194997904
15195005839
15195014262
15195021952
15195030314
15195037272
15195048747
15195057963
15195064310
15195074625
15195079935
15195090433
15195099345
15195108256
15195117106
15195124491
15195132792
15195140482
15195148661
15195155985
15195164957
15195173502
15195181803
15195188822
15195195963
15195205362
15195211100
15195221415
15195228983
15195236368
15195244913
15195252054
15195259439
15195269449
15195274881
15195285623
15195294535
15195302347
15195312235
15195320841
15195329080
15195336099
15195341409
15195347208
15195352457
15195357706
15195366739
15195371683
15195376993
15195383218
15195388101
15195394754
15195401224
15195405618
15195411539
15195418375
15195424112
15195429056
15195433877
15195439737
15195444436
15195451333
15195458047
15195464151
15195468606
15195474893
15195481424
15195485879
15195492166
15195497720
15195502542
15195508950
15195513894
15195518899
15195524881
15195530313
15195535745
15195542092
15195547280
15195552102
15195556253
15195564004
15195568399
15195574197
15195579812
15195585855
15195591470
15195597878
15195603433
15195609048
15195612710
15195619912
15195624978
15195630593
15195637002
15195645913
15195653848
15195659768
15195666177
15195671059
15195676308
15195683083
15195688393
15195696511
15195703042
15195709023
15195713967
15195719216
15195724282
15195731728
15195738381
15195744240
15195749001
15195756753
15195761391
15195768410
15195773293
15195778786
15195784768
15195790261
15195796303
15195803078
15195808754
15195813088
15195817543
15195823647
15195828225
15195834328
15195839272
15195846047
15195851479
15195855995
15195861183
15195866310
15195872292
15195877358
15195883950
15195890297
15195894936
15195901100
15195906349
15195911537
15195916054
15195920326
15195928566
15195932961
15195940163
15195944313
15195950356
15195956459
15195962135
15195967934
15195974953
15195981850
15195986366
15195991798
15195998207
15196004005
15196009376
15196014686
15196020485
15196027199
15196032631
15196037636
15196043861
15196048683
15196054603
15196059486
15196066322
15196071693
15196078834
15196083656
15196090858
15196095436
15196099525
15196107032
15196111671
15196118324
15196125099
15196131568
15196135841
15196141883
15196146888
15196151832
15196157386
15196161659
15196166847
15196173133
15196178199
15196183570
15196188392
15196194374
15196198829
15196205848
15196212013
15196219276
15196225135
15196230506
15196238136
15196244361
15196249122
15196253455
15196262305
15196268653
15196274024
15196279029
15196285133
15196290321
15196294898
15196301612
15196306861
15196314551
15196320533
15196326514
15196332923
15196339515
15196345130
15196351233
15196357459
15196364478
15196370398
15196376075
15196381507
15196387610
15196393470
15196398719
15196405799
15196413245
15196418372
15196423499
15196428748
15196433692
15196439002
15196448584
15196453345
15196460730
15196465003
15196472205
15196476599
15196483130
15196489661
15196497290
15196506018
15196510962
15196515296
15196522925
15196528662
15196533179
15196538977
15196545264
15196549414
15196556799
15196563025
15196568823
15196573828
15196578833
15196585425
15196590430
15196597449
15196603552
15196608313
15196613440
15196619787
15196625647
15196629919
15196636206
15196641211
15196645300
15196656408
15196661108
15196666906
15196673071
15196677710
15196683752
15196688513
15196694677
15196701025
15196707129
15196712378
15196717993
15196723364
15196728674
15196736669
15196744238
15196749731
15196754858
15196760168
15196765173
15196772253
15196777441
15196783056
15196789221
15196794775
15196799719
15196806982
15196811926
15196818395
15196822790
15196832189
15196842260
15196855566
15196861913
15196874181
15196880285
15196890234
15196898046
15196906835
15196916112
15196926610
15196939855
15196952306
15196964208
15196974096
15196985936
15196996740
15197005651
15197014684
15197021520
15197032323
15197041600
15197049413
15197057347
15197066930
15197075597
15197083592
15197092565
15197100377
15197108434
15197116002
15197125707
15197133946
15197141881
15197150304
15197158849
15197166661
15197176671
15197184239
15197197118
15197215489
15197233922
15197253636
15197272435
15197291844
15197311192
15197328221
15197348728
15197366551
15197377171
15197384739
15197391819
15197399449
15197416782
15197433994
15197452732
15197469822
15197477268
15197486790
15197494358
15197503147
15197511997
15197519443
15197527866
15197535251
15197543552
15197551487
15197560032
15197568821
15197577244
15197585056
15197592807
15197600254
15197607700
15197616855
15197624363
15197631931
15197641819
15197648105
15197657199
15197663486
15197673801
15197681491
15197690647
15197698825
15197704929
15197714816
