8376832742
8376838418
8376841897
8376849465
8376854287
8376859536
8376864968
8376870156
8376875527
8376881692
8376886819
8376892312
8376899331
8376904397
8376910317
8376916543
8376921243
8376928078
8376935097
8376940896
8376947793
8376952676
8376959817
8376967263
8376973672
8376979897
8376984658
8376993264
8376999489
8377006020
8377013222
8377019143
8377024819
8377036171
8377040993
8377050026
8377056374
8377063027
8377069863
8377080910
8377088539
8377096901
8377104836
8377113442
8377120644
8377128029
8377135292
8377143776
8377152809
8377161110
8377167458
8377175087
8377180885
8377188881
8377194862
8377204262
8377211647
8377218361
8377225258
8377231728
8377238625
8377246864
8377254066
8377260536
8377266701
8377274818
8377280556
8377288795
8377294166
8377302406
8377308265
8377317360
8377323219
8377329139
8377336952
8377344459
8377352821
8377361671
8377368995
8377376381
8377383400
8377391822
8377398841
8377406288
8377413490
8377421363
8377428504
8377434913
8377443885
8377452186
8377459449
8377466102
8377475135
8377481361
8377490272
8377495704
8377502662
8377512183
8377519386
8377525489
8377533729
8377542823
8377548499
8377557471
8377563758
8377569984
8377578895
8377585181
8377594398
8377601661
8377609778
8377617042
8377623511
8377633033
8377639686
8377646949
8377656043
8377664344
8377671546
8377678687
8377686682
8377693824
8377702002
8377709265
8377716468
8377723731
8377732459
8377739112
8377746375
8377753638
8377760657
8377769751
8377777747
8377785742
8377791846
8377802771
8377810584
8377817541
8377825293
8377833594
8377846960
8377854529
8377864416
8377872290
8377879309
8377886938
8377894873
8377902258
8377910376
8377919165
8377926001
8377933203
8377940283
8377947424
8377954809
8377963659
8377970312
8377977392
8377986731
8377993627
8378002111
8378008642
8378017675
8378025427
8378031408
8378038366
8378044653
8378053381
8378059973
8378070287
8378078222
8378085790
8378092931
8378101171
8378108312
8378114965
8378122228
8378129980
8378137060
8378145116
8378152502
8378160497
8378167882
8378176244
8378183446
8378191198
8378198217
8378204198
8378213231
8378219884
8378226964
8378234716
8378241735
8378249059
8378257909
8378266576
8378274083
8378281041
8378288365
8378294835
8378301366
8378310277
8378316808
8378325048
8378331212
8378337621
8378344335
8378350743
8378360021
8378367528
8378377293
8378383885
8378391942
8378398473
8378406041
8378413182
8378425023
8378433018
8378439244
8378447423
8378454137
8378463231
8378471898
8378479100
8378487584
8378494725
8378502415
8378509434
8378517735
8378525059
8378537266
8378547581
8378557713
8378566136
8378578465
8378590000
8378598484
8378607151
8378613499
8378619908
8378628819
8378635349
8378644138
8378650974
8378657505
8378664036
8378671238
8378677891
8378685947
8378692478
8378701023
8378706944
8378715122
8378721165
8378727573
8378734714
8378742893
8378750217
8378759067
8378765415
8378774937
8378783726
8378789829
8378799595
8378806308
8378814121
8378822910
8378830478
8378838352
8378846164
8378853977
8378861850
8378869602
8378875400
8378884372
8378891452
8378899509
8378905979
8378914035
8378920993
8378928806
8378935642
8378944126
8378951145
8378959506
8378966647
8378975559
8378983005
8378991000
8378994052
8379004428
8379011691
8379021213
8379027621
8379035129
8379041598
8379050448
8379058932
8379065097
8379074191
8379081820
8379091708
8379096774
8379106540
8379114352
8379120456
8379128268
8379134311
8379144198
8379152926
8379159518
8379168856
8379178195
8379184909
8379191867
8379198580
8379209017
8379217990
8379225314
8379234103
8379245150
8379255465
8379262606
8379269503
8379277499
8379286837
8379293124
8379299715
8379307528
8379313143
8379319247
8379326510
8379332674
8379339937
8379346407
8379353670
8379359835
8379365633
8379371798
8379379549
8379385714
8379390597
8379398348
8379403963
8379411776
8379416597
8379424288
8379429537
8379435701
8379444185
8379449923
8379455904
8379463778
8379469332
8379476412
8379484529
8379490328
8379497835
8379504549
8379510897
8379516695
8379523042
8379529817
8379536897
8379546114
8379552828
8379558260
8379566194
8379573213
8379579012
8379584932
8379591524
8379599153
8379605989
8379612154
8379620637
8379626741
8379633760
8379639741
8379646516
8379654146
8379663118
8379669221
8379676118
8379684236
8379690400
8379696382
8379703279
8379711091
8379717866
8379725129
8379732148
8379738557
8379745393
8379753267
8379760102
8379766938
8379776277
8379782746
8379790193
8379796907
8379803926
8379810090
8379818574
8379823884
8379832795
8379839631
8379846223
8379854890
8379861482
8379867829
8379876923
8379884797
8379892609
8379899201
8379907563
8379918061
8379925141
8379933076
8379941315
8379948395
8379957795
8379962556
8379972138
8379977936
8379984955
8379993256
8380000031
8380006196
8380014863
8380021637
8380028595
8380034272
8380041047
8380049103
8380055817
8380061921
8380069062
8380076996
8380084503
8380091095
8380098664
8380106476
8380113922
8380120880
8380128449
8380135651
8380142365
8380149628
8380156281
8380162994
8380169830
8380177338
8380186981
8380193939
8380201813
8380208954
8380216400
8380223846
8380230438
8380237945
8380245209
8380252838
8380259369
8380266937
8380275360
8380282928
8380289215
8380295929
8380303619
8380310577
8380319854
8380326446
8380333343
8380341400
8380348297
8380355255
8380362701
8380372222
8380379119
8380385406
8380394866
8380401824
8380409454
8380415374
8380423004
8380430999
8380438873
8380446014
8380454131
8380461150
8380468536
8380478851
8380484161
8380491668
8380502288
8380507598
8380518584
8380526214
8380533660
8380541900
8380547820
8380556060
8380563628
8380572356
8380580352
8380587737
8380596221
8380603362
8380611113
8380619536
8380627105
8380633269
8380643645
8380649993
8380658232
8380665923
8380675566
8380683745
8380693022
8380701934
8380712004
8380722136
8380729949
8380736662
8380744475
8380752898
8380761443
8380769316
8380777007
8380785246
8380792754
8380798796
8380806364
8380813383
8380820952
8380829436
8380837187
8380844145
8380852019
8380859343
8380865874
8380874235
8380880705
8380889006
8380895781
8380903654
8380909880
8380916105
8380923246
8380929594
8380938017
8380944609
8380951628
8380958647
8380966276
8380976408
8380983427
8380991606
8380998625
8381008634
8381015898
8381022184
8381031828
8381038236
8381045805
8381054472
8381059293
8381069120
8381076566
8381083891
8381092069
8381100248
8381108915
8381117643
8381125944
8381133207
8381140897
8381148527
8381155668
8381163480
8381172025
8381180753
8381187589
8381197843
8381204435
8381212613
8381219388
8381227811
8381235563
8381243802
8381250943
8381258268
8381265592
8381277860
8381285489
8381292813
8381300565
8381307218
8381315518
8381323026
8381331387
8381339993
8381346524
8381354703
8381363126
8381371793
8381377103
8381384549
8381393460
8381401028
8381411038
8381418423
8381423917
8381434354
8381440274
8381448453
8381455472
8381463894
8381472134
8381485074
8381492337
8381501309
8381510159
8381518460
8381524990
8381533413
8381541226
8381550625
8381558255
8381569912
8381578091
8381585171
8381590603
8381600308
8381607388
8381617336
8381625881
8381631741
8381639736
8381647183
8381655727
8381663418
8381670803
8381678494
8381687099
8381692593
8381701321
8381708828
8381715298
8381722988
8381730068
8381737575
8381745754
8381753261
8381759304
8381765957
8381773525
8381780239
8381789455
8381796291
8381805813
8381812526
8381819729
8381828273
8381835659
8381842495
8381849330
8381856411
8381865932
8381872158
8381879848
8381887905
8381895778
8381902370
8381910488
8381917568
8381925807
8381932765
8381940028
8381947719
8381956935
8381964565
8381971828
8381980678
8381987453
8381995570
8382004054
8382012111
8382019862
8382024867
8382033778
8382041163
8382048549
8382058436
8382066005
8382072963
8382079555
8382085170
8382093348
8382098903
8382105555
8382114283
8382122279
8382129176
8382133204
8382141383
8382146998
8382153712
8382159266
8382166529
8382173243
8382178309
8382185572
8382191310
8382197352
8382203211
8382210841
8382216883
8382222560
8382230128
8382236048
8382242945
8382248866
8382255457
8382261805
8382272486
8382278101
8382285670
8382292628
8382299281
8382306238
8382313258
8382320887
8382326014
8382333277
8382337610
8382344568
8382348963
8382354517
8382361902
8382366907
8382372767
8382379664
8382384546
8382391260
8382396082
8382404017
8382409510
8382415186
8382420679
8382425928
8382432764
8382437647
8382444544
8382449305
8382456507
8382461023
8382467859
8382472254
8382479090
8382484278
8382491968
8382498865
8382503992
8382511072
8382516870
8382522669
8382528833
8382534326
8382542078
8382548608
8382553674
8382560877
8382566614
8382573084
8382578882
8382585168
8382591150
8382597925
8382603601
8382610315
8382615869
8382622217
8382627893
8382634546
8382639795
8382645410
8382651330
8382657861
8382665735
8382670740
8382679101
8382685266
8382691675
8382697900
8382703515
8382711267
8382714563
8382722680
8382731164
8382737268
8382742944
8382749047
8382755639
8382762048
8382768457
8382774011
8382783288
8382789697
8382797021
8382803308
8382809838
8382816064
8382822595
8382828820
8382835107
8382843041
8382852319
8382859399
8382866052
8382873376
8382880334
8382886620
8382893151
8382899621
8382910851
8382916344
8382921960
8382929040
8382936730
8382942345
8382950341
8382956688
8382963830
8382969994
8382975487
8382981713
8382989098
8382995507
8383001366
8383007714
8383014794
8383021019
8383026818
8383034569
8383040184
8383046471
8383054283
8383060631
8383067284
8383073571
8383079491
8383087731
8383093346
8383099449
8383106957
8383112816
8383118736
8383126732
8383131737
8383138023
8383146568
8383152245
8383160240
8383166405
8383172325
8383179832
8383185326
8383192528
8383197960
8383205406
8383210899
8383216514
8383223900
8383229759
8383236961
8383242821
8383248558
8383256553
8383262169
8383267967
8383276634
8383283104
8383288719
8383295921
8383302208
8383309959
8383317100
8383323387
8383329673
8383336692
8383342979
8383349754
8383356285
8383363609
8383370323
8383376060
8383382286
8383389244
8383395469
8383400962
8383408958
8383413841
8383420066
8383428489
8383433616
8383441917
8383449424
8383455833
8383463340
8383467185
8383475913
8383482932
8383492271
8383501792
8383508567
8383516807
8383527305
8383534629
8383542441
8383549766
8383557273
8383562888
8383569602
8383579184
8383586265
8383594504
8383598777
8383607383
8383614341
8383621787
8383628684
8383634055
8383640525
8383649619
8383655600
8383661887
8383669821
8383677512
8383683798
8383690024
8383698752
8383703696
8383713889
8383720847
8383726645
8383734091
8383741843
8383749350
8383756552
8383764243
8383772299
8383780051
8383788351
8383793967
8383802450
8383810080
8383816183
8383824484
8383835226
8383844198
8383851523
8383858969
8383869955
8383878805
8383886374
8383893576
8383900412
8383905722
8383912985
8383919394
8383925314
8383931356
8383938314
8383945089
8383951071
8383957907
8383963888
8383971029
8383977743
8383983847
8383990255
8383997335
8384002523
8384009725
8384016805
8384021078
8384029928
8384036947
8384043111
8384051168
8384057394
8384064352
8384070638
8384076864
8384083150
8384090292
8384096456
8384101522
8384109579
8384115621
8384122640
8384130453
8384138082
8384146322
8384153890
8384160360
8384167745
8384176290
8384180990
8384189657
8384197225
8384204183
8384215657
8384222860
8384230916
8384239949
8384246114
8384254720
8384262715
8384270040
8384281392
8384287984
8384294698
8384302571
8384308675
8384316365
8384322164
8384329305
8384335042
8384342305
8384349019
8384354512
8384362264
8384368550
8384374959
8384383931
8384390645
8384398030
8384404805
8384413350
8384420308
8384427266
8384435139
8384441975
8384449605
8384457600
8384465046
8384471211
8384478779
8384486653
8384494221
8384500874
8384507710
8384516499
8384523213
8384529988
8384538960
8384546589
8384553364
8384560261
8384566975
8384576863
8384583210
8384591999
8384598164
8384605793
8384614216
8384621845
8384627888
8384635456
8384643635
8384651447
8384657734
8384664814
8384674152
8384680683
8384685688
8384696064
8384705585
8384712177
8384717365
8384725910
8384735309
8384742145
8384748981
8384757099
8384763691
8384770160
8384778034
8384787311
8384794635
8384801227
8384809650
8384818927
8384824970
8384834064
8384840351
8384849506
8384854511
8384864948
8384872089
8384881488
8384888996
8384897540
8384904865
8384912433
8384918292
8384929401
8384936054
8384944171
8384951801
8384960407
8384967059
8384975421
8384984943
8384990131
8385000995
8385008929
8385016864
8385030292
8385038043
8385046405
8385054278
8385059344
8385069842
8385074908
8385083636
8385091021
8385114886
8385123980
8385130389
8385136798
8385146258
8385154864
8385161761
8385168170
8385175860
8385183550
8385190631
8385196368
8385204669
8385210528
8385217730
8385222857
8385230425
8385236407
8385241961
8385247271
8385254839
8385262591
8385270037
8385275286
8385282061
8385288103
8385295672
8385301714
8385306719
8385314348
8385320086
8385325518
8385332659
8385338030
8385345904
8385351946
8385358660
8385364580
8385371538
8385377886
8385384478
8385390398
8385395342
8385402849
8385409929
8385415667
8385421038
8385428972
8385434282
8385439653
8385447405
8385454180
8385459551
8385465593
8385470537
8385477678
8385483171
8385488970
8385494463
8385501482
8385507158
8385513506
8385519060
8385524004
8385530718
8385535844
8385543291
8385548784
8385554277
8385560930
8385566484
8385571611
8385577898
8385583818
8385590959
8385597368
8385602495
8385607744
8385614580
8385618608
8385626054
8385634294
8385641435
8385649003
8385654313
8385661821
8385667619
8385675309
8385681718
8385688371
8385694658
8385700639
8385708268
8385713151
8385720231
8385726335
8385732072
8385738237
8385743974
8385749284
8385756486
8385761430
8385768510
8385774797
8385780351
8385788285
8385794633
8385800248
8385808061
8385813554
8385819291
8385829362
8385835893
8385842118
8385848039
8385853532
8385861588
8385867814
8385874345
8385880448
8385885697
8385891068
8385898392
8385903947
8385912247
8385918534
8385926041
8385932572
8385939591
8385945878
8385951676
8385957840
8385964005
8385971756
8385977555
8385983719
8385990311
8385996537
8386003128
8386009293
8386015396
8386021500
8386029496
8386035660
8386042130
8386048294
8386054215
8386060379
8386067398
8386073624
8386080094
8386086258
8386094132
8386098160
8386105728
8386112686
8386118057
8386124588
8386132584
8386138260
8386144363
8386151810
8386157608
8386163956
8386169937
8386176407
8386185074
8386190323
8386197952
8386203873
8386210647
8386216812
8386223038
8386231277
8386237381
8386243301
8386249771
8386256180
8386265213
8386273452
8386283096
8386289383
8386296341
8386304580
8386311050
8386318313
8386324234
8386332473
8386338211
8386345535
8386352005
8386357437
8386363235
8386369949
8386377822
8386383926
8386391616
8386397170
8386403091
8386410110
8386415786
8386421340
8386429885
8386436233
8386444289
8386451064
8386457534
8386463576
8386471084
8386477065
8386486098
8386494582
8386501845
8386508620
8386515945
8386522780
8386529311
8386536208
8386542617
8386549575
8386558242
8386563247
8386570998
8386578444
8386584975
8386591994
8386600966
8386607863
8386613478
8386620375
8386628127
8386635085
8386641005
8386647963
8386655715
8386664199
8386670729
8386677199
8386686049
8386692519
8386700331
8386707106
8386713881
8386720595
8386728102
8386736098
8386743727
8386749709
8386757399
8386765272
8386772902
8386781081
8386788588
8386796522
8386804030
8386810744
8386818373
8386824415
8386831068
8386840346
8386848036
8386854445
8386861158
8386868116
8386875746
8386882887
8386892530
8386899427
8386907423
8386914259
8386920240
8386927809
8386935865
8386943251
8386949415
8386956983
8386966078
8386974806
8386984083
8386993238
8386999769
8387008314
8387016187
8387023145
8387032423
8387043897
8387050794
8387059156
8387067274
8387075635
8387083753
8387091199
8387097486
8387104871
8387111768
8387118543
8387128003
8387132642
8387141492
8387148145
8387155042
8387164380
8387172193
8387178785
8387185865
8387192517
8387199964
8387206617
8387216260
8387224988
8387237317
8387241956
8387248914
8387258008
8387263074
8387273755
8387280652
8387287488
8387294202
8387301221
8387310925
8387316296
8387323987
8387331128
8387338696
8387346692
8387354260
8387362805
8387370373
8387377515
8387385144
8387392773
8387400281
8387406994
8387414563
8387421155
8387428174
8387437573
8387444714
8387453869
8387461316
8387468823
8387476208
8387484509
8387492199
8387500439
8387508618
8387516796
8387523144
8387531140
8387541027
8387546887
8387555004
8387561657
8387568615
8387577282
8387584301
8387591869
8387598950
8387606518
8387614391
8387620678
8387628185
8387636242
8387641735
8387650219
8387657848
8387665356
8387673778
8387680248
8387686901
8387693737
8387700329
8387707836
8387714367
8387721996
8387730907
8387739086
8387746593
8387754284
8387760692
8387768627
8387780040
8387791942
8387800548
8387810131
8387818737
8387826671
8387835460
8387842784
8387851390
8387859569
8387867320
8387876476
8387883373
8387889537
8387897106
8387906322
8387912181
8387920970
8387928600
8387935680
8387943431
8387950450
8387958141
8387966319
8387974803
8387982555
8387990611
8387997508
8388004649
8388015086
8388021678
8388028575
8388036448
8388045604
8388053355
8388060252
8388068919
8388075816
8388083995
8388091197
8388100108
8388107249
8388114817
8388122996
8388129710
8388137339
8388144053
8388151744
8388159983
8388167735
8388175181
8388182932
8388190074
8388197642
8388201792
8388210398
8388217173
8388225291
8388234690
8388242686
8388250132
8388256785
8388267161
8388273447
8388281626
8388288767
8388297129
8388306284
8388314463
8388322092
8388327219
8388336863
8388343760
8388349619
8388355906
8388362925
8388370859
8388376413
8388382822
8388388437
8388394358
8388400400
8388408335
8388413828
8388419870
8388427866
8388433176
8388440256
8388446482
8388453012
8388459299
8388466257
8388472910
8388478464
8388484445
8388491159
8388497080
8388502268
8388508432
8388515512
8388523508
8388530893
8388537363
8388543771
8388550424
8388558115
8388564401
8388572031
8388580514
8388586130
8388594369
8388601388
8388607065
8388612680
8388618661
8388624093
8388630746
8388635751
8388642343
8388647348
8388654123
8388659311
8388667489
8388673227
8388678659
8388684518
8388690011
8388696481
8388701974
8388708444
8388714059
8388719674
8388725289
8388731271
8388738412
8388742806
8388749826
8388754586
8388761849
8388767404
8388773507
8388779122
8388785775
8388791329
8388797616
8388804818
8388810922
8388816293
8388823373
8388828683
8388835702
8388839669
8388847909
8388855233
8388860909
8388867318
8388873116
8388879281
8388885018
8388890877
8388898202
8388903512
8388909432
8388916024
8388921883
8388928658
8388935006
8388941597
8388949532
8388954598
8388962655
8388968392
8388976265
8388981697
8388989571
8388995003
8389001290
8389007515
8389015328
8389020455
8389028206
8389033760
8389040108
8389048409
8389054573
8389061959
8389067574
8389073006
8389080269
8389085823
8389094002
8389103462
8389109627
8389115913
8389123177
8389129341
8389136116
8389143379
8389151131
8389162605
8389169075
8389175606
8389182503
8389190010
8389196480
8389204048
8389211983
8389217293
8389225227
8389230354
8389238228
8389243171
8389250923
8389256721
8389262886
8389268196
8389276008
8389281074
8389288826
8389294197
8389300422
8389308601
8389314277
8389321357
8389327034
8389332771
8389338874
8389346809
8389352424
8389360603
8389366401
8389373237
8389379646
8389385871
8389393501
8389399055
8389407356
8389414008
8389420356
8389426948
8389434516
8389440864
8389446479
8389454353
8389459968
8389467902
8389474006
8389480353
8389487372
8389493598
8389499518
8389505927
8389513068
8389519477
8389526069
8389532294
8389539618
8389545966
8389552314
8389559211
8389566413
8389573432
8389580024
8389586921
8389594123
8389601081
8389609137
8389614203
8389622199
8389629340
8389636908
8389642157
8389650641
8389657538
8389663886
8389670661
8389678778
8389685614
8389693366
8389700202
8389705878
8389712836
8389720343
8389727301
8389733649
8389740301
8389749274
8389757086
8389763068
8389769720
8389776434
8389786139
8389793585
8389801153
8389808233
8389817572
8389825018
8389835211
8389840582
8389849920
8389856756
8389866400
8389874212
8389883062
8389889715
8389897222
8389904242
8389910223
8389917730
8389926641
8389933111
8389939947
8389946050
8389952093
8389961004
8389965521
8389976141
8389983282
8389989202
8389996038
8390003240
8390009466
8390018255
8390025152
8390032354
8390039983
8390046758
8390053533
8390060369
8390066473
8390074163
8390080144
8390086309
8390092840
8390099920
8390110113
8390118108
8390125127
8390135259
8390142705
8390149236
8390156316
8390163274
8390171331
8390178106
8390187993
8390195439
8390202214
8390209294
8390218022
8390224492
8390232427
8390239324
8390248845
8390254338
8390264165
8390269170
8390278996
8390286382
8390294866
8390301946
8390308049
8390317693
8390323186
8390332829
8390339787
8390347539
8390354985
8390361882
8390367558
8390374638
8390382085
8390389592
8390397465
8390405949
8390413701
8390418583
8390425358
8390432377
8390442082
8390448063
8390455571
8390463261
8390471257
8390478154
8390485661
8390492619
8390500004
8390508305
8390513188
8390519963
8390528324
8390535588
8390545109
8390550236
8390559391
8390566410
8390573490
8390582401
8390592045
8390603520
8390610600
8390618351
8390627750
8390639164
8390647160
8390655094
8390663944
8390671024
8390680302
8390687931
8390695804
8390703251
8390711124
8390718632
8390726200
8390734440
8390741947
8390748539
8390756046
8390764042
8390771793
8390779483
8390787052
8390793582
8390801517
8390808048
8390814884
8390822696
8390829288
8390836185
8390845096
8390852176
8390860538
8390867435
8390877200
8390885318
8390892032
8390899173
8390907718
8390916019
8390923099
8390931338
8390939883
8390948062
8390955630
8390964053
8390971438
8390979617
8390988223
8390993411
8391000918
8391008914
8391017276
8391024356
8391034976
8391042849
8391051089
8391058108
8391066531
8391073123
8391081363
8391088443
8391095950
8391106082
8391113284
8391118533
8391126712
8391136904
8391144168
8391152346
8391159854
8391168032
8391176150
8391184451
8391191897
8391200320
8391208132
8391213137
8391223513
8391230837
8391238772
8391246035
8391255862
8391263247
8391270754
8391278200
8391286501
8391293947
8391302492
8391309511
8391317751
8391327028
8391332033
8391341127
8391348391
8391355959
8391364870
8391372561
8391380129
8391388369
8391397219
8391406740
8391414858
8391423647
8391430910
8391440004
8391448793
8391457643
8391466982
8391474855
8391483461
8391492006
8391500612
8391508546
8391519106
8391528017
8391535341
8391541933
8391550661
8391557313
8391563173
8391569032
8391578371
8391584291
8391590822
8391596071
8391601259
8391608034
8391613588
8391618837
8391626405
8391632631
8391637513
8391644288
8391650209
8391656678
8391661805
8391668519
8391674440
8391680665
8391687318
8391693910
8391699098
8391705506
8391714418
8391719422
8391724366
8391730592
8391738343
8391743409
8391751466
8391755799
8391762391
8391767762
8391774354
8391780518
8391785951
8391792115
8391797913
8391804749
8391809510
8391815125
8391819764
8391827332
8391833741
8391840516
8391846436
8391854798
8391861390
8391866944
8391871766
8391878541
8391885193
8391890198
8391896180
8391902894
8391910279
8391915223
8391919678
8391927552
8391934021
8391937989
8391945984
8391951477
8391957337
8391962159
8391966736
8391976380
8391983643
8391989930
8391996399
8392004395
8392012085
8392020874
8392026978
8392034790
8392039978
8392047302
8392053711
8392060608
8392067383
8392075012
8392080444
8392087463
8392093628
8392098755
8392106140
8392112976
8392120483
8392126160
8392132996
8392139343
8392146118
8392152466
8392160034
8392167236
8392172546
8392180481
8392185119
8392192627
8392201111
8392207702
8392213684
8392221313
8392228271
8392233703
8392241150
8392249084
8392256164
8392261840
8392269531
8392276367
8392283020
8392287719
8392296569
8392303344
8392308105
8392314758
8392321411
8392328491
8392334106
8392340637
8392347106
8392353515
8392357849
8392364929
8392373046
8392380676
8392387206
8392393310
8392400756
8392407287
8392414855
8392420776
8392427612
8392434570
8392442016
8392449340
8392454223
8392461791
8392469848
8392475707
8392482665
8392487548
8392493896
8392501586
8392512389
8392517699
8392525756
8392531615
8392537963
8392545226
8392554564
8392560973
8392569152
8392574034
8392582640
8392590697
8392597106
8392602233
8392609740
8392614989
8392621764
8392629393
8392637206
8392644469
8392649352
8392656371
8392663573
8392669981
8392675841
8392685667
8392692320
8392697936
8392705931
8392712828
8392721800
8392727599
8392735167
8392742247
8392748717
8392756590
8392764647
8392770872
8392778380
8392786131
8392792418
8392801329
8392807799
8392813292
8392820860
8392829771
8392836363
8392844664
8392852171
8392863218
8392871946
8392879332
8392885252
8392892698
8392902586
8392908995
8392917539
8392924253
8392934080
8392940794
8392950193
8392958921
8392964597
8392971372
8392982237
8392988401
8392995237
8393003599
8393012022
8393018674
8393026792
8393035581
8393041685
8393049253
8393056028
8393064451
8393068784
8393079343
8393086301
8393094846
8393100034
8393108030
8393115903
8393124021
8393135190
8393145200
8393153379
8393161313
8393169004
8393176267
8393184690
8393194638
8393202390
8393207761
8393215940
8393223752
8393230100
8393236875
8393246152
8393254575
8393261533
8393266965
8393276120
8393282346
8393289121
8393297116
8393303708
8393312558
8393318417
8393326718
8393335202
8393341672
8393347775
8393357480
8393363217
8393369137
8393378781
8393387448
8393396847
8393404721
8393413022
8393420590
8393429501
8393436154
8393447201
8393457028
8393463314
8393471920
8393478329
8393485043
8393494992
8393502438
8393510556
8393517452
8393526058
8393533688
8393537960
8393547970
8393555721
8393561825
8393572445
8393578610
8393584408
8393594845
8393601986
8393611141
8393620846
8393628231
8393637997
8393645443
8393654781
8393662472
8393671688
8393680355
8393687313
8393695492
8393704769
8393713802
8393720516
8393727901
8393737117
8393744930
8393753841
8393760433
8393769100
8393775875
8393785823
8393795101
8393804195
8393811763
8393820430
8393830440
8393840083
8393847957
8393863582
8393870723
8393878413
8393886226
8393893306
8393903072
8393910884
8393917964
8393925655
8393934444
8393939387
8393947993
8393955073
8393964961
8393976008
8393982661
8393990474
8393997066
8394004512
8394014644
8394022151
8394032344
8394038081
8394046870
8394053645
8394060359
8394070063
8394077143
8394084895
8394093196
8394100703
8394107478
8394115595
8394124446
8394132624
8394139948
8394148432
8394155695
8394162653
8394170222
8394178950
8394188960
8394195551
8394204462
8394212519
8394220820
8394228388
8394235773
8394243342
8394249934
8394259455
8394265009
8394272577
8394280512
8394288080
8394299921
8394307367
8394314875
8394324091
8394329767
8394337763
8394344721
8394352777
8394362055
8394369623
8394375483
8394382013
8394387323
8394396540
8394402765
8394409235
8394415949
8394421564
8394428827
8394434870
8394443109
8394448725
8394456171
8394461115
8394467401
8394477777
8394486200
8394493707
8394500604
8394507989
8394514825
8394520441
8394528253
8394534540
8394543695
8394550897
8394555719
8394563226
8394569757
8394577630
8394583795
8394590631
8394596124
8394602838
8394608270
8394614923
8394620843
8394627557
8394633355
8394639703
8394645929
8394650689
8394658075
8394665277
8394672418
8394679132
8394684381
8394691033
8394696588
8394703790
8394711175
8394716912
8394723260
8394730035
8394736810
8394743768
8394749993
8394756890
8394762750
8394770257
8394775628
8394782098
8394789117
8394796136
8394803399
8394809685
8394815057
8394821709
8394827142
8394834344
8394841729
8394847954
8394854790
8394862237
8394867608
8394876275
8394881219
8394888665
8394894585
8394900750
8394908745
8394915154
8394921441
8394928948
8394936272
8394941643
8394949761
8394957146
8394963189
8394969292
8394975762
8394983757
8394989617
8394996819
8395003594
8395009819
8395019524
8395027947
8395034844
8395044365
8395052788
8395060783
8395069634
8395076897
8395086113
8395093010
8395100578
8395111748
8395120720
8395127251
8395136223
8395142387
8395150322
8395156425
8395162468
8395170769
8395176201
8395184501
8395190483
8395197136
8395203178
8395211479
8395219963
8395224846
8395232414
8395238029
8395245842
8395252922
8395258964
8395265983
8395271598
8395277946
8395284599
8395292411
8395298393
8395304923
8395312309
8395318046
8395325187
8395333976
8395340080
8395346732
8395352409
8395359977
8395365958
8395372978
8395380302
8395386527
8395394340
8395400199
8395406730
8395413139
8395419242
8395428336
8395433829
8395441032
8395447501
8395454215
8395462089
8395468802
8395477408
8395484122
8395490592
8395496940
8395504020
8395510367
8395516898
8395525748
8395532706
8395539542
8395546561
8395553580
8395559989
8395568778
8395580680
8395587454
8395593802
8395599967
8395609488
8395618888
8395631705
8395640067
8395649100
8395658377
8395668265
8395676138
8395684683
8395692068
8395699637
8395706778
8395715262
8395721976
8395727713
8395734610
8395741263
8395750113
8395756155
8395763113
8395769461
8395778067
8395784475
8395791433
8395798697
8395805533
8395811880
8395818716
8395826529
8395833609
8395841116
8395846731
8395854788
8395862539
8395870474
8395878042
8395886038
8395890859
8395901174
8395908987
8395917532
8395925772
8395932852
8395940298
8395944509
8395952688
8395959463
8395969167
8395974294
8395983755
8395993032
8395999868
8396006704
8396015310
8396022268
8396029287
8396036977
8396044546
8396052053
8396059011
8396066457
8396073598
8396081167
8396088064
8396095815
8396103689
8396111318
8396118459
8396125356
8396133596
8396140432
8396148854
8396155507
8396160451
8396170705
8396178090
8396187123
8396194692
8396201894
8396210256
8396218495
8396227834
8396235097
8396244008
8396251271
8396256032
8396264455
8396271718
8396280934
8396288258
8396295888
8396303151
8396311574
8396320119
8396328664
8396335805
8396344105
8396352101
8396358327
8396366871
8396375477
8396382924
8396390370
8396399037
8396409535
8396417653
8396424977
8396432362
8396439808
8396447926
8396459645
8396466603
8396473988
8396484730
8396490223
8396499501
8396506458
8396515614
8396522328
8396527393
8396537098
8396544056
8396551075
8396560780
8396568470
8396575306
8396584034
8396590870
8396597401
8396605091
8396613087
8396620594
8396627552
8396635425
8396643421
8396651234
8396657947
8396665943
8396673267
8396680835
8396688099
8396694996
8396703907
8396710560
8396719532
8396726246
8396733142
8396740100
8396748890
8396755664
8396762622
8396771228
8396778064
8396784473
8396792224
8396800342
8396807788
8396814441
8396822864
8396830615
8396838916
8396846484
8396854663
8396861377
8396868640
8396876270
8396883533
8396893848
8396900378
8396908557
8396917224
8396923450
8396932544
8396938830
8396950244
8396956592
8396965259
8396973437
8396979968
8396987414
8396997180
8397004504
8397012072
8397018847
8397027026
8397035388
8397043505
8397050769
8397058886
8397066638
8397075000
8397082446
8397091357
8397100695
8397105761
8397115954
8397123828
8397131030
8397138903
8397146472
8397155871
8397163073
8397170336
8397180163
8397187548
8397195727
8397202929
8397210985
8397221178
8397233874
8397242419
8397253283
8397261950
8397274096
8397286425
8397293932
8397303087
8397309435
8397318712
8397323229
8397332079
8397338549
8397344469
8397351610
8397361681
8397370836
8397377611
8397385912
8397392687
8397401171
8397408495
8397415880
8397422533
8397426256
8397433824
8397439684
8397446581
8397452074
8397461412
8397466539
8397475389
8397482103
8397487962
8397494554
8397502183
8397509874
8397515306
8397522386
8397529466
8397534715
8397542711
8397548753
8397554857
8397561326
8397568040
8397574144
8397581224
8397587266
8397593431
8397599473
8397605088
8397614244
8397620897
8397627061
8397633043
8397639024
8397644883
8397651353
8397658067
8397665818
8397672166
8397678025
8397685227
8397690904
8397696458
8397704148
8397709153
8397716294
8397721238
8397728623
8397734239
8397740281
8397747605
8397752854
8397759812
8397764268
8397769761
8397776231
8397780808
8397786240
8397793259
8397800339
8397806016
8397813096
8397819077
8397824204
8397829636
8397835190
8397842087
8397849106
8397853501
8397860886
8397866623
8397871567
8397879014
8397885422
8397891526
8397898240
8397905930
8397911484
8397917771
8397924973
8397930222
8397937668
8397943161
8397950669
8397955490
8397962021
8397966843
8397971726
8397980454
8397986008
8397992844
8397997544
8398004196
8398009018
8398015671
8398021103
8398026718
8398034836
8398040329
8398046616
8398051987
8398058640
8398064194
8398074142
8398079880
8398085556
8398091537
8398098801
8398103622
8398110886
8398116562
8398122543
8398128769
8398136886
8398141830
8398149277
8398154098
8398161484
8398167221
8398174850
8398182296
8398188034
8398193100
8398199814
8398204879
8398211593
8398217331
8398225570
8398231613
8398238144
8398243942
8398250106
8398256027
8398263717
8398269699
8398275314
8398282699
8398288131
8398293991
8398301437
8398306686
8398313766
8398321090
8398327377
8398335555
8398342025
8398348983
8398355331
8398362167
8398368758
8398376449
8398382186
8398389205
8398395187
8398400802
8398407027
8398415572
8398421432
8398428695
8398435348
8398440902
8398446334
8398453109
8398458785
8398469466
8398475997
8398483565
8398490340
8398496383
8398501876
8398508223
8398515609
8398524215
8398530684
8398538314
8398544112
8398549056
8398554793
8398562239
8398568404
8398574996
8398580794
8398586959
8398592757
8398599288
8398605208
8398612044
8398619917
8398625350
8398630599
8398637862
8398643050
8398650130
8398655745
8398664351
8398671675
8398678084
8398684126
8398689680
8398697554
8398703230
8398710188
8398717024
8398724898
8398730635
8398738264
8398743941
8398750166
8398755720
8398763533
8398769636
8398778120
8398784407
8398791182
8398797590
8398803877
8398809492
8398816511
8398823713
8398831282
8398837629
8398843916
8398851423
8398857954
8398866743
8398873518
8398881086
8398889753
8398896040
8398902571
8398908918
8398915937
8398922102
8398930769
8398937483
8398944746
8398952253
8398959150
8398965803
8398972822
8398979475
8398986494
8398993757
8399001325
8399007856
8399014814
8399022077
8399029035
8399035932
8399043073
8399050214
8399057721
8399063581
8399069684
8399078168
8399084394
8399091352
8399097944
8399104902
8399115461
8399122907
8399129255
8399137067
8399146161
8399153974
8399159772
8399169904
8399176984
8399185651
8399191998
8399202008
8399209210
8399216474
8399223737
8399231854
8399239362
8399246869
8399254010
8399261029
8399266522
8399274579
8399282208
8399289227
8399294904
8399304913
8399312237
8399316632
8399324078
8399330243
8399336590
8399343854
8399352032
8399358929
8399366070
8399374432
8399385174
8399392254
8399400677
8399407574
8399415509
8399424664
8399431378
8399438397
8399446087
8399453289
8399462506
8399470684
8399478680
8399484295
8399492169
8399501995
8399508099
8399515606
8399524761
8399530560
8399540630
8399548260
8399554974
8399562481
8399569134
8399576824
8399583843
8399591412
8399598492
8399605633
8399614483
8399621075
8399628704
8399635418
8399643474
8399653362
8399660991
8399668194
8399676311
8399683452
8399691631
8399698955
8399707012
8399715374
8399723613
8399731182
8399738445
8399747295
8399754558
8399762065
8399768230
8399778606
8399785259
8399793498
8399800701
8399809001
8399817058
8399825237
8399832805
8399841106
8399847697
8399854961
8399865703
8399875163
8399883464
8399888591
8399896220
8399904948
8399912517
8399919536
8399929973
8399935954
8399948100
8399958232
8399966350
8399974101
8399981242
8399991801
8400000163
8400009501
8400018046
8400025981
8400032817
8400040263
8400048320
8400055949
8400064006
8400071635
8400079447
8400087077
8400094157
8400100810
8400108744
8400115641
8400122660
8400132121
8400137125
8400144511
8400154032
8400160075
8400167643
8400176188
8400183756
8400190165
8400199625
8400208597
8400215555
8400223063
8400230875
8400238627
8400246256
8400253824
8400261454
8400268717
8400276468
8400283304
8400290995
8400297648
8400304544
8400313578
8400320597
8400330118
8400337748
8400343851
8400350565
8400357645
8400367227
8400372476
8400384134
8400392557
8400399881
8400407877
8400415750
8400423258
8400430399
8400438883
8400447488
8400456155
8400465433
8400471719
8400480264
8400488565
8400495523
8400503763
8400512613
8400520486
8400523538
8400533426
8400540079
8400545999
8400552286
8400559976
8400565347
8400572793
8400578470
8400587320
8400590921
8400598001
8400605813
8400612039
8400618692
8400624734
8400630105
8400637674
8400643533
8400649636
8400655618
8400661721
8400669595
8400675759
8400682717
8400688272
8400695962
8400702187
8400708413
8400715249
8400723855
8400733498
8400739663
8400747170
8400752724
8400759988
8400767007
8400773904
8400778725
8400785622
8400790566
8400796059
8400802651
8400808083
8400814980
8400820595
8400826638
8400832314
8400838540
8400843484
8400849892
8400856484
8400861672
8400871071
8400876809
8400882241
8400889199
8400895791
8400900856
8400907509
8400912453
8400918618
8400926003
8400931618
8400936623
8400943520
8400949623
8400954994
8400960793
8400967934
8400972756
8400979714
8400984352
8400991860
8400998818
8401004128
8401010414
8401017128
8401022133
8401029640
8401034767
8401041969
8401047829
8401055214
8401061195
8401066627
8401073891
8401078896
8401086159
8401093483
8401100563
8401106911
8401112465
8401117958
8401125831
8401131874
8401138954
8401145424
8401152992
8401158668
8401165992
8401171791
8401177467
8401185402
8401190406
8401199318
8401204811
8401212745
8401219337
8401225807
8401231971
8401240028
8401246559
8401253028
8401259254
8401264686
8401270423
8401276588
8401282386
8401290931
8401298744
8401307655
8401315772
8401321815
8401329444
8401338233
8401347266
8401352271
8401360877
8401368446
8401372535
8401380897
8401387427
8401392982
8401400794
8401406470
8401413856
8401419410
8401426551
8401431983
8401437659
8401447303
8401452247
8401459998
8401465064
8401472876
8401477881
8401483374
8401491065
8401506812
8401513282
8401519202
8401527137
8401532874
8401539221
8401545447
8401553260
8401559546
8401565344
8401572486
8401578101
8401583472
8401591284
8401598364
8401604041
8401610510
8401618201
8401623816
8401629675
8401637183
8401641272
8401649512
8401655127
8401662146
8401667883
8401675085
8401680884
8401688757
8401695776
8401701819
8401708105
8401715979
8401722388
8401728552
8401736731
8401742834
8401749914
8401755957
8401762304
8401769690
8401776037
8401784216
8401790625
8401796545
8401805151
8401811254
8401819616
8401825598
8401833715
8401839453
8401847509
8401854223
8401859472
8401868078
8401873571
8401882238
8401888464
8401896032
8401904333
8401911840
8401920995
8401928625
8401934850
8401944067
8401950109
8401958776
8401965856
8401974462
8401981847
8401990575
8401999181
8402006750
8402012975
8402023656
8402030614
8402037389
8402047155
8402054784
8402060888
8402068090
8402074071
8402080541
8402087499
8402096349
8402102697
8402108861
8402117101
8402123571
8402129003
8402137731
8402143834
8402151036
8402157933
8402165257
8402172826
8402180760
8402187474
8402196080
8402202977
8402210668
8402218358
8402226415
8402234898
8402239537
8402248021
8402254735
8402264378
8402271214
8402279454
8402286107
8402293980
8402300633
8402307774
8402314183
8402323948
8402329747
8402337315
8402344639
8402352086
8402360142
8402367833
8402374302
8402382054
8402389561
8402397374
8402405980
8402413792
8402420079
8402426731
8402435643
8402442295
8402447361
8402457981
8402465183
8402472264
8402479038
8402485386
8402494846
8402501499
8402509007
8402515476
8402523228
8402532261
8402540806
8402546970
8402555210
8402562717
8402569920
8402577610
8402586277
8402593723
8402601414
8402609714
8402616428
8402626804
8402634250
8402642551
8402648777
8402656894
8402666111
8402675022
8402682041
8402690158
8402696994
8402704441
8402711887
8402721286
8402729038
8402736850
8402746372
8402754428
8402763095
8402770297
8402778842
8402784824
8402792819
8402802219
8402811191
8402818942
8402830356
8402838351
8402845248
8402852206
8402859958
8402867770
8402875461
8402881503
8402889072
8402896335
8402903903
8402911899
8402919528
8402926303
8402934115
8402942050
8402949740
8402953647
8402962619
8402972018
8402978793
8402985751
8402994113
8403001193
8403007602
8403017123
8403023104
8403030734
8403039096
8403047457
8403055087
8403062594
8403070529
8403077975
8403085238
8403092867
8403099764
8403107089
8403114291
8403123080
8403129855
8403136385
8403143832
8403150484
8403157381
8403165926
8403172701
8403180270
8403188021
8403195406
8403203036
8403210299
8403217745
8403224459
8403232088
8403236056
8403245333
8403254793
8403261324
8403268404
8403274263
8403281771
8403289400
8403296846
8403303682
8403313814
8403320467
8403328035
8403335482
8403341219
8403348299
8403355013
8403362886
8403371614
8403381441
8403388216
8403396089
8403402620
8403409639
8403415010
8403424471
8403431429
8403439546
8403446565
8403454134
8403461336
8403469026
8403477144
8403483125
8403492341
8403500520
8403507234
8403516755
8403524934
8403533601
8403540864
8403549653
8403558381
8403570039
8403577913
8403586396
8403594880
8403602388
8403608247
8403615449
8403625886
8403633515
8403640412
8403647370
8403653718
8403660798
8403667329
8403673860
8403681794
8403689240
8403695954
8403702241
8403708100
8403714265
8403719880
8403726899
8403731477
8403738801
8403744843
8403750520
8403755830
8403762910
8403767915
8403773530
8403779755
8403787324
8403793976
8403799409
8403804536
8403809662
8403816620
8403821686
8403828217
8403835908
8403841706
8403846406
8403853486
8403858674
8403863678
8403870636
8403877472
8403883820
8403889374
8403895356
8403900971
8403907502
8403913056
8403918671
8403925934
8403932099
8403937470
8403942780
8403949066
8403954193
8403958771
8403966828
8403971710
8403976105
8403982758
8403987763
8403993134
8403998261
8404003754
8404011383
8404016632
8404021637
8404027374
8404032562
8404036774
8404045746
8404052399
8404058746
8404064300
8404069733
8404074860
8404080597
8404085480
8404091217
8404097992
8404103241
8404108246
8404114776
8404119720
8404125519
8404132354
8404137970
8404147125
8404152862
8404159271
8404165130
8404171051
8404178131
8404185394
8404191681
8404199005
8404205902
8404211395
8404216644
8404223358
8404229522
8404236419
8404242156
8404248626
8404254058
8404258453
8404265228
8404270477
8404278045
8404283416
8404289337
8404296111
8404301910
8404307708
8404313628
8404321441
8404326934
8404333831
8404339141
8404345489
8404350677
8404358245
8404363494
8404369659
8404377715
8404382964
8404390227
8404395354
8404402129
8404407256
8404414092
8404422820
8404428191
8404433989
8404440215
8404447417
8404453338
8404459075
8404465361
8404471526
8404477874
8404485137
8404490081
8404496245
8404503630
8404508940
8404514739
8404522612
8404527922
8404533232
8404540496
8404545867
8404552275
8404557707
8404566496
8404572417
8404577422
8404584990
8404590727
8404596343
8404602019
8404607329
8404615752
8404621855
8404627715
8404634795
8404640715
8404647307
8404653166
8404659026
8404666472
8404673491
8404678801
8404685026
8404690459
8404697539
8404702971
8404709074
8404716887
8404722075
8404731718
8404739836
8404748015
8404754728
8404762541
8404771147
8404779387
8404785734
8404793486
8404799833
8404808073
8404813871
8404821867
8404827604
8404834867
8404840605
8404845793
8404851652
8404859648
8404865751
8404873564
8404879057
8404885832
8404891203
8404896330
8404904569
8404910795
8404917143
8404924650
8404932829
8404938688
8404948026
8404955045
8404961454
8404969511
8404977689
8404983915
8404990262
8404996549
8405002958
8405009672
8405017240
8405025785
8405031583
8405038175
8405045316
8405052152
8405060636
8405066434
8405074491
8405080350
8405087857
8405094205
8405104764
8405112516
8405119840
8405127286
8405134793
8405142484
8405149503
8405156766
8405163541
8405169522
8405176480
8405183621
8405191190
8405198087
8405204312
8405211942
8405217923
8405225308
8405231656
8405240811
8405248502
8405256436
8405262784
8405271268
8405278470
8405285184
8405291714
8405298489
8405308621
8405312893
8405321560
8405327908
8405334256
8405343350
8405349453
8405355862
8405364407
8405371304
8405377591
8405388333
8405396450
8405405178
8405413357
8405421780
8405426968
8405438442
8405444668
8405452175
8405459866
8405467068
8405474026
8405481594
8405492397
8405499538
8405506863
8405513393
8405524197
8405531826
8405539028
8405546841
8405554897
8405562954
8405570095
8405576870
8405583706
8405589687
8405596218
8405603725
8405611172
8405620205
8405627224
8405633266
8405639309
8405645717
8405652675
8405661220
8405667995
8405675014
8405683376
8405690700
8405696987
8405706081
8405710964
8405717250
8405727809
8405734340
8405740444
8405747219
8405753505
8405760036
8405767421
8405773647
8405782558
8405791408
8405797756
8405804225
8405811122
8405817897
8405824001
8405831691
8405840785
8405849330
8405856166
8405863734
8405870082
8405877528
8405883998
8405890529
8405898952
8405906398
8405914576
8405921107
8405928004
8405936549
8405943446
8405951747
8405958522
8405965052
8405972987
8405982508
8405988124
8405995143
8406002589
8406010646
8406018092
8406021998
8406034693
8406041285
8406048121
8406056239
8406062769
8406069666
8406076380
8406083827
8406091700
8406102076
8406109156
8406116785
8406123316
8406130885
8406138331
8406145960
8406153467
8406161341
8406168238
8406175684
8406182764
8406189295
8406197962
8406204981
8406212244
8406222620
8406232142
8406237391
8406246607
8406253382
8406263147
8406270472
8406276819
8406283594
8406292627
8406299585
8406306909
8406313806
8406319849
8406326074
8406332483
8406341394
8406348474
8406356165
8406362451
8406369470
8406375879
8406382959
8406389978
8406395899
8406404871
8406411462
8406418420
8406425195
8406432275
8406439966
8406447107
8406454126
8406462244
8406469018
8406476709
8406483118
8406490686
8406497522
8406504297
8406513330
8406521997
8406533960
8406541162
8406547448
8406554956
8406563623
8406568139
8406577844
8406585900
8406594506
8406599023
8406608422
8406615930
8406623559
8406630090
8406637475
8406645349
8406652978
8406660851
8406669885
8406676293
8406682580
8406690209
8406695947
8406705041
8406711938
8406717431
8406721886
8406729577
8406736535
8406741662
8406749718
8406759728
8406764428
8406771386
8406776452
8406782006
8406788048
8406793664
8406799401
8406806725
8406813500
8406818627
8406824364
8406829552
8406834984
8406842003
8406847680
8406855065
8406862389
8406868126
8406875756
8406881188
8406889061
8406894738
8406900658
8406908470
8406915245
8406920983
8406927147
8406934777
8406940026
8406948937
8406955834
8406961388
8406967430
8406972679
8406977562
8406984032
8406990624
8406995567
8407001427
8407008019
8407012474
8407017113
8407023094
8407029015
8407036949
8407041710
8407046776
8407052330
8407057396
8407062523
8407068870
8407073631
8407082359
8407089989
8407093406
8407100853
8407105980
8407111107
8407118431
8407123619
8407129234
8407136070
8407141990
8407148399
8407155784
8407161338
8407176902
8407543173
8407551047
8407557211
8407564902
8407570883
8407578391
8407585104
8407590476
8407599814
8407605246
8407612692
8407619528
8407626425
8407633200
8407642660
8407650412
8407662741
8407670798
8407677511
8407684958
8407692404
8407697531
8407704855
8407710287
8407716025
8407721335
8407728537
8407734945
8407741049
8407746847
8407754171
8407759054
8407766806
8407771933
8407777243
8407784567
8407790121
8407796713
8407801962
8407810202
8407815756
8407820822
8407827963
8407834310
8407841146
8407846945
8407851888
8407859213
8407864706
8407870443
8407875631
8407883505
8407889974
8407895834
8407901876
8407907552
8407913595
8407919454
8407925069
8407933370
8407938863
8407944723
8407950399
8407957784
8407962728
8407969930
8407975606
8407981710
8407989217
8407996969
8408002645
8408008443
8408015767
8408021688
8408028280
8408036519
8408042623
8408048482
8408054280
8408060506
8408068624
8408074483
8408084310
8408091268
8408099568
8408105184
8408113240
8408118306
8408126119
8408132466
8408140584
8408146077
8408154439
8408160726
8408168111
8408176839
8408183614
8408190938
8408199361
8408207234
8408216450
8408222432
8408230000
8408237935
8408245503
8408253621
8408262105
8408269307
8408277913
8408286458
8408294941
8408303608
8408309712
8408319905
8408326924
8408333577
8408343159
8408349507
8408356526
8408363606
8408370747
8408378498
8408385456
8408391377
8408398335
8408405110
8408411946
8408420185
8408427204
8408434590
8408441609
8408447468
8408454426
8408462361
8408469990
8408477009
8408484821
8408491779
8408498371
8408506001
8408512775
8408519489
8408528156
8408535358
8408543659
8408550556
8408559223
8408565937
8408573383
8408581318
8408588642
8408596027
8408603718
8408613544
8408619953
8408627582
8408634357
8408641681
8408649494
8408656940
8408666828
8408674213
8408681171
8408688068
8408695270
8408705463
8408711505
8408718524
8408724201
8408733661
8408740192
8408747272
8408753742
8408760578
8408766498
8408773517
8408780597
8408788165
8408794757
8408800922
8408809528
8408816608
8408822162
8408828265
8408836444
8408843524
8408850787
8408857745
8408865375
8408871722
8408879413
8408887347
8408894732
8408901874
8408910602
8408918170
8408925616
8408931659
8408938372
8408945208
8408952044
8408959552
8408966876
8408974566
8408982135
8408989581
8408997698
8409005206
8409015643
8409027300
8409038714
8409047503
8409055377
8409063372
8409074603
8409082171
8409089373
8409101275
8409110674
8409118182
8409128558
8409133684
8409141802
8409148089
8409158404
8409165423
8409172137
8409179339
8409191057
8409195452
8409205950
8409214617
8409222551
8409228655
8409235430
8409244890
8409252581
8409259356
8409266069
8409272966
8409279558
8409287371
8409296831
8409303789
8409309160
8409318804
8409325823
8409333574
8409339922
8409347856
8409354936
8409362688
8409370134
8409377824
8409386186
8409390825
8409401079
8409408586
8409412492
8409421159
8409428056
8409435930
8409443437
8409453691
8409461076
8409467851
8409478532
8409484392
8409492692
8409500749
8409509050
8409516618
8409525102
8409529680
8409542192
8409548906
8409556108
8409563920
8409571000
8409578141
8409586137
8409593400
8409602311
8409609330
8409617814
8409625199
8409634416
8409639604
8409647477
8409655351
8409665666
8409674577
8409681901
8409687272
8409695634
8409703568
8409713212
8409720414
8409727067
8409736466
8409743180
8409753739
8409759537
8409767777
8409775529
8409783890
8409793046
8409801163
8409809708
8409819413
8409827652
8409832962
8409844193
8409850113
8409861405
8409869767
8409879532
8409887711
8409896195
8409904862
8409911637
8409918045
8409924454
8409930924
8409936539
8409943802
8409951370
8409956802
8409962906
8409968338
8409976639
8409982254
8409988236
8409993546
8410001724
8410007706
8410014420
8410020462
8410025711
8410031265
8410038040
8410044144
8410050857
8410056900
8410063309
8410069412
8410076858
8410083084
8410089676
8410095596
8410101150
8410107193
8410114700
8410120926
8410126480
8410132400
8410138382
8410145340
8410149734
8410156692
8410161453
8410168289
8410173965
8410178543
8410185623
8410191055
8410195632
8410201980
8410208389
8410213699
8410219863
8410226699
8410231704
8410238357
8410242935
8410247634
8410254775
8410261916
8410267165
8410273818
8410279861
8410285842
8410291640
8410299514
8410304824
8410311599
8410317153
8410322097
8410328872
8410334853
8410340163
8410345656
8410350722
8410359145
8410364577
8410370131
8410376235
8410383193
8410388686
8410393935
8410400954
8410407912
8410413405
8410418837
8410426406
8410431594
8410440444
8410446914
8410453017
8410459609
8410466445
8410472792
8410479445
8410485366
8410493544
8410499404
8410507338
8410512831
8410518996
8410526564
8410532424
8410538161
8410546156
8410551039
8410558913
8410565138
8410570754
8410577895
8410583571
8410591933
8410597792
8410603224
8410609572
8410618300
8410624586
8410630080
8410636061
8410643812
8410649550
8410657179
8410664442
8410669935
8410676405
8410681959
8410689406
8410695143
8410702406
8410707838
8410716505
8410722914
8410729506
8410735792
8410741529
8410747084
8410755201
8410761427
8410766371
8410774244
8410779493
8410784986
8410793898
8410800367
8410806654
8410813001
8410819715
8410826124
8410833387
8410839308
8410846815
8410853407
8410859022
8410866956
8410873121
8410879408
8410885450
8410891187
8410899366
8410905225
8410911085
8410918531
8410923963
8410930616
8410936231
8410943189
8410951063
8410956983
8410963758
8410969678
8410976148
8410982374
8410988111
8410996717
8411003614
8411009473
8411014783
8411022779
8411028272
8411034559
8411044507
8411050000
8411057202
8411065503
8411072217
8411079419
8411087476
8411098035
8411106336
8411114270
8411120801
8411128003
8411134656
8411141980
8411148267
8411155591
8411162183
8411169141
8411175366
8411181043
8411187634
8411194226
8411201733
8411210950
8411217053
8411223584
8411229809
8411236462
8411243420
8411250317
8411257153
8411264783
8411272107
8411278699
8411285656
8411292981
8411299878
8411305798
8411313183
8411321728
8411329235
8411339184
8411347607
8411355236
8411363476
8411372692
8411379895
8411388073
8411394848
8411400830
8411407604
8411413647
8411419567
8411426464
8411433483
8411440380
8411446789
8411452587
8411458691
8411464489
8411472851
8411478527
8411486889
8411493969
8411498730
8411508007
8411511974
8411521435
8411528942
8411537304
8411544323
8411551891
8411558849
8411565441
8411572033
8411578197
8411584911
8411591381
8411600109
8411606151
8411614818
8411620372
8411626903
8411632824
8411639782
8411649120
8411655712
8411662303
8411669567
8411676830
8411683361
8411690685
8411699901
8411707347
8411714305
8411721324
8411730358
8411736949
8411744945
8411752818
8411759349
8411767955
8411778392
8411785899
8411792491
8411802989
8411810130
8411816661
8411824473
8411833873
8411840098
8411847545
8411853465
8411862559
8411869578
8411877330
8411884410
8411890452
8411896678
8411905833
8411912730
8411919444
8411927073
8411934581
8411942088
8411950877
8411957713
8411965647
8411972300
8411979197
8411986949
8411993968
8412000682
8412010081
8412016123
8412023631
8412032359
8412038035
8412046946
8412052561
8412061228
8412068919
8412074839
8412081858
8412091135
8412097849
8412105906
8412112559
8412119639
8412128794
8412135691
8412142283
8412149790
8412158884
8412165781
8412172922
8412180674
8412186960
8412194956
8412203745
8412209360
8412218088
8412225779
8412231577
8412239328
8412247385
8412255686
8412262216
8412269052
8412276010
8412285227
8412292490
8412299204
8412306711
8412313791
8412321970
8412332468
8412340097
8412347238
8412355417
8412361948
8412369882
8412378061
8412388559
8412394235
8412402170
8412410226
8412419504
8412427865
8412435678
8412442880
8412451791
8412460031
8412468271
8412476510
8412482309
8412491464
8412498849
8412506601
8412517221
8412525644
8412533334
8412542916
8412550668
8412559152
8412565621
8412576547
8412583322
8412597482
8412605599
8412615243
8412624215
8412631417
8412638986
8412648202
8412655770
8412662301
8412669991
8412676339
8412683968
8412691537
8412699288
8412706246
8412713021
8412721200
8412727853
8412734811
8412744149
8412749398
8412758492
8412765816
8412774178
8412782540
8412790841
8412798104
8412804390
8412811348
8412818245
8412825692
8412832894
8412840096
8412848091
8412853340
8412860726
8412867562
8412873848
8412880013
8412888680
8412897225
8412904915
8412911568
8412919747
8412926277
8412933601
8412942513
8412950386
8412961800
8412968514
8412975777
8412984871
8412994087
8413000252
8413007088
8413013435
8413022041
8413026924
8413034126
8413041328
8413044990
8413051826
8413059273
8413065620
8413072883
8413078804
8413085945
8413090095
