7791155713
7791162183
7791167981
7791173719
7791180921
7791185559
7791190564
7791195874
7791200635
7791206677
7791213208
7791218274
7791223157
7791228833
7791235242
7791240308
7791245618
7791252332
7791256970
7791263318
7791271253
7791277905
7791284314
7791290295
7791297437
7791306348
7791314709
7791320752
7791327161
7791335461
7791341931
7791349683
7791356030
7791362317
7791370495
7791377392
7791383252
7791391675
7791399548
7791406506
7791413708
7791421460
7791428540
7791436413
7791443432
7791450451
7791457287
7791465283
7791472668
7791481518
7791488232
7791495007
7791503247
7791510388
7791518200
7791525585
7791534191
7791541149
7791546520
7791555615
7791562878
7791570263
7791577587
7791584972
7791591381
7791599072
7791608776
7791614574
7791623730
7791631298
7791638378
7791645214
7791654308
7791661510
7791670910
7791677929
7791685558
7791693981
7791701549
7791709850
7791719066
7791725902
7791734447
7791741466
7791749279
7791756847
7791764415
7791771923
7791778942
7791786388
7791795360
7791804698
7791812389
7791819408
7791826854
7791834789
7791843028
7791850597
7791862560
7791871349
7791879894
7791885631
7791894237
7791905345
7791911449
7791919078
7791928416
7791935130
7791943614
7791950389
7791955882
7791966136
7791969737
7791981761
7791989940
7791996715
7792006602
7792016368
7792024546
7792033580
7792040416
7792049205
7792057505
7792064463
7792072398
7792079173
7792089732
7792096934
7792105662
7792110850
7792120127
7792127207
7792135630
7792145640
7792152903
7792161631
7792168406
7792176463
7792183665
7792191233
7792200083
7792207713
7792213389
7792222666
7792230723
7792236399
7792245310
7792253489
7792261790
7792269358
7792278086
7792284739
7792293223
7792302073
7792310312
7792318613
7792326731
7792333567
7792342051
7792349436
7792359140
7792367258
7792374033
7792381357
7792388681
7792396616
7792405710
7792413034
7792420847
7792429270
7792437326
7792445688
7792453623
7792461801
7792469736
7792476328
7792486032
7792492685
7792502084
7792512460
7792523813
7792531564
7792540414
7792549203
7792557138
7792564401
7792571603
7792580270
7792586374
7792594247
7792602426
7792611703
7792619577
7792627084
7792636239
7792643319
7792651132
7792658151
7792665780
7792672860
7792679940
7792688058
7792695565
7792704110
7792710092
7792719918
7792726510
7792734506
7792741158
7792749398
7792755624
7792763802
7792771920
7792780404
7792787423
7792795235
7792804269
7792810128
7792818673
7792824227
7792832833
7792839486
7792847359
7792854439
7792862801
7792870492
7792875680
7792882760
7792890877
7792898324
7792905404
7792913338
7792919136
7792928170
7792936287
7792943062
7792949288
7792958443
7792965279
7792972969
7792979988
7792987496
7792996407
7793004097
7793011910
7793019600
7793026314
7793036568
7793046211
7793052864
7793059334
7793067757
7793074654
7793083015
7793091438
7793100044
7793106026
7793112495
7793120796
7793128792
7793136116
7793143989
7793151375
7793159370
7793167061
7793174446
7793181465
7793188545
7793197090
7793204780
7793213264
7793220771
7793229255
7793236641
7793245002
7793253303
7793263374
7793271553
7793279609
7793286994
7793294929
7793302009
7793308540
7793317451
7793324531
7793331733
7793339362
7793346809
7793353889
7793363227
7793371162
7793381355
7793391608
7793397895
7793405463
7793411872
7793421332
7793427619
7793435859
7793444465
7793452155
7793457587
7793466010
7793474250
7793483100
7793491462
7793497809
7793506171
7793512519
7793520026
7793526069
7793534125
7793541816
7793546698
7793555793
7793560675
7793567939
7793574408
7793581732
7793587836
7793595526
7793601508
7793606757
7793613959
7793619269
7793626532
7793633612
7793640814
7793646430
7793653143
7793657233
7793663947
7793669989
7793678046
7793685065
7793691229
7793697028
7793703375
7793709235
7793715643
7793722113
7793727423
7793735174
7793740179
7793747504
7793752814
7793758734
7793765692
7793771368
7793777838
7793784796
7793790289
7793797064
7793801947
7793808722
7793814215
7793822149
7793829412
7793834967
7793843695
7793849127
7793857611
7793865240
7793874090
7793880804
7793889776
7793895452
7793903692
7793909429
7793917974
7793923589
7793932073
7793940374
7793945684
7793953008
7793958746
7793966741
7793974798
7793980169
7793986639
7793995367
7794003301
7794008855
7794017156
7794022588
7794028814
7794037115
7794043401
7794052312
7794058355
7794066472
7794072149
7794080266
7794085759
7794093755
7794100774
7794107549
7794114324
7794122442
7794128606
7794134832
7794140935
7794149663
7794156194
7794165471
7794172002
7794180425
7794186956
7794195500
7794203923
7794212041
7794216680
7794225469
7794232793
7794238835
7794247685
7794255620
7794260320
7794268926
7794274480
7794285039
7794292851
7794299565
7794306096
7794313664
7794320744
7794328129
7794335637
7794343571
7794352543
7794358281
7794364384
7794373173
7794379155
7794387578
7794395573
7794401066
7794411747
7794417546
7794426457
7794433049
7794440068
7794446843
7794454594
7794461308
7794469975
7794476994
7794486882
7794493412
7794501164
7794507511
7794515080
7794521000
7794529484
7794535893
7794545170
7794553593
7794558292
7794567143
7794574467
7794581303
7794588993
7794596561
7794606022
7794613712
7794622379
7794630131
7794636906
7794644230
7794651127
7794661503
7794669132
7794676639
7794685611
7794692508
7794699039
7794706424
7794713199
7794721744
7794730716
7794736881
7794745731
7794751224
7794760074
7794766117
7794773990
7794782779
7794791812
7794797977
7794807193
7794813053
7794821292
7794828800
7794834842
7794841983
7794852725
7794859744
7794866702
7794874271
7794881290
7794887637
7794895267
7794903445
7794909488
7794917667
7794925784
7794933719
7794941470
7794947879
7794955325
7794961184
7794970340
7794977664
7794989077
7794995181
7795004153
7795010562
7795020083
7795026919
7795039370
7795045291
7795054873
7795060977
7795070437
7795077029
7795085696
7795092898
7795100955
7795108767
7795115481
7795123843
7795130496
7795134463
7795144900
7795151736
7795160647
7795169497
7795177493
7795184389
7795191775
7795199221
7795206606
7795212588
7795220644
7795228884
7795236635
7795242739
7795249392
7795258730
7795265749
7795272768
7795279909
7795289980
7795297487
7795304384
7795311586
7795318544
7795324953
7795334475
7795340334
7795348513
7795355532
7795363649
7795373049
7795378603
7795386904
7795394350
7795401369
7795411623
7795419618
7795427675
7795435915
7795444338
7795452272
7795460451
7795468385
7795476625
7795484254
7795492494
7795499696
7795507082
7795514223
7795521791
7795527711
7795537172
7795543458
7795552308
7795558351
7795566591
7795574342
7795580140
7795590394
7795596620
7795607118
7795612855
7795621522
7795628663
7795635621
7795643129
7795650209
7795657411
7795666444
7795674134
7795682252
7795689576
7795697267
7795704164
7795711671
7795717957
7795727296
7795734132
7795743409
7795749513
7795758485
7795766297
7795771851
7795780762
7795787781
7795795777
7795804139
7795810731
7795819459
7795826234
7795832276
7795839722
7795847291
7795855591
7795862855
7795870667
7795878174
7795885560
7795891663
7795901185
7795907288
7795915345
7795921753
7795931458
7795937622
7795943665
7795952454
7795959839
7795966919
7795974732
7795985230
7795992859
7795999695
7796007324
7796014099
7796022888
7796029663
7796036560
7796045105
7796052246
7796061951
7796071045
7796078430
7796086914
7796094421
7796101807
7796111755
7796119385
7796128967
7796133667
7796143860
7796150329
7796158508
7796165222
7796173645
7796181213
7796189636
7796197265
7796205444
7796211364
7796220214
7796226562
7796233947
7796244140
7796253906
7796260620
7796266235
7796274719
7796280639
7796288391
7796294494
7796303344
7796310546
7796316467
7796322021
7796326415
7796333312
7796339538
7796345336
7796351135
7796358520
7796363219
7796370849
7796376525
7796381469
7796387695
7796394652
7796399474
7796406127
7796411315
7796417968
7796424254
7796428527
7796435424
7796442931
7796448791
7796453551
7796460570
7796465331
7796472228
7796477294
7796484130
7796491271
7796496398
7796502990
7796508117
7796514525
7796519652
7796525267
7796532470
7796537535
7796543395
7796549681
7796553832
7796560851
7796565795
7796571227
7796576659
7796583678
7796588866
7796594786
7796599913
7796605712
7796610045
7796616454
7796623168
7796628172
7796634459
7796639830
7796645628
7796650633
7796656859
7796663206
7796668333
7796673521
7796679015
7796685484
7796690733
7796697935
7796703062
7796709166
7796715819
7796722471
7796729429
7796734740
7796742369
7796747801
7796754332
7796759276
7796765379
7796771605
7796778135
7796784910
7796792479
7796798094
7796803099
7796810240
7796817503
7796823545
7796829344
7796835325
7796842649
7796849607
7796854917
7796860533
7796867369
7796873411
7796880552
7796887388
7796894285
7796900816
7796908872
7796914427
7796920469
7796929319
7796935667
7796942320
7796948911
7796955320
7796961179
7796965818
7796974241
7796980344
7796986570
7796992612
7796998289
7797004331
7797009946
7797016904
7797022764
7797030515
7797036191
7797043699
7797050046
7797057065
7797064634
7797070981
7797077024
7797083188
7797090268
7797096372
7797102048
7797109861
7797116636
7797122373
7797130063
7797135984
7797141477
7797148313
7797153318
7797160031
7797168271
7797175351
7797181455
7797187497
7797193173
7797198056
7797205258
7797210568
7797216611
7797223203
7797230893
7797236386
7797243100
7797248593
7797253903
7797260739
7797268246
7797275327
7797281369
7797287289
7797293393
7797299374
7797305539
7797311642
7797318539
7797324765
7797330136
7797337521
7797343197
7797349118
7797354611
7797361325
7797368161
7797375424
7797380917
7797388485
7797393856
7797401425
7797409359
7797414486
7797423031
7797428280
7797435665
7797440731
7797447995
7797452999
7797460751
7797467098
7797473995
7797478695
7797485409
7797490719
7797497372
7797503109
7797510372
7797516659
7797522946
7797529476
7797536617
7797543087
7797548580
7797556454
7797565121
7797572323
7797577755
7797585873
7797593014
7797600094
7797605587
7797612362
7797621578
7797627621
7797635616
7797641170
7797649593
7797655086
7797663143
7797669613
7797678524
7797684322
7797692379
7797699337
7797705806
7797711788
7797718868
7797724910
7797735164
7797741268
7797750240
7797758052
7797764705
7797772701
7797781490
7797787776
7797796687
7797802608
7797810970
7797819148
7797824825
7797830989
7797838924
7797844539
7797854427
7797863460
7797869380
7797877132
7797884029
7797891170
7797898128
7797904231
7797914424
7797920527
7797930354
7797935542
7797943049
7797950191
7797957820
7797963679
7797973384
7797982295
7797990229
7797996333
7798004023
7798011897
7798017024
7798025996
7798031733
7798042170
7798048518
7798057307
7798064509
7798071284
7798078242
7798085932
7798089961
7798100764
7798109675
7798117548
7798125483
7798133173
7798140009
7798148005
7798155268
7798163813
7798170039
7798179682
7798185725
7798194086
7798200129
7798208979
7798215327
7798221430
7798231867
7798238093
7798247187
7798254572
7798261469
7798268305
7798275934
7798282160
7798293695
7798300287
7798308222
7798315851
7798323358
7798330378
7798337763
7798343805
7798352350
7798361444
7798367487
7798375543
7798382990
7798389093
7798396173
7798403192
7798409784
7798420587
7798427423
7798436151
7798442804
7798449823
7798456049
7798465326
7798469232
7798479669
7798488153
7798496210
7798502801
7798510248
7798516229
7798523981
7798531915
7798537958
7798548395
7798553888
7798562677
7798569818
7798576776
7798582940
7798592401
7798597223
7798608087
7798614312
7798622552
7798629449
7798637017
7798645806
7798651483
7798659417
7798667474
7798677056
7798682977
7798691522
7798697137
7798705010
7798710992
7798719903
7798725518
7798735528
7798744256
7798750359
7798757134
7798764153
7798772698
7798779473
7798786065
7798793938
7798802361
7798810296
7798816826
7798824456
7798831292
7798838860
7798846673
7798855217
7798861931
7798870598
7798876824
7798887200
7798893547
7798900200
7798909233
7798915642
7798925774
7798931511
7798940605
7798947930
7798954766
7798961357
7798968865
7798976372
7798984184
7798993340
7798999199
7799007134
7799014763
7799020622
7799028130
7799036003
7799041740
7799051628
7799059807
7799067680
7799072990
7799082329
7799089592
7799096489
7799104423
7799112907
7799120048
7799129875
7799137077
7799146477
7799152580
7799162040
7799171318
7799178276
7799185905
7799192680
7799200492
7799207389
7799214225
7799221794
7799230644
7799238212
7799244987
7799253654
7799261589
7799271903
7799280387
7799287834
7799296378
7799304679
7799312980
7799321037
7799328483
7799336723
7799343864
7799351432
7799358878
7799366691
7799374015
7799380912
7799386405
7799393851
7799399711
7799405814
7799410941
7799417655
7799425223
7799430533
7799437186
7799442130
7799447623
7799454093
7799459647
7799466483
7799472953
7799477469
7799484549
7799489005
7799497001
7799501517
7799507499
7799515494
7799521353
7799527213
7799532828
7799538138
7799543814
7799551078
7799557303
7799564688
7799570059
7799575980
7799581046
7799588004
7799593070
7799599906
7799607474
7799612418
7799618948
7799626029
7799631888
7799637320
7799642508
7799650198
7799655814
7799661917
7799667776
7799673025
7799678702
7799684012
7799689444
7799695547
7799700918
7799706106
7799712515
7799716665
7799723196
7799728323
7799735281
7799741812
7799745657
7799752310
7799758291
7799764822
7799769461
7799774649
7799780874
7799786978
7799792593
7799798025
7799805166
7799807913
7799817434
7799824697
7799829885
7799835256
7799841360
7799846731
7799852957
7799857229
7799864492
7799871939
7799876150
7799883291
7799889089
7799894338
7799899221
7799906240
7799912344
7799919363
7799924856
7799931509
7799935720
7799942556
7799948354
7799955618
7799962698
7799967214
7799974294
7799978750
7799985830
7799992483
7799998464
7800005422
7800011465
7800014577
7800022146
7800026784
7800035512
7800040639
7800049123
7800055166
7800062368
7800067861
7800073110
7800079641
7800084890
7800091848
7800099416
7800105764
7800110402
7800116323
7800123159
7800129262
7800135305
7800142140
7800147084
7800155019
7800159841
7800167226
7800174855
7800181142
7800186391
7800194325
7800202077
7800208058
7800214711
7800221974
7800230519
7800236379
7800244557
7800250539
7800257558
7800263783
7800269398
7800275380
7800282216
7800287038
7800294972
7800301381
7800308766
7800314808
7800321339
7800327870
7800335072
7800341542
7800347828
7800354237
7800360035
7800367360
7800371876
7800379200
7800384938
7800392628
7800398793
7800404469
7800410328
7800417164
7800423085
7800430409
7800435231
7800442433
7800449940
7800456043
7800461720
7800467701
7800473438
7800480091
7800487049
7800493824
7800499928
7800505543
7800511280
7800518177
7800523487
7800530567
7800537220
7800544239
7800551380
7800557301
7800564136
7800569263
7800577381
7800583790
7800593067
7800600086
7800608326
7800613697
7800621876
7800628773
7800634937
7800642139
7800648914
7800654834
7800663685
7800670398
7800676685
7800682788
7800689869
7800696766
7800705860
7800711963
7800721241
7800727893
7800734546
7800742176
7800748462
7800754871
7800763172
7800770679
7800778858
7800785694
7800794116
7800799915
7800808154
7800813464
7800822498
7800830798
7800836902
7800845325
7800853931
7800859302
7800866809
7800874621
7800883044
7800890491
7800896167
7800903613
7800910876
7800916125
7800924121
7800929553
7800938464
7800945605
7800953723
7800958545
7800966601
7800973376
7800979602
7800987780
7800996630
7801004260
7801012500
7801018786
7801025561
7801033862
7801040820
7801047778
7801056445
7801060473
7801071704
7801078662
7801086230
7801094714
7801100207
7801108141
7801116137
7801123095
7801131823
7801137743
7801145556
7801154345
7801160204
7801167040
7801174853
7801184191
7801191698
7801198595
7801204516
7801211962
7801220568
7801228014
7801231981
7801241625
7801250719
7801256640
7801262804
7801271288
7801279223
7801285082
7801293993
7801299730
7801310167
7801318468
7801324572
7801331224
7801340135
7801344957
7801354479
7801361070
7801369249
7801376085
7801384142
7801391771
7801399339
7801405138
7801413805
7801419969
7801428880
7801435899
7801445482
7801451585
7801458116
7801467088
7801473863
7801480699
7801487169
7801497484
7801502305
7801511827
7801519578
7801526414
7801532945
7801540513
7801546678
7801554857
7801564866
7801570726
7801580674
7801586290
7801592881
7801603135
7801609483
7801616990
7801627610
7801635972
7801642320
7801650193
7801657517
7801665940
7801673020
7801681382
7801691819
7801698899
7801706284
7801714036
7801720750
7801728989
7801736008
7801743516
7801757188
7801764878
7801773545
7801784226
7801798020
7801809617
7801817185
7801829514
7801835190
7801850205
7801862046
7801870224
7801878220
7801886460
7801893967
7801902634
7801909592
7801918564
7801925034
7801934677
7801941208
7801948960
7801958481
7801964096
7801974228
7801982102
7801989670
7801996628
7802004746
7802012985
7802020920
7802025253
7802035690
7802042282
7802052292
7802059067
7802068649
7802075058
7802082626
7802090134
7802098617
7802106735
7802114731
7802124313
7802130295
7802137863
7802145065
7802152511
7802160141
7802168136
7802172226
7802184555
7802191085
7802198593
7802204757
7802212387
7802220260
7802224899
7802234970
7802243637
7802249801
7802257369
7802266097
7802271652
7802280502
7802286605
7802296371
7802302963
7802309860
7802316818
7802324325
7802333053
7802340560
7802347213
7802356307
7802363875
7802371688
7802375655
7802384933
7802393844
7802398604
7802407454
7802412703
7802423751
7802431746
7802441146
7802446944
7802456466
7802464217
7802471785
7802478560
7802486617
7802495345
7802500411
7802506575
7802513167
7802518294
7802523299
7802530013
7802536971
7802541731
7802548384
7802555159
7802559615
7802567183
7802571944
7802579817
7802587203
7802593306
7802598067
7802605025
7802609724
7802615279
7802621809
7802628767
7802634016
7802641219
7802646712
7802653120
7802658919
7802663863
7802669661
7802677168
7802684248
7802688643
7802695967
7802700300
7802707380
7802711836
7802718245
7802724898
7802731856
7802735884
7802742231
7802747908
7802752546
7802758955
7802765120
7802770918
7802776228
7802781355
7802786726
7802791914
7802797468
7802806318
7802811384
7802817427
7802823530
7802829206
7802834394
7802840132
7802845381
7802850263
7802857343
7802862165
7802868513
7802873274
7802879072
7802883955
7802890424
7802896223
7802901472
7802907087
7802912702
7802918073
7802923750
7802929487
7802936018
7802941816
7802947614
7802954389
7802959760
7802965986
7802970685
7802978254
7802984846
7802990827
7802998212
7803003889
7803010724
7803016706
7803024335
7803032270
7803036969
7803044782
7803051069
7803057843
7803063825
7803071271
7803077497
7803081952
7803089948
7803094403
7803101972
7803107953
7803114301
7803121015
7803127057
7803132001
7803139508
7803144635
7803150861
7803158246
7803164044
7803171796
7803178204
7803185346
7803191327
7803197430
7803204633
7803210736
7803217999
7803223737
7803229352
7803236432
7803242230
7803249127
7803254620
7803262677
7803269574
7803276044
7803281842
7803286542
7803293072
7803299176
7803305585
7803313702
7803319806
7803326275
7803332074
7803338543
7803344220
7803349591
7803355572
7803362103
7803369854
7803375714
7803381146
7803387432
7803392804
7803400006
7803407269
7803413800
7803419964
7803425762
7803431866
7803436321
7803443218
7803450115
7803455731
7803463421
7803470257
7803476116
7803480755
7803487469
7803494000
7803500225
7803506939
7803513531
7803520184
7803526287
7803532207
7803538372
7803545574
7803552776
7803559307
7803567486
7803571819
7803579815
7803585674
7803592083
7803598247
7803604900
7803614239
7803620952
7803626323
7803634746
7803641216
7803647869
7803655498
7803664898
7803671306
7803678020
7803682598
7803690044
7803695781
7803703105
7803709148
7803717632
7803724590
7803731548
7803738628
7803743999
7803751018
7803759136
7803763957
7803773357
7803780498
7803787395
7803794475
7803802531
7803808208
7803814616
7803821147
7803830974
7803836589
7803845256
7803850810
7803857646
7803864116
7803871135
7803878215
7803885478
7803893474
7803900615
7803906535
7803913554
7803921306
7803926555
7803934855
7803942668
7803950785
7803956401
7803961894
7803970073
7803978251
7803985209
7803990702
7803996562
7804005656
7804013896
7804019328
7804027629
7804033732
7804040690
7804049418
7804054606
7804065165
7804073283
7804080607
7804086100
7804095499
7804102457
7804109415
7804116801
7804122843
7804132487
7804140421
7804146464
7804154093
7804159952
7804166605
7804175516
7804181071
7804190775
7804197245
7804206156
7804212504
7804221293
7804228006
7804234964
7804241495
7804249857
7804257608
7804265787
7804272196
7804279947
7804286478
7804294168
7804300089
7804309183
7804317728
7804325968
7804333048
7804339090
7804348612
7804356302
7804363870
7804371622
7804381998
7804388773
7804398355
7804407449
7804414041
7804423074
7804428934
7804436380
7804445840
7804451944
7804460733
7804466165
7804474893
7804481668
7804488443
7804495096
7804504007
7804513467
7804521036
7804529702
7804539529
7804547097
7804556924
7804563577
7804571572
7804580850
7804588357
7804596109
7804603494
7804610513
7804618508
7804626077
7804634255
7804641885
7804649880
7804655801
7804664346
7804672402
7804679971
7804685891
7804694497
7804700723
7804709878
7804715920
7804724099
7804731118
7804738442
7804745278
7804752480
7804760415
7804767861
7804775979
7804783974
7804791543
7804798318
7804805764
7804811928
7804821511
7804831032
7804839333
7804846596
7804852211
7804860146
7804866372
7804875161
7804880776
7804890480
7804899391
7804905434
7804913124
7804919960
7804928261
7804935219
7804940529
7804951027
7804957436
7804965492
7804972023
7804981606
7804987648
7804995155
7805001076
7805010597
7805017067
7805026772
7805032814
7805040810
7805048805
7805053688
7805062538
7805070106
7805080421
7805086220
7805094948
7805101356
7805110206
7805116310
7805123268
7805129493
7805140175
7805148597
7805156166
7805162635
7805170692
7805177345
7805187355
7805194068
7805203102
7805207435
7805218482
7805226722
7805232398
7805238441
7805247230
7805255103
7805264320
7805271278
7805280677
7805286781
7805293006
7805301734
7805308265
7805317176
7805323280
7805333106
7805340858
7805347816
7805353919
7805361548
7805368812
7805376258
7805384315
7805390601
7805400123
7805408301
7805415320
7805422828
7805428870
7805436927
7805442969
7805450110
7805459815
7805467749
7805473731
7805480323
7805489417
7805495032
7805504492
7805511939
7805521338
7805527259
7805536780
7805541724
7805551367
7805555396
7805564612
7805570349
7805579810
7805585913
7805594641
7805601477
7805608069
7805614478
7805620703
7805625464
7805633154
7805640234
7805646399
7805651343
7805657019
7805663916
7805669409
7805674780
7805680823
7805686743
7805694494
7805699316
7805706335
7805714758
7805720434
7805726660
7805734533
7805740698
7805746557
7805752539
7805758032
7805765417
7805770361
7805778479
7805784826
7805791662
7805798132
7805802771
7805811804
7805818212
7805824072
7805829931
7805835607
7805842138
7805847326
7805854223
7805859411
7805865453
7805872534
7805878393
7805884130
7805890478
7805896032
7805902441
7805907140
7805915197
7805919591
7805925573
7805930883
7805936193
7805942174
7805947729
7805953527
7805959447
7805966283
7805970556
7805977025
7805982030
7805988500
7805993627
7806001134
7806007238
7806013280
7806018346
7806023900
7806030370
7806035558
7806041539
7806048436
7806053258
7806059667
7806065770
7806070470
7806076818
7806081578
7806088536
7806094579
7806100682
7806106298
7806112645
7806117894
7806123448
7806128942
7806136571
7806141881
7806147984
7806154698
7806160741
7806166844
7806171544
7806179662
7806187596
7806194188
7806200169
7806205174
7806212498
7806217686
7806224095
7806231541
7806237828
7806243565
7806249425
7806256138
7806262059
7806269078
7806275426
7806282261
7806289586
7806294835
7806301671
7806306859
7806313756
7806318211
7806325535
7806332676
7806338719
7806344822
7806349644
7806358128
7806363987
7806370701
7806377415
7806385228
7806391026
7806396397
7806401890
7806409275
7806414891
7806423008
7806429112
7806436192
7806443028
7806449436
7806455601
7806462620
7806468906
7806474278
7806482273
7806489231
7806494968
7806499851
7806507114
7806511692
7806519138
7806526157
7806531528
7806538120
7806543369
7806549961
7806556675
7806561191
7806568699
7806574436
7806581699
7806589206
7806595798
7806601902
7806608677
7806615757
7806621067
7806628696
7806635105
7806641819
7806649448
7806654941
7806660923
7806668308
7806675022
7806680393
7806687290
7806693698
7806699741
7806706577
7806711521
7806718540
7806725131
7806730808
7806737705
7806743442
7806748752
7806754917
7806761813
7806767917
7806774448
7806780185
7806786288
7806792209
7806799838
7806806430
7806815158
7806851840
7806859592
7806866183
7806876925
7806883090
7806892550
7806902438
7806909030
7806917086
7806923739
7806932711
7806940402
7806947421
7806954806
7806962619
7806967440
7806978549
7806985385
7806994296
7807002169
7807008151
7807018283
7807024142
7807033541
7807042635
7807050387
7807057162
7807064974
7807072299
7807081881
7807089449
7807097140
7807104830
7807114535
7807120943
7807129305
7807136812
7807144930
7807153292
7807161776
7807169039
7807174837
7807182955
7807191134
7807198946
7807205416
7807213472
7807221773
7807229403
7807236055
7807245699
7807252169
7807259676
7807265963
7807274752
7807281160
7807290254
7807297090
7807306307
7807314241
7807321688
7807329683
7807337618
7807344820
7807351289
7807358980
7807367586
7807374605
7807383455
7807391328
7807395113
7807404390
7807413057
7807420320
7807426912
7807434663
7807441865
7807449556
7807457612
7807464876
7807471040
7807478608
7807486909
7807493257
7807502290
7807510591
7807517610
7807524873
7807531831
7807539033
7807545503
7807553193
7807561860
7807569429
7807573396
7807582612
7807590303
7807597566
7807604402
7807612092
7807620820
7807626435
7807634736
7807642060
7807648591
7807655732
7807662751
7807671235
7807679292
7807687165
7807693208
7807700959
7807707001
7807715058
7807720978
7807729706
7807736664
7807745576
7807751435
7807760834
7807766938
7807775910
7807782013
7807790131
7807799897
7807805817
7807811982
7807821747
7807828705
7807835907
7807844452
7807850373
7807858490
7807866730
7807874237
7807881439
7807887787
7807895172
7807901947
7807911286
7807919586
7807927460
7807935211
7807941742
7807949982
7807957733
7807963532
7807970245
7807979950
7807988312
7807995697
7808003448
7808010406
7808020843
7808030060
7808038910
7808045868
7808055145
7808061615
7808068268
7808075287
7808082977
7808089447
7808099579
7808107574
7808116180
7808121917
7808130523
7808137237
7808146881
7808152801
7808162139
7808171783
7808177886
7808185211
7808191009
7808200042
7808205718
7808212737
7808223174
7808229095
7808237701
7808245696
7808253753
7808258331
7808266937
7808271880
7808282256
7808291106
7808296600
7808303497
7808312408
7808317779
7808326690
7808333526
7808342376
7808348968
7808357451
7808365569
7808371428
7808378264
7808387359
7808392547
7808402190
7808410430
7808416167
7808423735
7808432586
7808438689
7808447661
7808456206
7808464995
7808470916
7808477629
7808486602
7808494353
7808498992
7808507659
7808516203
7808525054
7808532744
7808539885
7808548918
7808556914
7808564299
7808570586
7808579131
7808587370
7808595061
7808601652
7808610014
7808615202
7808621733
7808628264
7808634550
7808641936
7808647063
7808653593
7808660124
7808664396
7808672209
7808678068
7808685515
7808690825
7808697722
7808703337
7808709745
7808716887
7808722502
7808729094
7808734892
7808740995
7808746122
7808753141
7808760343
7808764982
7808772306
7808777372
7808784086
7808790861
7808798673
7808806120
7808812589
7808818388
7808825163
7808830961
7808837797
7808844206
7808850309
7808856657
7808862211
7808868070
7808873319
7808878690
7808884245
7808889555
7808896024
7808902128
7808907255
7808914091
7808919096
7808925992
7808931058
7808937894
7808944669
7808949369
7808956510
7808962003
7808966642
7808972623
7808978361
7808984708
7808991849
7808996854
7809004667
7809010404
7809016813
7809022733
7809029142
7809035489
7809040860
7809047513
7809054471
7809060392
7809066739
7809071195
7809078092
7809085111
7809092374
7809099210
7809106168
7809112882
7809117764
7809125089
7809130887
7809140408
7809146024
7809154080
7809159207
7809166165
7809172635
7809179227
7809185574
7809192410
7809198758
7809205228
7809211331
7809217984
7809225064
7809230679
7809238614
7809244046
7809250516
7809257229
7809261624
7809269497
7809275479
7809281582
7809287076
7809294339
7809299222
7809306302
7809312039
7809319058
7809325589
7809329983
7809336514
7809343228
7809348599
7809354824
7809362454
7809367031
7809374111
7809381253
7809387051
7809392483
7809400173
7809408413
7809413479
7809421047
7809428860
7809435024
7809442288
7809449368
7809456265
7809462978
7809469509
7809475430
7809482265
7809490139
7809494717
7809502468
7809509304
7809513637
7809519192
7809525234
7809532558
7809539455
7809545193
7809551540
7809558315
7809564602
7809571071
7809577236
7809584621
7809591823
7809599025
7809606289
7809613979
7809619533
7809632106
7809638210
7809646450
7809653347
7809660854
7809666896
7809673244
7809681179
7809689235
7809695400
7809704189
7809709255
7809718288
7809724391
7809730617
7809736903
7809745326
7809751186
7809758998
7809766383
7809772304
7809781093
7809787379
7809794337
7809801112
7809809047
7809818019
7809824123
7809831325
7809839503
7809847987
7809856288
7809862880
7809870936
7809877528
7809883876
7809892116
7809899928
7809907618
7809914027
7809921717
7809929408
7809935267
7809941798
7809950221
7809955836
7809964869
7809972071
7809978236
7809984889
7809992030
7809998866
7810005641
7810012599
7810019740
7810027430
7810033961
7810042933
7810049586
7810056422
7810063624
7810071375
7810078577
7810087916
7810093470
7810102564
7810109461
7810118067
7810127039
7810137171
7810144984
7810152125
7810159693
7810166956
7810173914
7810180994
7810186854
7810195459
7810203821
7810211451
7810216883
7810222437
7810231714
7810239099
7810247950
7810256250
7810263880
7810270410
7810278040
7810284510
7810291345
7810299280
7810306909
7810310999
7810322595
7810328882
7810336084
7810341882
7810349329
7810355005
7810365747
7810374353
7810382410
7810389551
7810397058
7810403833
7810411706
7810420068
7810428613
7810436120
7810445032
7810450830
7810459680
7810468286
7810477014
7810482995
7810492273
7810499719
7810506250
7810513391
7810520166
7810527551
7810533349
7810541711
7810550317
7810558007
7810564233
7810572534
7810580957
7810588159
7810593774
7810602807
7810609338
7810617761
7810623925
7810632592
7810638574
7810646691
7810652490
7810663049
7810669885
7810678185
7810686547
7810692467
7810700463
7810706017
7810714257
7810722130
7810728295
7810737389
7810744835
7810751916
7810758935
7810766564
7810773156
7810782677
7810790123
7810798119
7810806969
7810813744
7810819664
7810829186
7810835350
7810843407
7810849938
7810859154
7810861168
7810873314
7810879296
7810886620
7810893822
7810903038
7810911095
7810918541
7810926720
7810933617
7810939232
7810946678
7810953880
7810964317
7810972923
7810979820
7810986351
7810994774
7811002525
7811008202
7811017906
7811027000
7811034141
7811040794
7811047996
7811055748
7811063255
7811071068
7811078148
7811086815
7811094749
7811098594
7811110069
7811118065
7811124717
7811132896
7811143638
7811151268
7811158042
7811165733
7811174766
7811184104
7811190147
7811200035
7811209068
7811215293
7811223533
7811231223
7811235252
7811244407
7811250571
7811259788
7811267600
7811275169
7811282371
7811289756
7811296409
7811304587
7811312949
7811319663
7811329795
7811337485
7811343589
7811351218
7811358176
7811365500
7811372764
7811380515
7811387717
7811396445
7811402793
7811411887
7811417319
7811425010
7811431845
7811439536
7811448020
7811456076
7811460227
7811468894
7811476401
7811483359
7811489707
7811497336
7811503928
7811510825
7811516867
7811524558
7811529685
7811537009
7811543173
7811550986
7811555991
7811562643
7811569052
7811573874
7811580466
7811586691
7811593161
7811599570
7811605490
7811610373
7811616904
7811621908
7811628317
7811632834
7811639792
7811645956
7811651938
7811658713
7811663351
7811669638
7811674338
7811681906
7811688864
7811693136
7811699423
7811706503
7811712545
7811717794
7811724752
7811730429
7811737081
7811742636
7811748312
7811753317
7811760092
7811768209
7811773580
7811780416
7811786520
7811792013
7811798666
7811803915
7811810079
7811816854
7811821554
7811827535
7811834066
7811840902
7811846517
7811852560
7811857504
7811864034
7811868002
7811874105
7811880270
7811888387
7811892660
7811898641
7811905355
7811911031
7811916219
7811924093
7811929647
7811936910
7811942342
7811948751
7811954732
7811960836
7811967244
7811974141
7811979268
7811985067
7811990865
7811996541
7812002889
7812007405
7812014608
7812021932
7812028768
7812034627
7812039937
7812047689
7812053792
7812061666
7812068257
7812074910
7812081014
7812087789
7812093465
7812098897
7812106404
7812112691
7812118794
7812125569
7812131246
7812138204
7812144124
7812152303
7812157796
7812164754
7812172505
7812177998
7812183491
7812191060
7812198750
7812205464
7812209920
7812218953
7812224629
7812231282
7812235737
7812243184
7812251179
7812256062
7812263325
7812268391
7812275715
7812281331
7812288838
7812295491
7812300068
7812308857
7812314839
7812320637
7812326619
7812334126
7812343037
7812349079
7812356343
7812363240
7812370137
7812375813
7812383808
7812391072
7812396198
7812403279
7812408528
7812416157
7812421040
7812429829
7812435749
7812442341
7812448200
7812453693
7812460957
7812466755
7812474934
7812481708
7812486286
7812493427
7812500141
7812506122
7812512958
7812519672
7812526813
7812533954
7812539509
7812546711
7812553913
7812561970
7812570698
7812577594
7812584797
7812591388
7812598224
7812604267
7812609821
7812619037
7812623859
7812631061
7812638874
7812643451
7812651630
7812657123
7812663776
7812672382
7812679462
7812685687
7812692951
7812699848
7812708270
7812713641
7812722919
7812730060
7812737994
7812742999
7812750934
7812757648
7812765643
7812770892
7812779437
7812788348
7812799701
7812806903
7812812274
7812819354
7812827045
7812835528
7812841937
7812848590
7812857623
7812863666
7812869647
7812878924
7812891864
7812898578
7812906817
7812913897
7812921649
7812927447
7812934283
7812942950
7812950885
7812957476
7812966387
7812973773
7812980731
7812988238
7812994464
7813003497
7813009966
7813018206
7813024737
7813033160
7813042071
7813045794
7813054888
7813061724
7813070818
7813077044
7813084185
7813091021
7813098406
7813107012
7813115069
7813121660
7813131487
7813137835
7813148211
7813155291
7813164934
7813172991
7813182512
7813189959
7813197466
7813204485
7813213091
7813220659
7813227556
7813233843
7813242754
7813248125
7813255754
7813263323
7813269121
7813277849
7813284624
7813293413
7813299272
7813307634
7813315691
7813323015
7813328752
7813337419
7813343523
7813350847
7813358904
7813368181
7813376421
7813383623
7813389482
7813397295
7813403459
7813411394
7813421709
7813429277
7813435075
7813443132
7813450883
7813456010
7813464738
7813472184
7813482011
7813490007
7813496354
7813502885
7813512162
7813517961
7813526323
7813534501
7813543901
7813551530
7813557389
7813568254
7813578202
7813600907
7813609696
7813616532
7813623734
7813631364
7813638139
7813646806
7813652726
7813663285
7813669938
7813678483
7813686295
7813693070
7813698991
7813708756
7813718705
7813724808
7813734452
7813742692
7813750382
7813757523
7813764969
7813769059
7813781510
7813788834
7813797379
7813805191
7813811295
7813817215
7813827347
7813835038
7813843094
7813849015
7813856095
7813863358
7813871536
7813879044
7813883499
7813893997
7813902725
7813908524
7813914261
7813923416
7813931046
7813938309
7813943131
7813953568
7813959305
7813970169
7813977920
7813985306
7813991714
7814001358
7814009842
7814017471
7814024612
7814032913
7814038650
7814048050
7814053970
7814062393
7814069595
7814079117
7814088089
7814095108
7814102371
7814108474
7814116104
7814121963
7814131973
7814140152
7814146072
7814153152
7814162734
7814169021
7814176101
7814184951
7814191665
7814200515
7814208572
7814215957
7814223281
7814229873
7814237075
7814245132
7814252822
7814259841
7814267715
7814276565
7814286391
7814293777
7814304275
7814312209
7814322158
7814330459
7814337661
7814346816
7814353774
7814360183
7814367934
7814376113
7814384597
7814393203
7814401015
7814410170
7814417128
7814424453
7814433791
7814438735
7814447035
7814454421
7814462355
7814468886
7814475844
7814483107
7814488417
7814495314
7814501784
7814508620
7814514479
7814520339
7814526747
7814532057
7814538832
7814544997
7814550978
7814558791
7814564528
7814571730
7814576063
7814584547
7814591505
7814596754
7814604201
7814610548
7814615492
7814621351
7814629774
7814637282
7814642470
7814649305
7814655104
7814661818
7814667799
7814673842
7814680494
7814685438
7814691237
7814696608
7814702284
7814707899
7814714613
7814720045
7814725172
7814730787
7814735853
7814742445
7814749464
7814754896
7814761244
7814767408
7814771375
7814777723
7814784437
7814791212
7814797132
7814802992
7814808973
7814814588
7814820203
7814827222
7814833692
7814839185
7814844740
7814850050
7814855848
7814863233
7814869459
7814875867
7814881483
7814888380
7814893751
7814899793
7814905836
7814911878
7814918165
7814924451
7814930555
7814934705
7814942151
7814951185
7814957105
7814962720
7814969983
7814977002
7814984021
7814987500
7814997632
7815003614
7815011548
7815020520
7815027112
7815033582
7815041822
7815049024
7815057385
7815064771
7815071362
7815077771
7815085034
7815088880
7815096265
7815104016
7815110425
7815117139
7815121961
7815128491
7815135571
7815144055
7815150281
7815155835
7815162915
7815167920
7815174817
7815179394
7815188122
7815193432
7815200024
7815208325
7815214368
7815219861
7815223157
7815232495
7815240552
7815247265
7815252697
7815259411
7815266736
7815272290
7815279980
7815286755
7815293225
7815299206
7815303967
7815312390
7815317822
7815326062
7815331372
7815337902
7815344616
7815351147
7815356701
7815363171
7815370373
7815375805
7815383190
7815389416
7815395275
7815401379
7815407055
7815415173
7815421276
7815427685
7815434399
7815440685
7815446239
7815452831
7815459301
7815464794
7815471813
7815479198
7815483715
7815492077
7815497997
7815506542
7815512157
7815519420
7815526989
7815531750
7815539684
7815546459
7815553661
7815560863
7815569103
7815574901
7815582592
7815588329
7815595348
7815602489
7815610363
7815617687
7815623912
7815631786
7815638072
7815645275
7815651500
7815659069
7815667064
7815672435
7815679759
7815687633
7815693370
7815701976
7815709972
7815716930
7815724681
7815732677
7815740184
7815747325
7815754710
7815762828
7815769908
7815777598
7815786143
7815793468
7815799327
7815807261
7815813243
7815823375
7815832286
7815840465
7815847300
7815854564
7815862437
7815869944
7815876414
7815885203
7815893687
7815901377
7815908152
7815915538
7815921763
7815929026
7815937571
7815945567
7815951670
7815961131
7815967723
7815975108
7815980662
7815988108
7815995188
7816004771
7816012156
7816021189
7816028086
7816034678
7816040537
7816049631
7816056040
7816064524
7816072825
7816078623
7816086314
7816094370
7816101328
7816107310
7816115610
7816124643
7816132639
7816139109
7816146250
7816153452
7816161142
7816168650
7816176706
7816180735
7816190378
7816197947
7816206003
7816213327
7816222361
7816230905
7816238230
7816245920
7816252390
7816262399
7816269846
7816278147
7816283640
7816294016
7816302988
7816310739
7816318185
7816324045
7816329965
7816340219
7816347665
7816355661
7816364572
7816371591
7816379037
7816387887
7816395517
7816401498
7816412485
7816419870
7816427499
7816436715
7816443368
7816450509
7816460702
7816468393
7816477548
7816488656
7816497506
7816501535
7816512460
7816519479
7816525704
7816534982
7816541024
7816553475
7816558908
7816567941
7816573739
7816583688
7816588998
7816598397
7816605904
7816615487
7816622445
7816630257
7816637765
7816646859
7816653939
7816660836
7816668343
7816677865
7816684884
7816694710
7816701058
7816710396
7816718819
7816725289
7816736886
7816744210
7816751900
7816758736
7816768380
7816776925
7816784798
7816792855
7816804268
7816810128
7816819222
7816828987
7816835884
7816845040
7816851326
7816858467
7816868294
7816877022
7816882881
7816891548
7816897835
7816904244
7816913521
7816921639
7816930244
7816936836
7816945198
7816952461
7816959724
7816966438
7816974800
7816982429
7816990364
7816996834
7817005134
7817011970
7817018562
7817027168
7817033455
7817039619
7817049873
7817055916
7817064705
7817074653
7817081306
7817090278
7817097358
7817107307
7817115303
7817123237
7817131172
7817138923
7817146369
7817156806
7817163581
7817171821
7817179145
7817188667
7817195564
7817202277
7817209968
7817218452
7817224494
7817234382
7817243293
7817249030
7817258186
7817265510
7817273933
7817279975
7817290046
7817296638
7817306403
7817313605
7817321235
7817328071
7817336005
7817343573
7817355231
7817357673
7817372077
7817379828
7817389472
7817399421
7817406012
7817415839
7817422553
7817432135
7817437873
7817446540
7817451789
7817458441
7817465216
7817470892
7817476630
7817483588
7817488226
7817494818
7817501166
7817507575
7817513983
7817520819
7817526495
7817532843
7817538885
7817545721
7817549933
7817556708
7817562506
7817569464
7817574530
7817582526
7817587652
7817594183
7817601324
7817605841
7817614447
7817619757
7817625738
7817632879
7817637213
7817644537
7817650702
7817656988
7817662054
7817668829
7817675055
7817679693
7817687750
7817692938
7817697210
7817703924
7817710089
7817715216
7817721624
7817728216
7817733465
7817737432
7817744085
7817750555
7817755804
7817762274
7817769354
7817775091
7817781133
7817786199
7817792120
7817798223
7817803228
7817810247
7817815862
7817823187
7817829778
7817835638
7817842351
7817849676
7817855718
7817862737
7817867376
7817873357
7817879827
7817886358
7817893743
7817898748
7817904668
7817911199
7817917302
7817924322
7817931157
7817937261
7817944341
7817949224
7817956487
7817962651
7817968999
7817974614
7817983220
7817989751
7817997380
7818002507
7818009526
7818016606
7818023198
7818029668
7818035222
7818042485
7818050176
7818055608
7818062016
7818069097
7818075505
7818081670
7818088567
7818095586
7818102055
7818106450
7818113713
7818120793
7818127141
7818132512
7818139714
7818145451
7818152409
7818157170
7818165837
7818172368
7818178532
7818184453
7818190556
7818196354
7818201970
7818210148
7818215397
7818222050
7818228276
7818234868
7818241276
7818245915
7818254155
7818260685
7818267399
7818273991
7818282780
7818291142
7818297856
7818304020
7818311405
7818316654
7818325199
7818332340
7818337895
7818343266
7818350712
7818357365
7818364384
7818370243
7818375614
7818382389
7818388310
7818396366
7818403202
7818410038
7818416630
7818423344
7818431095
7818436466
7818445255
7818452579
7818459537
7818466129
7818471989
7818479557
7818486576
7818495365
7818501529
7818509098
7818515507
7818522587
7818531070
7818535587
7818544010
7818550174
7818556827
7818563602
7818568729
7818575992
7818581546
7818589908
7818597110
7818604312
7818611698
7818618473
7818623844
7818631839
7818638919
7818648990
7818654361
7818662235
7818667240
7818675113
7818681156
7818689090
7818695133
7818703616
7818710513
7818718265
7818724918
7818730350
7818737979
7818743289
7818751224
7818759036
7818766055
7818773074
7818782474
7818788699
7818794925
7818803348
7818810122
7818817203
7818824099
7818831485
7818838870
7818846194
7818853518
7818860843
7818867007
7818875247
7818883120
7818890811
7818897586
7818905215
7818911074
7818920962
7818931460
7818938540
7818945803
7818954531
7818962771
7818969546
7818978762
7818987673
7818995425
7819002200
7819011111
7819017275
7819026064
7819031863
7819041811
7819049807
7819058413
7819065554
7819072207
7819081179
7819090212
7819096560
7819104250
7819114809
7819122866
7819130373
7819138796
7819147890
7819155214
7819165773
7819174685
7819180849
7819187258
7819195558
7819201845
7819210573
7819218202
7819226076
7819233888
7819242616
7819249025
7819255617
7819264345
7819270082
7819279299
7819287904
7819293581
7819302370
7819309938
7819315675
7819322511
7819331117
7819336366
7819345766
7819353822
7819362245
7819366823
7819375856
7819382997
7819388795
7819396791
7819405763
7819412904
7819418763
7819427186
7819434755
7819439576
7819448243
7819454591
7819465150
7819473695
7819479982
7819488404
7819494203
7819501161
7819509339
7819515504
7819524964
7819531251
7819539735
7819545899
7819554322
7819560548
7819569032
7819575196
7819585267
7819593263
7819599549
7819607179
7819614381
7819622437
7819628236
7819633973
7819643311
7819652711
7819658570
7819667298
7819677186
7819683228
7819690369
7819699341
7819708924
7819715882
7819725403
7819731446
7819740418
7819748963
7819755738
7819764832
7819772278
7819779297
7819786743
7819794312
7819800598
7819809632
7819816590
7819825745
7819832154
7819839844
7819849915
7819858277
7819864807
7819874573
7819880310
7819888977
7819898193
7819905579
7819911560
7819920471
7819928345
7819938293
7819943909
7819952209
7819957764
7819966553
7819972839
7819980957
7819987854
7819999023
7820007446
7820013122
7820021240
7820029358
7820034301
7820042907
7820048645
7820058654
7820066101
7820073608
7820080871
7820087341
7820093322
7820101562
7820107910
7820118103
7820126281
7820134277
7820139465
7820147766
7820154052
7820162841
7820168090
7820177062
7820185607
7820193542
7820200805
7820206725
7820214172
7820222350
7820227599
7820237914
7820245666
7820252563
7820259643
7820265746
7820273742
7820282775
7820289855
7820298644
7820306518
7820313476
7820320861
7820328490
7820333495
7820339049
7820348388
7820355529
7820364318
7820369994
7820378051
7820385802
7820394225
7820402465
7820409972
7820416197
7820421324
7820428038
7820433409
7820440734
7820445128
7820452574
7820458739
7820465575
7820471861
7820476561
7820482970
7820491209
7820497191
7820503844
7820509093
7820515807
7820522581
7820526793
7820534605
7820541136
7820548033
7820555113
7820559386
7820565428
7820572508
7820578551
7820585753
7820592344
7820598814
7820603941
7820611815
7820617857
7820624083
7820629820
7820635862
7820642088
7820646788
7820652708
7820658506
7820663816
7820669188
7820674375
7820681028
7820685423
7820692686
7820698423
7820704771
7820710691
7820715635
7820721739
7820727110
7820733152
7820740110
7820745115
7820750852
7820756956
7820762937
7820769407
7820774473
7820782285
7820789243
7820793455
7820800718
7820805601
7820812620
7820817747
7820823850
7820829771
7820836484
7820841733
7820848691
7820854917
7820860959
7820867612
7820875364
7820881223
7820886899
7820892881
7820901121
7820907834
7820913266
7820920713
7820926938
7820934385
7820938535
7820946714
7820954282
7820960752
7820968198
7820973996
7820980588
7820986264
7820993283
7821000913
7821007016
7821013242
7821019101
7821025632
7821032102
7821039121
7821044492
7821053037
7821059262
7821062924
7821072446
7821078061
7821084775
7821091367
7821098447
7821104306
7821111447
7821116574
7821122983
7821129697
7821137631
7821143735
7821151120
7821155942
7821162839
7821169980
7821177548
7821184628
7821191647
7821197690
7821202572
7821210141
7821215695
7821222348
7821229123
7821235592
7821242550
7821247433
7821254818
7821260250
7821266720
7821274411
7821281002
7821288632
7821294796
7821301388
7821307431
7821313473
7821319882
7821326962
7821333309
7821339657
7821346981
7821353024
7821360470
7821367672
7821373409
7821381405
7821388851
7821395321
7821401180
7821407589
7821414181
7821421444
7821429867
7821436092
7821442989
7821449093
7821456051
7821462581
7821470150
7821478573
7821485409
7821490719
7821497310
7821504329
7821511898
7821517269
7821525325
7821532894
7821542171
7821548030
7821556514
7821562557
7821569393
7821578060
7821585262
7821592159
7821601680
7821607967
7821616451
7821622737
7821630916
7821639339
7821647640
7821654720
7821661861
7821668697
7821676387
7821682552
7821688960
7821698848
7821704890
7821713618
7821720760
7821728816
7821735591
7821742061
7821749507
7821755916
7821764644
7821771052
7821777156
7821785029
7821791194
7821797908
7821806575
7821812373
7821820063
7821827815
7821833979
7821840205
7821848750
7821857295
7821863276
7821871760
7821879328
7821884883
7821893550
7821901301
7821907282
7821915522
7821924006
7821932673
7821941462
7821949030
7821956965
7821964961
7821973505
7821982539
7821989985
7821998347
7822004206
7822012629
7822019587
7822028620
7822033686
7822044611
7822053034
7822059199
7822067805
7822074274
7822081721
7822090265
7822098200
7822106928
7822114863
7822121149
7822130121
7822136286
7822143671
7822152094
7822157404
7822167170
7822174860
7822181086
7822189752
7822195673
7822203791
7822209589
7822220880
7822227045
7822235712
7822241510
7822249567
7822255548
7822265436
7822271539
7822278314
7822286371
7822295465
7822302728
7822312250
7822318842
7822327814
7822334039
7822343194
7822350091
7822358514
7822364801
7822373773
7822379449
7822387262
7822396966
7822402093
7822412103
7822420526
7822426812
7822435357
7822443475
7822450555
7822458734
7822467889
7822474237
7822484185
7822491326
7822499200
7822506463
7822513787
7822519891
7822528802
7822537652
7822544488
7822550530
7822559869
7822565667
7822573113
7822580865
7822589532
7822598687
7822604668
7822613213
7822620660
7822626458
7822634576
7822640923
7822648003
7822657830
7822663506
7822671929
7822679986
7822685784
7822692132
7822700676
7822706780
7822715569
7822724175
7822730034
7822737847
7822743767
7822752739
7822758355
7822765190
7822776909
7822782341
7822791252
7822799736
7822806023
7822812493
7822821282
7822827324
7822836846
7822843132
7822851555
7822857720
7822864311
7822871330
7822879631
7822885613
7822896965
7822902885
7822911797
7822917107
7822926201
7822934868
7822940788
7822946831
7822955925
7822965263
7822972832
7822980217
7822989067
7822996269
7823002922
7823012443
7823017143
7823029045
7823037712
7823044487
7823052543
7823059501
7823067619
7823075676
7823083732
7823093070
7823101310
7823107475
7823114128
7823122978
7823130790
7823138786
7823147147
7823154105
7823161979
7823167838
7823177360
7823184013
7823191703
7823199577
7823206962
7823213798
7823223014
7823230643
7823237723
7823245170
7823253043
7823261161
7823269706
7823277030
7823282523
7823289237
7823296866
7823304679
7823310355
7823318107
7823323111
7823330558
7823335257
7823342826
7823349112
7823354972
7823361808
7823368338
7823373954
7823380851
7823386771
7823393729
7823401541
7823407157
7823413809
7823419180
7823425101
7823430960
7823436331
7823443350
7823450980
7823456534
7823462515
7823468680
7823476126
7823480826
7823487601
7823494376
7823500357
7823507498
7823512503
7823519400
7823525381
7823532889
7823539236
7823544119
7823549185
7823555411
7823560599
7823565787
7823572561
7823576956
7823582998
7823589651
7823595144
7823600088
7823605398
7823612784
7823618887
7823624441
7823629751
7823636099
7823641775
7823648245
7823653006
7823659109
7823665029
7823671621
7823678274
7823684500
7823689443
7823696829
7823702932
7823708181
7823714041
7823721060
7823727041
7823733328
7823739126
7823745352
7823752493
7823757497
7823766348
7823771047
7823778432
7823784841
7823789602
7823796255
7823801504
7823809194
7823814687
7823822134
7823827810
7823834890
7823841360
7823847463
7823852285
7823858999
7823865896
7823872976
7823880544
7823885671
7823892080
7823899404
7823906789
7823911306
7823919667
7823925649
7823932363
7823936940
7823944387
7823951711
7823958120
7823965200
7823971120
7823977590
7823984487
7823989003
7823994741
7824004567
7824011159
7824016835
7824022634
7824028615
7824035573
7824041737
7824049245
7824055287
7824060048
7824068349
7824073293
7824080190
7824086537
7824094899
7824101002
7824106740
7824112660
7824120167
7824125905
7824134083
7824139516
7824147694
7824153920
7824159718
7824166005
7824173695
7824180958
7824186268
7824194691
7824200062
7824207081
7824212941
7824220082
7824227894
7824233021
7824241627
7824248890
7824254750
7824260243
7824267201
7824272877
7824280812
7824288136
7824295521
7824301075
7824308277
7824314747
7824320423
7824328907
7824335682
7824341663
7824348499
7824354115
7824361805
7824366871
7824373096
7824380726
7824388782
7824394032
7824401539
7824409107
7824415089
7824421131
7824428577
7824435535
7824443470
7824451710
7824457325
7824466480
7824472584
7824481800
7824485706
7824495899
7824503650
7824509937
7824516040
7824524219
7824530933
7824537830
7824544544
7824552539
7824558155
7824566394
7824573108
7824581104
7824588550
7824596363
7824604175
7824610217
7824617725
7824624866
7824631824
7824638416
7824644885
7824653919
7824661487
7824667224
7824675281
7824680652
7824689502
7824697192
7824704272
7824712695
7824719897
7824726672
7824734912
7824742541
7824746509
7824756946
7824765735
7824774341
7824778674
7824788318
7824795764
7824803088
7824809802
7824817981
7824825976
7824833300
7824837878
7824846728
7824852648
7824862597
7824871386
7824879443
7824887438
7824894763
7824903369
7824910754
7824918383
7824927844
7824937670
7824944445
7824954821
7824961657
7824968859
7824974657
7824981982
7824990649
7824997301
7825003649
7825013842
7825020312
7825027636
7825033861
7825043017
7825049364
7825056505
7825067125
7825072863
7825081347
7825088976
7825095080
7825102648
7825108873
7825114306
7825124193
7825133532
7825139635
7825147631
7825153429
7825162523
7825168444
7825175218
7825184435
7825190721
7825199083
7825205126
7825213854
7825219652
7825226854
7825235399
7825243639
7825252794
7825258958
7825266100
7825274583
7825281114
7825288072
7825296251
7825304124
7825311510
7825320848
7825328233
7825334337
7825343431
7825349656
7825356798
7825365892
7825372972
7825381395
7825386827
7825395311
7825401048
7825409715
7825416734
7825423692
7825433580
7825440049
7825448533
7825454454
7825463121
7825469468
7825476609
7825486436
7825492600
7825501512
7825509812
7825515733
7825523911
7825529954
7825540147
7825546372
7825556748
7825562913
7825571091
7825577561
7825583421
7825592881
7825600693
7825606919
7825615159
7825623704
7825631028
7825638779
7825646226
7825653245
7825659592
7825665879
7825675644
7825683396
7825691208
7825697678
7825707016
7825714707
7825721482
7825728928
7825737534
7825744675
7825752610
7825757431
7825766159
7825772629
7825783921
7825792832
7825799240
7825805405
7825812668
7825821457
7825830429
7825838913
7825845322
7825854660
7825860703
7825869247
7825878647
7825885361
7825895859
7825902206
7825911301
7825917160
7825925339
7825931137
7825939499
7825948105
7825954086
7825963424
7825972336
7825979171
7825986435
7825992782
7825999984
7826006210
7826017074
7826024032
7826031906
7826039535
7826047042
7826053939
7826061264
7826069076
7826077926
7826085678
7826093490
7826101364
7826109298
7826114974
7826122543
7826130843
7826136825
7826146224
7826153610
7826157699
7826169296
7826175460
7826182296
7826189071
7826200729
7826207442
7826215926
7826222640
7826229110
7826237105
7826243819
7826248885
7826258712
7826265731
7826272750
7826278670
7826284957
7826289290
7826295760
7826302657
7826309615
7826314986
7826320723
7826327559
7826332381
7826340132
7826347213
7826354048
7826360884
7826366988
7826372420
7826378462
7826384993
7826389998
7826397444
7826403670
7826410262
7826415877
7826422469
7826428328
7826433150
7826439864
7826447066
7826453963
7826461470
7826467390
7826472639
7826480330
7826485701
7826492598
7826496443
7826502913
7826508894
7826513655
7826518416
7826526961
7826533064
7826537153
7826543745
7826548933
7826554304
7826559187
7826565718
7826571943
7826577681
7826584395
7826589521
7826597212
7826602034
7826607954
7826615095
7826621687
7826626204
7826632490
7826638472
7826644331
7826648909
7826656172
7826661238
7826667585
7826673689
7826679670
7826687849
7826693647
7826700361
7826705183
7826711591
7826718122
7826723921
7826731245
