8208259077
8208264509
8208269514
8208274335
8208278669
8208284162
8208290571
8208296186
8208301252
8208306623
8208311872
8208317548
8208322980
8208330732
8208338056
8208345075
8208351850
8208358808
8208364972
8208371320
8208376874
8208382489
8208388776
8208396711
8208403119
8208409955
8208416303
8208423078
8208429547
8208436566
8208442853
8208449994
8208457501
8208466596
8208472516
8208481549
8208489606
8208497174
8208504865
8208511273
8208519147
8208529401
8208534100
8208542096
8208549664
8208557599
8208564130
8208572797
8208578839
8208585126
8208593243
8208601422
8208608075
8208616376
8208622540
8208630108
8208637066
8208644940
8208651959
8208661358
8208666058
8208673443
8208681805
8208688946
8208696942
8208705914
8208713482
8208720135
8208729168
8208736004
8208745587
8208755413
8208763165
8208770184
8208777203
8208785259
8208790691
8208801312
8208808453
8208815594
8208824566
8208831829
8208839519
8208847637
8208854351
8208861004
8208871014
8208877544
8208886028
8208892986
8208901104
8208907696
8208915630
8208923565
8208931072
8208939373
8208947002
8208954082
8208962383
8208968609
8208978252
8208984844
8208993938
8209001140
8209008892
8209014995
8209024761
8209032573
8209039836
8209050334
8209058330
8209065349
8209073955
8209084636
8209093364
8209100200
8209108562
8209116618
8209122661
8209130779
8209140178
8209147380
8209153972
8209162517
8209170451
8209178569
8209186381
8209193217
8209200297
8209210185
8209217265
8209225078
8209233500
8209240642
8209247172
8209255717
8209262065
8209270305
8209279338
8209286540
8209295085
8209302470
8209309611
8209317363
8209326396
8209333354
8209342204
8209350443
8209357585
8209365214
8209374308
8209382182
8209388041
8209396037
8209403056
8209413371
8209420878
8209428996
8209434916
8209442728
8209449931
8209458292
8209467997
8209475687
8209483988
8209491739
8209499857
8209507425
8209515238
8209523295
8209532633
8209540751
8209548136
8209558146
8209566263
8209574930
8209583170
8209591959
8209598795
8209608316
8209617594
8209625894
8209634073
8209643350
8209650858
8209660684
8209670999
8209678934
8209688272
8209700235
8209706400
8209714761
8209724039
8209730630
8209738138
8209744608
8209751504
8209760049
8209768228
8209776651
8209783670
8209792581
8209800516
8209806253
8209815896
8209822488
8209830606
8209838296
8209845010
8209853311
8209861001
8209869607
8209876748
8209885537
8209892923
8209900247
8209909890
8209917581
8209924783
8209932962
8209939370
8209947610
8209957009
8209964822
8209973123
8209980508
8209987649
8209996011
8210003701
8210011758
8210019936
8210027688
8210036782
8210044106
8210054116
8210061928
8210068642
8210077248
8210084450
8210092934
8210100991
8210108193
8210118081
8210124917
8210134682
8210142189
8210150551
8210159646
8210168129
8210175331
8210183083
8210191689
8210200051
8210208412
8210215737
8210223061
8210230751
8210237526
8210246803
8210253700
8210260903
8210267922
8210280922
8210291115
8210299355
8210308449
8210316505
8210324440
8210334022
8210344337
8210353126
8210360451
8210368019
8210376320
8210385048
8210392921
8210400307
8210409767
8210417885
8210424659
8210432716
8210441322
8210448951
8210456520
8210464088
8210470680
8210478859
8210486732
8210494789
8210502235
8210509681
8210517494
8210524757
8210532630
8210540260
8210548072
8210555457
8210564185
8210571327
8210579078
8210582740
8210592323
8210603309
8210610267
8210619300
8210625770
8210634193
8210642188
8210650001
8210656898
8210665931
8210672950
8210678565
8210686011
8210691993
8210699378
8210704932
8210712378
8210718909
8210726539
8210734107
8210739966
8210747229
8210753699
8210761084
8210769141
8210774451
8210781165
8210788672
8210793982
8210802832
8210809241
8210815345
8210823096
8210828711
8210836280
8210844153
8210851355
8210858557
8210865149
8210871192
8210877417
8210883460
8210892188
8210898840
8210906348
8210912268
8210917029
8210925269
8210934058
8210939612
8210950110
8210956030
8210963782
8210970007
8210978308
8210983191
8210990393
8210997473
8211005285
8211011267
8211018713
8211024695
8211031836
8211038122
8211045202
8211052771
8211060217
8211065039
8211071936
8211077490
8211087255
8211093847
8211100805
8211107031
8211114233
8211120214
8211126989
8211134924
8211142309
8211150060
8211157141
8211163793
8211170812
8211178442
8211187170
8211194860
8211200353
8211209325
8211214819
8211223241
8211231237
8211239843
8211248876
8211255834
8211261877
8211271093
8211276525
8211285924
8211291356
8211301427
8211309484
8211316137
8211324560
8211331456
8211337499
8211344762
8211353307
8211360753
8211368688
8211376012
8211382970
8211390477
8211396215
8211403905
8211409642
8211418370
8211426244
8211435216
8211441136
8211449437
8211455296
8211461827
8211470738
8211476415
8211485082
8211491429
8211500279
8211506627
8211515416
8211521886
8211528600
8211536229
8211544102
8211552220
8211561558
8211567967
8211577000
8211585911
8211592076
8211597996
8211607396
8211619481
8211626927
8211636937
8211644261
8211652867
8211661045
8211669407
8211681553
8211690159
8211698765
8211706700
8211713841
8211721592
8211726780
8211735508
8211742161
8211750889
8211757603
8211764378
8211771946
8211778721
8211785740
8211793613
8211800449
8211809666
8211813633
8211823154
8211831455
8211838962
8211844883
8211852451
8211860813
8211868076
8211873813
8211881931
8211889683
8211895969
8211904636
8211911167
8211920322
8211926182
8211934848
8211940464
8211949436
8211956394
8211965183
8211973545
8211981418
8211988620
8211996555
8212002292
8212011142
8212020297
8212026279
8212033786
8212041965
8212049716
8212058261
8212065830
8212071811
8212079685
8212087375
8212095432
8212102084
8212111484
8212117526
8212127109
8212135959
8212144199
8212150607
8212157931
8212167514
8212176547
8212182834
8212191318
8212198825
8212206637
8212214084
8212221286
8212229464
8212238376
8212246371
8212253085
8212261264
8212267855
8212277194
8212283908
8212291049
8212300997
8212308383
8212317782
8212324252
8212331698
8212338534
8212346591
8212354281
8212362460
8212370516
8212378573
8212387362
8212395419
8212402071
8212411166
8212418734
8212426241
8212437350
8212450655
8212457186
8212465731
8212474520
8212483004
8212489474
8212499544
8212505892
8212512972
8212520052
8212529757
8212535677
8212543306
8212551668
8212559359
8212565462
8212573153
8212581331
8212588839
8212595003
8212602205
8212610262
8212616243
8212624971
8212632662
8212640535
8212648836
8212654817
8212660860
8212669649
8212675691
8212684541
8212691377
8212699800
8212704378
8212713106
8212718355
8212726961
8212731844
8212739107
8212749605
8212756868
8212763826
8212769502
8212778840
8212784639
8212792390
8212799348
8212808870
8212814424
8212824373
8212834810
8212841584
8212851045
8212857515
8212867646
8212874177
8212883821
8212890412
8212899568
8212906037
8212912690
8212922395
8212928987
8212938996
8212947114
8212954438
8212960420
8212970979
8212978730
8212984650
8212994233
8213000459
8213009492
8213017792
8213024201
8213033601
8213040192
8213048798
8213056428
8213064973
8213072602
8213079682
8213087861
8213095856
8213104096
8213108490
8213118317
8213127045
8213135224
8213145050
8213152192
8213158844
8213166718
8213171112
8213183258
8213189423
8213197846
8213205109
8213213593
8213218598
8213232636
8213241181
8213247589
8213257904
8213267120
8213276398
8213287933
8213296783
8213305328
8213312714
8213320892
8213328705
8213337006
8213343597
8213350372
8213359527
8213366546
8213374908
8213381134
8213389190
8213395599
8213403534
8213411224
8213415863
8213424225
8213429351
8213434845
8213441558
8213450714
8213456390
8213462677
8213469635
8213474090
8213479522
8213486724
8213493072
8213498565
8213504852
8213510833
8213517425
8213525726
8213531280
8213536590
8213544158
8213550689
8213557769
8213563384
8213569610
8213575347
8213581329
8213589263
8213595367
8213599639
8213606719
8213614288
8213620269
8213626006
8213633758
8213638579
8213643340
8213650115
8213654632
8213661346
8213667144
8213673736
8213679839
8213686309
8213691863
8213697600
8213702178
8213707610
8213714324
8213719451
8213726043
8213731475
8213737151
8213743499
8213749053
8213753936
8213760588
8213766265
8213772734
8213777983
8213784453
8213790312
8213797148
8213805266
8213813872
8213819914
8213827544
8213833586
8213840056
8213846831
8213853850
8213859038
8213865386
8213872405
8213879607
8213885832
8213892485
8213897673
8213903838
8213910673
8213916472
8213922514
8213929167
8213935576
8213943205
8213947539
8213955839
8213962248
8213969023
8213977019
8213983732
8213990202
8213997648
8214004606
8214011320
8214017729
8214022490
8214033476
8214040312
8214047392
8214053556
8214061125
8214068144
8214074552
8214080412
8214087065
8214093962
8214101652
8214107023
8214114042
8214121549
8214126188
8214132658
8214139555
8214147062
8214151579
8214158476
8214163419
8214170072
8214175871
8214183378
8214188383
8214198087
8214204618
8214212247
8214219389
8214226469
8214233793
8214241727
8214247770
8214254484
8214261259
8214268278
8214274076
8214282865
8214290494
8214297880
8214303983
8214311185
8214316556
8214325834
8214332059
8214338895
8214350187
8214358304
8214364896
8214372953
8214380765
8214389432
8214396451
8214403836
8214410245
8214417874
8214423551
8214429776
8214436978
8214443570
8214450833
8214455411
8214462857
8214468961
8214476529
8214482571
8214489957
8214495511
8214502896
8214508450
8214515897
8214523343
8214528958
8214536832
8214541653
8214549405
8214554227
8214561734
8214568143
8214575650
8214582547
8214588955
8214595547
8214601834
8214608365
8214614712
8214620572
8214628506
8214636380
8214642178
8214650784
8214657925
8214665005
8214670742
8214677883
8214685696
8214691433
8214699673
8214706814
8214713772
8214722195
8214728848
8214735989
8214743008
8214751431
8214758328
8214765652
8214772976
8214780117
8214787563
8214794521
8214804043
8214810451
8214817959
8214823757
8214831997
8214840237
8214847683
8214853481
8214861049
8214868862
8214876552
8214884426
8214892055
8214898281
8214906521
8214914394
8214919948
8214929104
8214935207
8214944057
8214949733
8214958522
8214965236
8214973842
8214980922
8214987880
8214995082
8215002529
8215010585
8215018764
8215025783
8215033901
8215041103
8215052394
8215060024
8215074611
8215080409
8215090602
8215098048
8215105434
8215113429
8215123073
8215129970
8215138881
8215145656
8215152492
8215159328
8215166835
8215174220
8215184047
8215191859
8215198878
8215205348
8215212733
8215221217
8215228846
8215232753
8215242274
8215248133
8215257594
8215263758
8215272364
8215280238
8215288844
8215294825
8215302149
8215311183
8215318812
8215326808
8215332118
8215340907
8215347865
8215356898
8215364283
8215371302
8215377345
8215384791
8215391383
8215401026
8215408045
8215415552
8215419764
8215431788
8215438990
8215446619
8215453272
8215460840
8215469263
8215475062
8215484156
8215489344
8215499292
8215507654
8215514063
8215522486
8215529871
8215538843
8215546350
8215553553
8215561731
8215569483
8215577783
8215586450
8215593103
8215600427
8215611292
8215617700
8215624903
8215634912
8215641809
8215651331
8215659143
8215666589
8215673120
8215681238
8215687769
8215698206
8215705164
8215713403
8215722070
8215730371
8215736780
8215745202
8215751611
8215758996
8215769433
8215776819
8215784204
8215790857
8215801172
8215806604
8215816858
8215824304
8215832910
8215841394
8215849939
8215857751
8215866784
8215873986
8215883386
8215892663
8215898889
8215909020
8215915978
8215926232
8215932702
8215942346
8215949365
8215958093
8215963952
8215972924
8215978722
8215987511
8215995202
8216002038
8216009545
8216016503
8216020409
8216032677
8216040368
8216047204
8216055382
8216062401
8216066552
8216076562
8216082482
8216092064
8216098595
8216108605
8216115502
8216123192
8216129296
8216138024
8216144005
8216152611
8216161095
8216169335
8216175255
8216183678
8216189415
8216196251
8216205162
8216212425
8216221398
8216227440
8216236961
8216243187
8216251305
8216258507
8216266930
8216275963
8216286949
8216293785
8216302086
8216310020
8216318626
8216326012
8216336326
8216340721
8216351402
8216358360
8216367576
8216374168
8216384178
8216390770
8216397545
8216407249
8216413902
8216424217
8216431053
8216440696
8216447410
8216454551
8216463157
8216470115
8216476951
8216483970
8216490623
8216497398
8216503501
8216510948
8216516624
8216522727
8216528953
8216534995
8216542564
8216548118
8216554099
8216561851
8216567649
8216573142
8216578880
8216585838
8216592612
8216597434
8216604331
8216610496
8216616721
8216621238
8216631858
8216638206
8216647788
8216655845
8216661765
8216669761
8216675071
8216683738
8216688865
8216696067
8216702475
8216708823
8216713523
8216719992
8216727073
8216731711
8216739219
8216743430
8216750205
8216756125
8216761557
8216767600
8216773215
8216779380
8216784934
8216790976
8216798056
8216803305
8216809592
8216814536
8216821127
8216826376
8216832663
8216839011
8216844687
8216851035
8216855490
8216861655
8216868491
8216874899
8216879965
8216887167
8216892844
8216897848
8216904379
8216911154
8216915243
8216921469
8216928305
8216934286
8216940878
8216947714
8216953512
8216960287
8216965902
8216970785
8216977987
8216983114
8216990316
8216996054
8217002707
8217008505
8217015219
8217020651
8217027487
8217034201
8217038717
8217045675
8217053427
8217060995
8217066488
8217074484
8217080160
8217087057
8217094992
8217100179
8217108236
8217113119
8217121847
8217128134
8217135153
8217142233
8217150106
8217156454
8217163595
8217169576
8217176717
8217182149
8217189413
8217195699
8217203023
8217209920
8217214925
8217222066
8217230245
8217237630
8217244832
8217251546
8217259542
8217267415
8217272481
8217281026
8217288961
8217295064
8217301473
8217307698
8217314595
8217320943
8217329061
8217336385
8217341756
8217348958
8217355916
8217362447
8217368550
8217375081
8217382588
8217387532
8217394368
8217400777
8217407063
8217413655
8217420613
8217427327
8217433431
8217439961
8217447957
8217453450
8217461263
8217466695
8217474202
8217480794
8217488057
8217494344
8217500752
8217506978
8217514424
8217521016
8217525960
8217533955
8217540852
8217547200
8217554402
8217560628
8217567463
8217575215
8217578694
8217588459
8217594136
8217600483
8217606587
8217614582
8217620625
8217627827
8217633198
8217640522
8217647419
8217654072
8217660969
8217668354
8217674153
8217681538
8217688984
8217694477
8217701313
8217709248
8217714497
8217722431
8217730488
8217737568
8217742573
8217750507
8217757038
8217765034
8217772236
8217778400
8217785542
8217793537
8217801105
8217806538
8217812397
8217820392
8217827412
8217835529
8217840656
8217848713
8217855182
8217863666
8217870685
8217877399
8217885273
8217892963
8217904926
8217912616
8217922443
8217928791
8217936237
8217944416
8217952045
8217960895
8217966876
8217974994
8217981281
8217988239
8217996417
8218002826
8218011615
8218018268
8218026813
8218032306
8218040302
8218046039
8218053973
8218060931
8218069720
8218074847
8218082843
8218089618
8218095904
8218103900
8218110187
8218117145
8218125384
8218132464
8218138751
8218146625
8218153338
8218161212
8218168109
8218176104
8218182879
8218188739
8218198077
8218204608
8218211016
8218218036
8218224871
8218231707
8218238543
8218246112
8218253619
8218259478
8218268267
8218274737
8218281573
8218288653
8218295428
8218304156
8218311297
8218318011
8218323260
8218330462
8218337664
8218343218
8218349383
8218357928
8218366717
8218372942
8218381792
8218387774
8218399798
8218406328
8218415118
8218420916
8218429339
8218437029
8218444720
8218449969
8218459063
8218467058
8218473345
8218482927
8218489214
8218498247
8218504412
8218513689
8218520037
8218526079
8218535845
8218545000
8218551592
8218561357
8218567522
8218576250
8218582353
8218591936
8218599687
8218608293
8218616777
8218625383
8218635332
8218647844
8218658525
8218665117
8218676408
8218682512
8218693254
8218701433
8218710954
8218717363
8218724382
8218732927
8218739702
8218748063
8218757158
8218763933
8218771013
8218778703
8218787736
8218795060
8218801957
8218809282
8218816117
8218823747
8218831254
8218837846
8218847612
8218854325
8218861833
8218870439
8218878007
8218885636
8218891374
8218900224
8218907670
8218914262
8218922196
8218930131
8218935563
8218944413
8218951310
8218960221
8218965775
8218974747
8218981950
8218990678
8218995988
8219004838
8219012284
8219019974
8219026017
8219036515
8219042252
8219050553
8219060135
8219066239
8219076249
8219081376
8219090897
8219097062
8219106705
8219115494
8219121720
8219130082
8219137528
8219143692
8219154190
8219158524
8219169815
8219177994
8219186295
8219193009
8219201737
8219210343
8219218521
8219225235
8219233170
8219240616
8219248245
8219257767
8219264114
8219274246
8219279129
8219289444
8219296463
8219304886
8219312881
8219321182
8219328811
8219334915
8219343460
8219351883
8219358474
8219365799
8219375808
8219383438
8219390884
8219397537
8219405899
8219414627
8219422744
8219430008
8219439529
8219453262
8219461013
8219468704
8219477493
8219485183
8219493057
8219501296
8219509719
8219517532
8219525283
8219531265
8219540054
8219548721
8219554397
8219562270
8219570937
8219577102
8219583999
8219593032
8219601211
8219607131
8219614883
8219621596
8219629104
8219635818
8219644118
8219649734
8219656020
8219663222
8219668532
8219675368
8219681228
8219688430
8219696791
8219702346
8219710402
8219717604
8219723708
8219729323
8219737014
8219743605
8219749709
8219755751
8219763381
8219769545
8219775099
8219780776
8219788344
8219793227
8219800856
8219807692
8219813246
8219819472
8219826430
8219832472
8219837965
8219843214
8219850172
8219856215
8219863844
8219871901
8219877394
8219883192
8219887587
8219893874
8219899672
8219906996
8219911513
8219918654
8219924147
8219929457
8219936232
8219942518
8219947157
8219953505
8219959364
8219965895
8219970289
8219979017
8219985487
8219991835
8219998121
8220003248
8220008863
8220016005
8220022657
8220027479
8220033277
8220039503
8220044386
8220050550
8220057203
8220063856
8220070265
8220075453
8220081495
8220088148
8220095655
8220101759
8220108961
8220118849
8220125013
8220132154
8220137464
8220144422
8220149610
8220157545
8220165235
8220169752
8220177259
8220181898
8220188734
8220193311
8220202039
8220209119
8220214368
8220220777
8220227491
8220232740
8220239332
8220244398
8220251600
8220256971
8220264173
8220270826
8220277356
8220282605
8220289808
8220296705
8220303174
8220308728
8220315015
8220322766
8220327954
8220336316
8220343091
8220349317
8220355603
8220361768
8220368299
8220376233
8220381238
8220388989
8220394849
8220402905
8220408643
8220415845
8220421277
8220428479
8220433667
8220440930
8220446057
8220453320
8220461133
8220465894
8220472119
8220479321
8220485852
8220492322
8220498608
8220505017
8220513013
8220519299
8220525342
8220530469
8220538281
8220543225
8220552929
8220558606
8220567395
8220574048
8220580945
8220588086
8220594433
8220599865
8220606274
8220613049
8220620495
8220625500
8220632580
8220638562
8220644604
8220653210
8220660351
8220666455
8220673351
8220679638
8220687023
8220693981
8220702343
8220710522
8220715466
8220724865
8220730419
8220738903
8220745617
8220752880
8220759655
8220763805
8220772228
8220778210
8220783642
8220791943
8220798595
8220805248
8220810863
8220817455
8220823437
8220828930
8220836681
8220846874
8220854564
8220860485
8220867809
8220875377
8220882152
8220889415
8220897228
8220902416
8220909618
8220916027
8220922863
8220930065
8220936046
8220942821
8220948802
8220955028
8220962474
8220968944
8220975780
8220982250
8220991344
8220999034
8221007335
8221013622
8221021556
8221029979
8221036571
8221043285
8221050975
8221059520
8221065257
8221074229
8221081798
8221088939
8221095225
8221103099
8221111888
8221118480
8221126231
8221133677
8221140758
8221148021
8221155711
8221162791
8221171275
8221176646
8221186290
8221192942
8221199412
8221207896
8221215953
8221223826
8221231517
8221239390
8221248118
8221254161
8221260813
8221270213
8221275645
8221286509
8221295603
8221302866
8221311594
8221318736
8221325633
8221337534
8221344492
8221353403
8221360422
8221366160
8221374827
8221382944
8221390208
8221397776
8221405405
8221412791
8221418955
8221427561
8221435496
8221442881
8221449167
8221457529
8221463877
8221470713
8221479563
8221486094
8221495371
8221502146
8221509226
8221518320
8221525827
8221535044
8221542673
8221550608
8221561655
8221568674
8221575876
8221586069
8221592600
8221601633
8221607309
8221615488
8221623056
8221629953
8221638071
8221646433
8221653085
8221661325
8221669443
8221675302
8221683420
8221692270
8221699960
8221707529
8221715585
8221723642
8221731637
8221739999
8221748544
8221754403
8221763253
8221769113
8221778207
8221785409
8221795297
8221802743
8221810922
8221819101
8221828378
8221836190
8221840890
8221851815
8221859689
8221867440
8221877145
8221883920
8221893136
8221899728
8221908517
8221914987
8221925179
8221934884
8221941720
8221949593
8221957101
8221964547
8221973702
8221979195
8221990365
8222002633
8222009774
8222019600
8222025948
8222035531
8222044137
8222052437
8222059639
8222067574
8222076485
8222083260
8222092110
8222098336
8222105233
8222113045
8222122139
8222129952
8222137032
8222142159
8222151619
8222157295
8222166817
8222172676
8222182320
8222189278
8222196907
8222203377
8222211006
8222219734
8222227364
8222234688
8222242256
8222248421
8222257515
8222263679
8222271919
8222277901
8222286812
8222294746
8222302681
8222309822
8222317085
8222326484
8222331367
8222341865
8222347175
8222355598
8222364692
8222373115
8222380806
8222389228
8222396736
8222406074
8222412788
8222422065
8222428779
8222437202
8222444831
8222452949
8222460639
8222467780
8222476020
8222484260
8222492622
8222499519
8222507697
8222516670
8222524970
8222531501
8222538154
8222548164
8222554877
8222565009
8222573371
8222581122
8222587409
8222598029
8222603583
8222611457
8222619819
8222627265
8222633491
8222640632
8222646064
8222654303
8222661322
8222667304
8222673285
8222679389
8222685248
8222692878
8222696112
8222704291
8222709540
8222717170
8222722296
8222729865
8222734931
8222742560
8222748175
8222755133
8222760443
8222768073
8222773078
8222780463
8222786627
8222794074
8222800177
8222812079
8222817999
8222825262
8222832404
8222837225
8222843878
8222848822
8222855475
8222860541
8222867010
8222874152
8222878607
8222885931
8222890387
8222898077
8222903143
8222910101
8222915228
8222921576
8222926336
8222932806
8222939581
8222945318
8222951056
8222956854
8222963202
8222967718
8222974310
8222982183
8222988531
8222992743
8223000738
8223006475
8223012152
8223018682
8223023016
8223030035
8223035162
8223041937
8223046697
8223053533
8223060003
8223065374
8223070989
8223077581
8223082342
8223089056
8223095953
8223102056
8223108770
8223113226
8223124883
8223130315
8223136663
8223141241
8223148870
8223153143
8223159795
8223166631
8223171148
8223179021
8223183843
8223190557
8223195989
8223202459
8223207097
8223213811
8223220891
8223225164
8223232671
8223239934
8223247808
8223254155
8223261235
8223268071
8223272588
8223279363
8223287175
8223293523
8223299627
8223307256
8223312749
8223319463
8223324895
8223331731
8223336064
8223345708
8223355046
8223361821
8223370549
8223377324
8223384465
8223392461
8223401311
8223409734
8223415898
8223423711
8223429936
8223434819
8223443547
8223449834
8223456059
8223462224
8223468571
8223475529
8223481694
8223487492
8223495366
8223502141
8223509587
8223514775
8223522160
8223527287
8223534733
8223540593
8223547917
8223555363
8223560307
8223566349
8223573735
8223579716
8223587101
8223594303
8223601200
8223608097
8223613041
8223620243
8223625309
8223634220
8223639286
8223646366
8223653813
8223660099
8223665165
8223672001
8223679081
8223688236
8223694767
8223700993
8223708927
8223716312
8223721684
8223729069
8223734684
8223742191
8223749882
8223756840
8223763737
8223768619
8223776310
8223784244
8223790836
8223796085
8223804508
8223811283
8223817814
8223825016
8223831119
8223838260
8223844364
8223851932
8223858524
8223865116
8223872867
8223878482
8223886417
8223894229
8223899540
8223907047
8223914981
8223921695
8223929569
8223936771
8223942630
8223949771
8223956729
8223966495
8223974368
8223981265
8223988651
8223995914
8224003604
8224011539
8224020816
8224028140
8224038272
8224046817
8224055972
8224064090
8224071231
8224076907
8224085513
8224092532
8224099246
8224105960
8224113345
8224117984
8224125552
8224131106
8224138797
8224148135
8224153567
8224161013
8224168582
8224176883
8224182498
8224192080
8224200747
8224207278
8224215029
8224224551
8224231021
8224237918
8224247073
8224255190
8224262759
8224270815
8224279116
8224285403
8224292300
8224298586
8224308413
8224315615
8224323244
8224331484
8224337283
8224345766
8224352480
8224362002
8224367739
8224377688
8224384707
8224390139
8224400576
8224407717
8224412600
8224420962
8224429323
8224436586
8224442141
8224452028
8224460878
8224466799
8224474306
8224483095
8224489321
8224497011
8224505312
8224513735
8224520388
8224529055
8224537050
8224544130
8224551088
8224560793
8224569399
8224574526
8224582582
8224593141
8224599001
8224608217
8224614870
8224623781
8224632082
8224639955
8224648683
8224655153
8224665346
8224674013
8224683229
8224692628
8224699403
8224710145
8224717042
8224724244
8224732850
8224742677
8224749696
8224756959
8224763978
8224770448
8224777345
8224785340
8224792970
8224799928
8224807374
8224815858
8224822633
8224828675
8224835938
8224843507
8224850648
8224857972
8224866578
8224872315
8224881104
8224887391
8224895570
8224903504
8224911744
8224918458
8224926392
8224933778
8224942933
8224949830
8224958558
8224967469
8224973572
8224980775
8224990723
8224997742
8225004639
8225013306
8225021668
8225029358
8225035767
8225044617
8225052613
8225061036
8225069947
8225077454
8225086670
8225096375
8225105225
8225111878
8225119629
8225130310
8225137268
8225142456
8225151550
8225159119
8225169556
8225177857
8225183960
8225192993
8225198914
8225209290
8225217590
8225227112
8225234558
8225240478
8225251282
8225258423
8225265381
8225276062
8225285950
8225293152
8225298462
8225306701
8225316162
8225322754
8225329712
8225338562
8225346924
8225352783
8225365539
8225369751
8225382202
8225388794
8225399475
8225410339
8225418396
8225426818
8225431640
8225440612
8225449096
8225458679
8225465270
8225472167
8225479125
8225488159
8225493652
8225504760
8225510192
8225517333
8225525024
8225533019
8225539672
8225547668
8225554931
8225562072
8225568481
8225575622
8225580993
8225588012
8225594970
8225600707
8225607665
8225613402
8225619567
8225626403
8225634337
8225639525
8225647155
8225652587
8225659911
8225662536
8225671874
8225677611
8225685546
8225690673
8225697142
8225703612
8225708251
8225714598
8225721312
8225729247
8225733641
8225740111
8225745909
8225752440
8225759032
8225765441
8225771117
8225776549
8225783019
8225788634
8225794310
8225800047
8225805846
8225811278
8225816649
8225822325
8225828856
8225835997
8225841612
8225847777
8225853392
8225859068
8225863707
8225869444
8225875426
8225881224
8225887388
8225894224
8225899656
8225904051
8225912413
8225921629
8225928160
8225933775
8225940123
8225946898
8225952086
8225960997
8225966551
8225972471
8225978514
8225985289
8225991758
8225998899
8226005918
8226012083
8226018186
8226025389
8226032652
8226039121
8226044676
8226052061
8226058592
8226063780
8226070616
8226077940
8226085020
8226091489
8226096861
8226103147
8226111265
8226118040
8226126768
8226132993
8226138120
8226146116
8226150877
8226158689
8226165830
8226173398
8226179441
8226185911
8226191709
8226199399
8226206540
8226213804
8226219968
8226225461
8226232602
8226238340
8226248288
8226254514
8226261655
8226267942
8226273984
8226279721
8226288022
8226294004
8226300595
8226307309
8226315122
8226322507
8226329953
8226337216
8226343381
8226350339
8226357907
8226364133
8226371823
8226376950
8226385373
8226391721
8226399228
8226404599
8226410764
8226417355
8226425107
8226429806
8226438412
8226444638
8226451901
8226460141
8226466183
8226475461
8226485592
8226491757
8226498227
8226506100
8226513791
8226519528
8226527768
8226533261
8226542355
8226547421
8226554562
8226563473
8226569271
8226575436
8226582516
8226587460
8226595028
8226602291
8226608822
8226615231
8226621151
8226626522
8226633419
8226643856
8226650814
8226656857
8226663998
8226671810
8226679012
8226684445
8226692806
8226700985
8226707760
8226714779
8226720638
8226727230
8226734615
8226741695
8226747372
8226754940
8226763424
8226770992
8226778011
8226784786
8226792721
8226799862
8226807247
8226815731
8226821773
8226831112
8226839168
8226846126
8226853023
8226860653
8226867977
8226877010
8226883724
8226891902
8226899349
8226907588
8226916927
8226924922
8226931331
8226941707
8226948299
8226956355
8226963130
8226970699
8226978023
8226984370
8226991328
8226999812
8227007381
8227012996
8227021541
8227028743
8227035091
8227046809
8227055781
8227063655
8227071590
8227081172
8227088069
8227098445
8227105952
8227113276
8227120418
8227127314
8227135676
8227143489
8227149409
8227156123
8227164302
8227172114
8227179072
8227186763
8227194697
8227200801
8227206904
8227216303
8227224055
8227231928
8227238154
8227247187
8227253535
8227259760
8227271540
8227280451
8227286494
8227295405
8227302973
8227310236
8227318659
8227325922
8227331354
8227339716
8227348383
8227355219
8227363215
8227371516
8227377680
8227386286
8227392512
8227401117
8227409418
8227416865
8227424738
8227432001
8227438654
8227447992
8227454645
8227461542
8227469172
8227479242
8227486933
8227496393
8227503961
8227512323
8227519098
8227526361
8227534479
8227542780
8227552240
8227558649
8227568842
8227576654
8227582636
8227590387
8227596796
8227605890
8227612238
8227621942
8227628290
8227636224
8227642511
8227651605
8227660699
8227668512
8227676324
8227683343
8227691949
8227698907
8227707574
8227713739
8227722528
8227730279
8227738519
8227745355
8227754693
8227762384
8227770806
8227781854
8227790887
8227801080
8227806756
8227815789
8227821404
8227830071
8227837213
8227847039
8227853021
8227859551
8227867852
8227874322
8227880853
8227888177
8227898125
8227905633
8227912164
8227919244
8227928033
8227933648
8227942193
8227951470
8227957513
8227965630
8227974785
8227980584
8227992180
8227999749
8228006035
8228011834
8228021416
8228032280
8228038933
8228045647
8228052483
8228061638
8228068047
8228076226
8228086663
8228092644
8228103447
8228112725
8228120476
8228128288
8228135796
8228142815
8228151970
8228158501
8228166863
8228175591
8228182732
8228190117
8228199028
8228206474
8228213554
8228222771
8228232231
8228240654
8228245903
8228253898
8228262016
8228270683
8228279350
8228284904
8228294548
8228302299
8228309135
8228315849
8228323173
8228333183
8228342460
8228349296
8228357048
8228364738
8228370964
8228376701
8228383232
8228389884
8228397148
8228401359
8228407829
8228414665
8228419975
8228426689
8228434562
8228441886
8228448600
8228456168
8228463065
8228469108
8228476249
8228482902
8228490592
8228496635
8228501456
8228507194
8228513786
8228520255
8228526054
8228532279
8228539115
8228543021
8228550407
8228557303
8228564261
8228570792
8228575736
8228581534
8228586295
8228591788
8228598685
8228604667
8228611136
8228616263
8228622672
8228627128
8228633536
8228640555
8228646048
8228651847
8228659293
8228664176
8228671561
8228678214
8228682975
8228688895
8228694205
8228699637
8228706229
8228714530
8228719779
8228724967
8228731070
8228736685
8228741690
8228749381
8228755789
8228762808
8228770316
8228775382
8228781180
8228787772
8228794241
8228801443
8228808401
8228814749
8228821524
8228826346
8228833670
8228839285
8228845938
8228853079
8228857352
8228868277
8228875723
8228883291
8228890005
8228896780
8228903067
8228911673
8228917044
8228926016
8228933706
8228939932
8228945547
8228953726
8228960745
8228971060
8228978384
8228985586
8228994314
8229001089
8229007070
8229013784
8229021047
8229026907
8229033499
8229039907
8229046438
8229052908
8229057424
8229065786
8229073782
8229080068
8229087515
8229094717
8229102163
8229110464
8229117178
8229124136
8229129507
8229137929
8229143911
8229150808
8229158742
8229163503
8229172475
8229179738
8229184987
8229192129
8229199575
8229207509
8229213552
8229220510
8229226125
8229233632
8229239248
8229245290
8229252309
8229258657
8229264638
8229272512
8229279592
8229288625
8229293691
8229300466
8229307546
8229313100
8229322499
8229329396
8229334584
8229342030
8229347646
8229353505
8229358693
8229366933
8229373280
8229380910
8229387929
8229395802
8229403127
8229408192
8229416554
8229425282
8229431874
8229437367
8229446950
8229452870
8229459462
8229467335
8229473744
8229478444
8229487416
8229493763
8229501637
8229510914
8229521229
8229528309
8229537220
8229544484
8229551075
8229559193
8229567555
8229574452
8229582997
8229590992
8229596241
8229606922
8229613575
8229620350
8229627613
8229632496
8229640736
8229648548
8229655506
8229663136
8229671925
8229678639
8229682972
8229689503
8229698414
8229706043
8229713062
8229720509
8229728565
8229734424
8229742725
8229751881
8229760181
8229765003
8229772877
8229780872
8229786426
8229793751
8229803455
8229813343
8229819935
8229827869
8229834278
8229841236
8229848804
8229857532
8229866199
8229871936
8229879932
8229887500
8229895252
8229901477
8229911792
8229919605
8229926257
8229934314
8229943103
8229949939
8229958667
8229966602
8229973804
8229982410
8229991138
8230000049
8230007251
8230014331
8230025073
8230033191
8230039966
8230047168
8230058093
8230065784
8230072680
8230080310
8230088244
8230098742
8230104419
8230113513
8230121142
8230130542
8230138964
8230145251
8230153125
8230160876
8230171008
8230178088
8230187731
8230197131
8230204943
8230214160
8230221057
8230229724
8230235827
8230244982
8230254504
8230262560
8230268359
8230276171
8230283862
8230289904
8230298998
8230307116
8230315050
8230322497
8230327929
8230335741
8230343127
8230350939
8230359850
8230367235
8230375170
8230385119
8230391466
8230397265
8230406725
8230414110
8230421801
8230427660
8230437487
8230444445
8230452562
8230460558
8230469042
8230475450
8230484789
8230492967
8230500292
8230506822
8230518846
8230525621
8230532640
8230541857
8230549791
8230557115
8230565477
8230572191
8230581224
8230589952
8230597032
8230606676
8230616136
8230622606
8230632249
8230639329
8230649400
8230657030
8230665697
8230672410
8230681871
8230689988
8230697984
8230706956
8230713792
8230721666
8230731981
8230740831
8230749559
8230756333
8230764268
8230770433
8230779466
8230787156
8230796128
8230803880
8230810533
8230819566
8230825730
8230834458
8230843553
8230851182
8230861253
8230871690
8230882737
8230888963
8230896226
8230904893
8230915086
8230923386
8230929002
8230938523
8230944565
8230952744
8230961655
8230968125
8230976914
8230982651
8230991257
8230997727
8231008713
8231015549
8231023911
8231032151
8231040635
8231047409
8231056137
8231062302
8231073471
8231078598
8231087937
8231096298
8231103684
8231113449
8231119614
8231127854
8231136032
8231144577
8231150559
8231158127
8231164352
8231170395
8231178207
8231183762
8231190353
8231196152
8231201828
8231206894
8231214584
8231221725
8231227951
8231233444
8231238815
8231243332
8231251022
8231257553
8231262924
8231268966
8231275924
8231280563
8231287643
8231295639
8231302353
8231307541
8231313583
8231318527
8231323288
8231329757
8231336959
8231345260
8231355514
8231363510
8231369613
8231374557
8231381881
8231387435
8231393844
8231399703
8231405685
8231410934
8231418441
8231425216
8231431381
8231438461
8231443466
8231450973
8231457320
8231464706
8231471786
8231478622
8231484908
8231491500
8231497787
8231502669
8231512679
8231518050
8231525130
8231530013
8231536544
8231543014
8231548202
8231554671
8231561934
8231569259
8231573409
8231580245
8231588668
8231594649
8231601790
8231608870
8231614913
8231621444
8231629439
8231636580
8231642684
8231649031
8231655867
8231661849
8231668502
8231674300
8231680892
8231690901
8231696639
8231702742
8231710860
8231717452
8231726241
8231732039
8231737349
8231744307
8231750411
8231757552
8231763716
8231770674
8231777632
8231784590
8231790022
8231797163
8231804793
8231810530
8231816756
8231823714
8231832258
8231838789
8231844832
8231852583
8231859419
8231867354
8231874251
8231881636
8231887312
8231894392
8231901106
8231908125
8231915510
8231921186
8231927900
8231935591
8231941999
8231948347
8231955488
8231962202
8231967634
8231975630
8231981733
8231989485
8231996992
8232004743
8232011518
8232019331
8232026350
8232035383
8232043501
8232051191
8232056318
8232064008
8232069074
8232077070
8232084089
8232091657
8232096662
8232103803
8232109235
8232116987
8232124494
8232129743
8232137983
8232144147
8232150983
8232157392
8232164716
8232172712
8232181928
8232185285
8232195966
8232203412
8232209333
8232215131
8232222760
8232229535
8232235700
8232243329
8232248761
8232255780
8232264508
8232271527
8232278913
8232285810
8232292829
8232298993
8232306989
8232315167
8232321820
8232326703
8232335004
8232341229
8232347882
8232356671
8232363080
8232370770
8232377972
8232385907
8232392316
8232399579
8232407696
8232416241
8232423077
8232430768
8232438519
8232445843
8232452435
8232460370
8232468670
8232475812
8232483258
8232490643
8232497296
8232506085
8232513409
8232521954
8232529095
8232537091
8232544049
8232550518
8232559491
8232566387
8232575665
8232583599
8232589154
8232596600
8232603924
8232611920
8232620526
8232628948
8232638409
8232648052
8232654461
8232663860
8232670879
8232681133
8232690411
8232698772
8232705242
8232712383
8232719219
8232726360
8232733379
8232739422
8232746746
8232755779
8232762432
8232771465
8232777080
8232786052
8232792034
8232801189
8232806682
8232816265
8232823345
8232830181
8232838970
8232845806
8232851482
8232861064
8232867534
8232875164
8232882671
8232890117
8232898235
8232905803
8232911723
8232919353
8232927348
8232935222
8232941631
8232950542
8232958659
8232963542
8232972331
8232979045
8232987834
8232994243
8233003337
8233010600
8233017619
8233024089
8233033549
8233039531
8233047099
8233054301
8233062114
8233070170
8233078166
8233084575
8233094523
8233100932
8233110209
8233116984
8233125041
8233133708
8233139323
8233148783
8233156779
8233164225
8233170573
8233178752
8233187358
8233195841
8233203776
8233214213
8233222025
8233229472
8233236308
8233243815
8233257731
8233267741
8233276102
8233283976
8233291056
8233300150
8233308146
8233315470
8233323893
8233331583
8233337626
8233348063
8233355692
8233361979
8233368387
8233379435
8233386942
8233395670
8233402262
8233411295
8233419718
8233429972
8233436869
8233444437
8233453836
8233460916
8233471353
8233479471
8233490457
8233498880
8233505350
8233514444
8233520670
8233529459
8233536539
8233546243
8233552347
8233559183
8233568033
8233573831
8233582742
8233589517
8233598672
8233604288
8233611734
8233619546
8233627237
8233635293
8233642984
8233650491
8233658243
8233666787
8233674356
8233682046
8233689737
8233696450
8233704019
8233710122
8233717874
8233725991
8233734719
8233740884
8233749856
8233755838
8233764016
8233772073
8233777993
8233787942
8233796731
8233802896
8233809976
8233818826
8233826089
8233834817
8233841164
8233848367
8233855264
8233865151
8233871011
8233881570
8233887978
8233896340
8233904763
8233913125
8233921303
8233929421
8233935891
8233945046
8233951516
8233959206
8233968606
8233976113
8233986001
8233991677
8234001381
8234009682
8234017189
8234024758
8234032570
8234036843
8234049172
8234057411
8234065712
8234073036
8234081276
8234087868
8234097023
8234103493
8234111366
8234119606
8234128273
8234135841
8234143044
8234151466
8234158913
8234167213
8234176064
8234183876
8234190407
8234197853
8234205788
8234212746
8234217872
8234225807
8234230507
8234240516
8234245827
8234257057
8234263954
8234269569
8234278907
8234285133
8234291542
8234299354
8234304786
8234311683
8234317299
8234323341
8234330787
8234336219
8234343483
8234348854
8234355873
8234361488
8234368446
8234374000
8234380958
8234387672
8234394019
8234400001
8234406226
8234412574
8234418983
8234423744
8234430885
8234437782
8234444679
8234451331
8234457374
8234463783
8234468970
8234474036
8234480628
8234485877
8234493079
8234498695
8234504066
8234511512
8234517127
8234522559
8234529456
8234533790
8234540503
8234546363
8234552894
8234558387
8234564917
8234571204
8234576148
8234584388
8234590003
8234596961
8234601966
8234608130
8234613196
8234620154
8234627906
8234633338
8234643409
8234647559
8234659033
8234666541
8234672522
8234679663
8234685950
8234691565
8234698279
8234703772
8234709937
8234716345
8234723608
8234730078
8234736304
8234742285
8234747839
8234754309
8234761145
8234768774
8234775122
8234779089
8234787207
8234793555
8234798315
8234805517
8234810156
8234818396
8234823340
8234831335
8234837195
8234846411
8234852636
8234859045
8234871130
8234877050
8234885595
8234892004
8234897741
8234903540
8234911352
8234917212
8234924536
8234930822
8234936438
8234941992
8234949194
8234955358
8234962927
8234968481
8234975927
8234983679
8234988867
8234995275
8235002599
8235007726
8235017675
8235024145
8235030859
8235037267
8235042272
8235049535
8235056127
8235062963
8235070165
8235076635
8235081640
8235089635
8235094457
8235102453
8235107519
8235115148
8235123693
8235130041
8235137060
8235143407
8235149938
8235156164
8235161474
8235169347
8235176183
8235181981
8235188329
8235196325
8235201085
8235209020
8235215001
8235222509
8235228734
8235235570
8235242650
8235249303
8235256810
8235262181
8235269994
8235274938
8235282811
8235287633
8235294713
8235301305
8235307652
8235314183
8235321568
8235326939
8235334508
8235339330
8235347508
8235354527
8235360692
8235365636
8235373997
8235379735
8235387303
8235394078
8235399754
8235406529
8235412511
8235420384
8235426732
8235435521
8235442601
8235453465
8235460545
8235466954
8235470250
8235482701
8235495335
8235502842
8235512059
8235519932
8235526341
8235532994
8235540684
8235547764
8235555149
8235562046
8235567112
8235573643
8235581028
8235586338
8235594273
8235602024
8235608738
8235615696
8235620823
8235628574
8235635838
8235640720
8235648899
8235656162
8235663242
8235670383
8235677647
8235684788
8235691929
8235696628
8235707554
8235716099
8235723362
8235730015
8235737339
8235744297
8235751560
8235756138
8235764255
8235771946
8235778965
8235784702
8235793613
8235802097
8235808078
8235817173
8235823276
8235831943
8235838962
8235846775
8235857761
8235865329
8235872165
8235878696
8235888584
8235896091
8235903171
8235909702
8235919284
8235926791
8235933810
8235940158
8235947971
8235955112
8235964450
8235970493
8235979526
8235985629
8235994357
8236005710
8236013644
8236022555
8236031894
8236038730
8236045566
8236053683
8236060397
8236066623
8236075717
8236084140
8236091830
8236096835
8236105563
8236113375
8236120883
8236127108
8236135836
8236142977
8236149325
8236158053
8236166598
8236174899
8236182467
8236188448
8236195223
8236207491
8236215609
8236222384
8236231905
8236240694
8236247408
8236256380
8236265597
8236279391
8236285433
8236294649
8236300265
8236309176
8236317171
8236326204
8236333956
8236342135
8236347323
8236356112
8236362276
8236371126
8236378634
8236385836
8236396395
8236402498
8236408297
8236417391
8236424593
8236431490
8236440218
8236447237
8236455416
8236462496
8236470735
8236477571
8236484712
8236492281
8236499056
8236506807
8236515718
8236523103
8236529329
8236537569
8236543550
8236552278
8236558321
8236565645
8236576997
8236584688
8236590730
8236598665
8236606843
8236614961
8236620881
8236629854
8236635957
8236643098
8236651948
8236658357
8236667146
8236675630
8236682283
8236690522
8236698213
8236706636
8236714143
8236723603
8236731111
8236738740
8236746919
8236753877
8236762239
8236771211
8236779634
8236786042
8236792146
8236802644
8236809663
8236819245
8236826386
8236834138
8236842683
8236850129
8236856782
8236865144
8236874909
8236881013
8236889924
8236898163
8236907319
8236915986
8236922577
8236930878
8236939484
8236944794
8236954438
8236962739
8236971344
8236980378
8236986969
8236994294
8237001984
8237010529
8237018036
8237025727
8237035126
8237045380
8237054840
8237068451
8237076081
8237084747
8237094940
8237101715
8237112457
8237120392
8237129364
8237137299
8237145477
8237153168
8237159821
8237167328
8237173859
8237181915
8237189850
8237198212
8237204437
8237212555
8237220489
8237225860
8237234955
8237243011
8237250885
8237258697
8237266571
8237271515
8237280365
8237287017
8237296173
8237303436
8237310333
8237318573
8237325531
8237333221
8237340240
8237346710
8237356903
8237364410
8237374053
8237380279
8237387603
8237393890
8237400482
8237408416
8237415008
8237422820
8237431548
8237436065
8237443145
8237449981
8237456451
8237462432
8237467498
8237475371
8237480132
8237486968
8237493255
8237499480
8237506194
8237514190
8237519439
8237526641
8237532378
8237539458
8237545440
8237552520
8237558013
8237566069
8237572539
8237577300
8237583220
8237590239
8237595977
8237602935
8237607939
8237615386
8237620330
8237628813
8237634856
8237639678
8237646575
8237652373
8237659331
8237664702
8237671416
8237677275
8237682280
8237688933
8237694060
8237699492
8237707732
8237714751
8237719939
8237727507
8237733794
8237739592
8237747404
8237754179
8237762663
8237769499
8237774992
8237781706
8237788054
8237794890
8237801359
8237805815
8237812346
8237818999
8237823393
8237830351
8237834685
8237842863
8237848662
8237854399
8237860014
8237867277
8237873930
8237879179
8237885649
8237890898
8237897673
8237904386
8237911100
8237917082
8237921842
8237928556
8237934660
8237940580
8237947843
8237952421
8237959074
8237965727
8237971769
8237976652
8237987150
8237992582
8238000211
8238006132
8238014005
8238019193
8238027128
8238032804
8238040495
8238047514
8238053190
8238058683
8238066190
8238071867
8238079252
8238085355
8238092679
8238098539
8238105436
8238113553
8238120023
8238126188
8238133146
8238140958
8238147001
8238154325
8238159147
8238166410
8238172269
8238179654
8238185941
8238193509
8238200650
8238205350
8238212247
8238217191
8238226407
8238232205
8238238431
8238245206
8238252225
8238258328
8238266934
8238280972
8238294949
8238307034
8238317044
8238327542
8238336575
8238345731
8238355008
8238362393
8238371487
8238378934
8238386563
8238395108
8238401578
8238408841
8238417996
8238424649
8238431119
8238440579
8238447415
8238455166
8238461209
8238468228
8238476040
8238483364
8238490017
8238496914
8238503140
8238510647
8238518765
8238525601
8238530972
8238538662
8238543545
8238551113
8238557522
8238564480
8238573025
8238579006
8238584072
8238589749
8238597561
8238605312
8238610622
8238618435
8238624233
8238630154
8238634914
8238642055
8238649563
8238657375
8238662685
8238669948
8238674587
8238681850
8238688076
8238696560
8238704433
8238709926
8238717251
8238723964
8238730983
8238736110
8238743007
8238750271
8238757168
8238762844
8238772243
8238780056
8238786831
8238792934
8238799221
8238805873
8238814479
8238820217
8238828334
8238835048
8238840846
8238848049
8238855983
8238864101
8238869899
8238877895
8238883510
8238890102
8238898158
8238905605
8238912563
8238920863
8238927638
8238935451
8238942043
8238949184
8238955592
8238962855
8238969569
8238977077
8238984706
8238991054
8239000209
8239006984
8239014247
8239021327
8239031093
8239039027
8239048854
8239054896
8239063319
8239070582
8239078334
8239085902
8239091517
8239097926
8239105433
8239112696
8239120326
8239125697
8239133082
8239140284
8239146266
8239154444
8239162013
8239167384
8239175562
8239183070
8239190577
8239195826
8239202723
8239212367
8239218958
8239225123
8239233241
8239240260
8239246790
8239253382
8239261988
8239269434
8239276331
8239282923
8239291041
8239297632
8239303980
8239309900
8239318995
8239326685
8239333582
8239341028
8239348047
8239355311
8239364832
8239370935
8239379908
8239386621
8239395472
8239400598
8239409265
8239417444
8239422998
8239429224
8239438135
8239447168
8239453333
8239461145
8239468042
8239475427
8239482324
8239490076
8239497705
8239507959
8239515466
8239522180
8239529749
8239533960
8239543542
8239551904
8239557519
8239567102
8239575342
8239581872
8239589380
8239597253
8239602930
8239611963
8239617273
8239626489
8239633264
8239643091
8239650781
8239657739
8239662927
8239672387
8239678064
8239685571
8239694665
8239703088
8239709619
8239717187
8239723291
8239731408
8239737451
8239747766
8239755273
8239765771
8239775231
8239786157
8239794457
8239802392
8239811120
8239819848
8239830712
8239837426
8239844811
8239851159
8239859032
8239865502
8239871911
8239878930
8239886864
8239895959
8239901635
8239909081
8239916466
8239923363
8239926964
8239936303
8239942223
8239950646
8239960534
8239968102
8239972496
8239983727
8239993126
8240000145
8240007042
8240016564
8240023400
8240030419
8240037560
8240045006
8240052880
8240060753
8240069115
8240079003
8240085167
8240092674
8240100731
8240106346
8240115196
8240120811
8240129723
8240137901
8240144249
8240155052
8240161949
8240172386
8240179588
8240190391
8240198997
8240206138
8240212608
8240220176
8240228172
8240235679
8240241844
8240249534
8240257835
8240264732
8240272911
8240280784
8240286827
8240293663
8240302452
8240308311
8240315452
8240327415
8240335105
8240346336
8240355247
8240363548
8240370994
8240377769
8240386924
8240395591
8240401756
8240411277
8240416587
8240425254
8240433738
8240441306
8240453696
8240460898
8240468833
8240475425
8240481162
8240487571
8240494224
8240500327
8240508872
8240515525
8240520957
8240528098
8240535361
8240541953
8240548484
8240553489
8240562583
8240568747
8240574973
8240582846
8240588401
8240596091
8240601889
8240607810
8240615195
8240619895
8240628379
8240635275
8240641684
8240648886
8240652670
8240660483
8240666953
8240674155
8240680197
8240685629
8240690390
8240697226
8240702109
8240707968
8240714804
8240720602
8240726218
8240731711
8240736716
8240742758
8240750265
8240756674
8240762717
8240767844
8240773459
8240779379
8240784689
8240794150
8240797873
8240803549
8240809652
8240814901
8240821310
8240828390
8240833883
8240840170
8240844748
8240851339
8240857504
8240861654
8240869223
8240875875
8240882711
8240892721
8240897909
8240904806
8240911032
8240918844
8240921896
8240930990
8240936544
8240944357
8240950887
8240957174
8240963949
8240971212
8240978964
8240984762
8240992819
8240998312
8241004598
8241012472
8241018636
8241026205
8241032857
8241041463
8241052145
8241059408
8241071615
8241077840
8241085592
8241092061
8241099080
8241106527
8241112996
8241118795
8241126729
8241132772
8241139425
8241147176
8241153035
8241158040
8241166341
8241173543
8241180684
8241185811
8241193441
8241201253
8241209127
8241216329
8241222798
8241228841
8241235677
8241241475
8241247823
8241254720
8241262898
8241269246
8241275411
8241279988
8241287740
8241293599
8241299641
8241307881
8241314534
8241321065
8241328023
8241336140
8241342732
8241348958
8241355305
8241362508
8241367329
8241374348
8241381489
8241388508
8241394612
8241400593
8241406514
8241413777
8241421040
8241426716
8241433247
8241439839
8241458882
8241466572
8241473652
8241480976
8241487568
8241494587
8241502095
8241507832
8241517842
8241524250
8241531574
8241539143
8241547566
8241554890
8241563435
8241570332
8241578388
8241584187
8241595844
8241603718
8241613117
8241621784
8241629536
8241637714
8241643818
8241650715
8241656452
8241663898
8241670673
8241678364
8241684650
8241690998
8241699299
8241706867
8241712482
8241719501
8241727741
8241733600
8241741718
8241752033
8241757709
8241763507
8241770893
8241776081
8241784015
8241791523
8241798542
8241807575
8241813312
8241821735
8241828937
8241834125
8241843707
8241852374
8241860004
8241868915
8241873920
8241882343
8241891559
8241899921
8241906207
8241913531
8241921405
8241930316
8241936908
8241945697
8241953693
8241959918
8241964618
8241976642
8241983905
8241990924
8241999225
8242006976
8242015704
8242023517
8242028644
8242035663
8242043475
8242051104
8242059283
8242066180
8242073931
8242081500
8242087847
8242097247
8242103472
8242111712
8242119586
8242127825
8242133319
8242143633
8242147845
8242159930
8242166155
8242176470
8242183489
8242189349
8242198809
8242210467
8242223345
8242233233
8242243426
8242248431
8242256365
8242266131
8242275652
8242281878
8242288897
8242297442
8242302385
8242311236
8242318194
8242329485
8242336931
8242345232
8242352678
8242359758
8242370256
8242376482
8242385881
8242392168
8242400591
8242408647
8242414263
8242421953
8242428179
8242436052
8242444719
8242452104
8242460771
8242469743
8242477007
8242483171
8242493669
8242498979
8242508134
8242516191
8242526018
8242531816
8242540849
8242550127
8242557878
8242566728
8242572648
8242581682
8242588273
8242600847
8242609758
8242618486
8242625993
8242633989
8242641435
8242649797
8242657609
8242667009
8242675004
8242682084
8242690873
8242699174
8242707231
8242715043
8242724809
8242732438
8242742021
8242748063
8242756913
8242763078
8242771928
8242781266
8242787309
8242795548
8242804581
8242811051
8242818131
8242826737
8242834794
8242843217
8242849076
8242858964
8242867448
8242875138
8242882279
8242889969
8242899247
8242907670
8242915360
8242921647
8242931717
8242938553
8242948929
8242957352
8242971573
8242980912
8242989762
8242995133
8243005204
8243012894
8243019181
8243027542
8243035721
8243043106
8243049210
8243057999
8243064102
8243072830
8243079300
8243088272
8243095718
8243103104
8243109634
8243117081
8243123123
8243132461
8243141128
8243150284
8243156692
8243164749
8243170242
8243178543
8243187210
8243194412
8243202896
8243212173
8243220596
8243227737
8243234634
8243242141
8243249221
8243256912
8243263931
8243270950
8243275650
8243282241
8243288284
8243294631
8243302200
8243306777
8243314346
8243321121
8243326675
8243332595
8243339919
8243346267
8243351699
8243359390
8243364517
8243370986
8243377883
8243383437
8243391250
8243396377
8243401992
8243409194
8243415725
8243422500
8243427261
8243434890
8243441054
8243447585
8243455276
8243460219
8243466872
8243474807
8243481643
8243486587
8243492995
8243496840
8243502944
8243508132
8243515456
8243521071
8243526992
8243532424
8243538649
8243546462
8243553359
8243558120
8243566726
8243575576
8243582228
8243590163
8243595778
8243601332
8243607924
8243613722
8243619643
8243623671
8243629714
8243634841
8243641676
8243648329
8243654616
8243660903
8243666701
8243673171
8243679030
8243684767
8243692091
8243699355
8243705458
8243711928
8243719557
8243726088
8243730971
8243738295
8243744643
8243752516
8243758070
8243764784
8243771498
8243778822
8243785597
8243793043
8243799696
8243806898
8243811781
8243818129
8243825880
8243832716
8243838392
8243844496
8243851881
8243858595
8243864576
8243871351
8243877882
8243884535
8243891432
8243896620
8243903395
8243910902
8243916883
8243923597
8243930372
8243936476
8243943983
8243951612
8243958509
8243967786
8243972974
8243980482
8243985304
8243993299
8243999769
8244007215
8244014478
8244024793
8244034376
8244044019
8244053419
8244062513
8244067213
8244074293
8244083936
8244088819
8244097608
8244105726
8244113843
8244121167
8244128064
8244137220
8244142041
8244149915
8244156873
8244164380
8244172986
8244179639
8244187024
8244193738
8244200452
8244205762
8244212598
8244220838
8244227124
8244234387
8244241528
8244248303
8244254529
8244259778
8244266126
8244274609
8244280957
8244287549
8244294446
8244301831
8244306958
8244313306
8244320996
8244328686
8244336377
8244342114
8244348035
8244355298
8244360364
8244369519
8244377514
8244384595
8244391308
8244398938
8244405102
8244412365
8244420849
8244428296
8244434704
8244441296
8244447949
8244456128
8244462170
8244470654
8244476025
8244484082
8244490917
8244497021
8244505627
8244513378
8244520031
8244526745
8244534985
8244543041
8244549999
8244557263
8244568371
8244574535
8244581127
8244589367
8244597607
8244602734
8244611156
8244621227
8244627331
8244636669
8244644970
8244651378
8244660168
8244668163
8244682140
8244689220
8244699169
8244707409
8244713817
8244723949
8244733043
8244740978
8244748546
8244755138
