8292601085
8292606334
8292611949
8292616222
8292622813
8292628184
8292635448
8292642161
8292647410
8292654063
8292659617
8292665233
8292671458
8292678050
8292684031
8292688853
8292695323
8292702525
8292707774
8292713633
8292720591
8292726634
8292734751
8292740733
8292747020
8292755564
8292762706
8292769969
8292775523
8292784190
8292790537
8292796702
8292804942
8292813548
8292820689
8292828379
8292835825
8292844553
8292851206
8292859324
8292866465
8292874827
8292880686
8292888682
8292895396
8292904002
8292911265
8292918223
8292924082
8292930430
8292938364
8292944773
8292952158
8292960947
8292966562
8292976084
8292982859
8292990549
8292996653
8293004221
8293011606
8293018930
8293026072
8293033823
8293039621
8293046946
8293055490
8293062937
8293070383
8293077158
8293083200
8293092111
8293097238
8293107370
8293116525
8293122568
8293131174
8293136850
8293145822
8293153757
8293163095
8293175302
8293182870
8293193185
8293203805
8293211191
8293219919
8293227304
8293235910
8293244699
8293253427
8293259286
8293270883
8293278573
8293286996
8293296151
8293303903
8293311776
8293319711
8293327890
8293335397
8293343515
8293351388
8293360482
8293368539
8293377816
8293383920
8293394113
8293400704
8293409493
8293417672
8293425668
8293433663
8293441598
8293448007
8293456979
8293466073
8293472237
8293481576
8293489388
8293497506
8293504220
8293512154
8293520821
8293530099
8293535348
8293544259
8293553231
8293560128
8293568184
8293574654
8293583321
8293590218
8293600228
8293606087
8293614327
8293620797
8293627999
8293636238
8293645027
8293650948
8293659127
8293667122
8293676766
8293684090
8293690376
8293701302
8293708809
8293715889
8293722420
8293731392
8293737801
8293744881
8293753609
8293762947
8293770515
8293776802
8293785774
8293792244
8293798897
8293807503
8293817024
8293822700
8293830696
8293839668
8293847725
8293856087
8293864204
8293872078
8293883064
8293893684
8293898262
8293910286
8293916267
8293924873
8293930915
8293943244
8293952095
8293957954
8293964668
8293974067
8293981025
8293986396
8293996589
8294003120
8294010200
8294017646
8294024848
8294032905
8294039985
8294050178
8294057380
8294063911
8294072883
8294079047
8294088264
8294095588
8294102180
8294109077
8294117927
8294123420
8294132636
8294139960
8294146430
8294153815
8294162177
8294169257
8294177680
8294184211
8294192939
8294200446
8294208075
8294215155
8294220832
8294231696
8294238410
8294245795
8294252448
8294261176
8294267401
8294276190
8294282477
8294291754
8294298956
8294305365
8294313117
8294321295
8294328009
8294336920
8294346930
8294355536
8294362616
8294369269
8294378668
8294386786
8294393744
8294403815
8294412176
8294417731
8294426703
8294434271
8294443243
8294448858
8294458258
8294468023
8294474066
8294483893
8294490057
8294500067
8294506475
8294513922
8294523260
8294531195
8294539373
8294547918
8294553594
8294560980
8294568365
8294577459
8294587103
8294596136
8294604254
8294612249
8294619329
8294627386
8294635442
8294643011
8294650701
8294657842
8294665533
8294673894
8294682012
8294689642
8294698003
8294705266
8294712774
8294720159
8294727727
8294734136
8294742193
8294751165
8294757024
8294765569
8294772832
8294782354
8294789373
8294798284
8294805608
8294814031
8294822820
8294831853
8294838994
8294847539
8294853337
8294861882
8294868657
8294879033
8294885076
8294892827
8294900823
8294909062
8294917119
8294926030
8294933476
8294940739
8294948491
8294956303
8294964604
8294973271
8294979619
8294990788
8294997807
8295005131
8295010930
8295017644
8295025517
8295030705
8295038212
8295044987
8295050480
8295056584
8295063359
8295071354
8295077580
8295084782
8295089848
8295097111
8295103825
8295109135
8295114750
8295122563
8295128300
8295135136
8295142033
8295148136
8295153996
8295161747
8295167851
8295173771
8295180424
8295185917
8295193119
8295200749
8295206974
8295212772
8295219425
8295226505
8295231388
8295239018
8295245976
8295252872
8295259281
8295265446
8295273258
8295278873
8295285038
8295293644
8295300541
8295308048
8295313907
8295320499
8295327091
8295333134
8295340092
8295345035
8295352054
8295357731
8295364322
8295371158
8295377750
8295383915
8295388553
8295398014
8295403751
8295411197
8295418766
8295423832
8295432743
8295440250
8295446537
8295454715
8295461124
8295468448
8295474063
8295479862
8295487552
8295496585
8295502384
8295509952
8295517459
8295524173
8295529727
8295538089
8295545474
8295551822
8295558658
8295564273
8295573428
8295580936
8295587466
8295593204
8295601688
8295609561
8295614505
8295623660
8295629886
8295637576
8295647159
8295653628
8295660220
8295668643
8295676516
8295684451
8295691775
8295699527
8295709109
8295715640
8295723330
8295729800
8295737002
8295744143
8295751589
8295759158
8295767153
8295774783
8295782473
8295789553
8295797061
8295804995
8295813845
8295819766
8295829165
8295835146
8295842410
8295850466
8295858218
8295865054
8295872622
8295880556
8295888735
8295895571
8295903750
8295912173
8295920412
8295927004
8295934939
8295942324
8295952456
8295958315
8295967714
8295973208
8295981081
8295990175
8295997866
8296005678
8296013552
8296021059
8296028627
8296034975
8296042299
8296050722
8296056581
8296065370
8296073244
8296079714
8296088930
8296095033
8296102907
8296111452
8296119081
8296126405
8296136720
8296144899
8296151796
8296158571
8296167970
8296174013
8296181703
8296190065
8296198427
8296205751
8296213685
8296220460
8296230348
8296236024
8296243959
8296252626
8296261171
8296267213
8296275758
8296285035
8296291932
8296301088
8296308900
8296316957
8296324281
8296332337
8296339601
8296345155
8296353578
8296358949
8296366578
8296374208
8296383973
8296391541
8296398377
8296406129
8296412843
8296420838
8296428590
8296436768
8296444886
8296452149
8296458558
8296466126
8296470765
8296481446
8296489320
8296497620
8296505372
8296512757
8296519654
8296527405
8296533875
8296541627
8296548890
8296558472
8296564637
8296572205
8296579468
8296587769
8296594849
8296602295
8296609375
8296617127
8296625305
8296631043
8296639405
8296647583
8296655396
8296663697
8296672302
8296681641
8296689270
8296697266
8296704224
8296712769
8296720581
8296728699
8296733337
8296746033
8296754517
8296761963
8296769409
8296777161
8296784668
8296790405
8296799194
8296807129
8296813354
8296820617
8296828857
8296833862
8296846679
8296851379
8296861450
8296869629
8296878174
8296885864
8296892273
8296899841
8296906433
8296913818
8296920166
8296928833
8296935424
8296944396
8296952331
8296957153
8296965698
8296971374
8296980285
8296991577
8296997985
8297005370
8297011535
8297018249
8297027282
8297032836
8297041930
8297051757
8297058715
8297066161
8297072021
8297081115
8297087890
8297095763
8297102111
8297112365
8297120299
8297128051
8297135009
8297142333
8297150268
8297157653
8297164245
8297174010
8297181151
8297188903
8297196349
8297204894
8297211303
8297218627
8297226500
8297236571
8297244445
8297251219
8297258299
8297266905
8297272338
8297280638
8297289244
8297298277
8297304686
8297313170
8297320860
8297326598
8297336119
8297342528
8297349730
8297359434
8297366881
8297373167
8297381590
8297387694
8297394285
8297403197
8297410032
8297419737
8297428465
8297434630
8297442198
8297449644
8297456114
8297465635
8297474669
8297482115
8297491148
8297497068
8297505003
8297511473
8297519468
8297528318
8297537779
8297543577
8297552854
8297561216
8297569395
8297576170
8297584409
8297593565
8297600889
8297607359
8297616270
8297620969
8297628660
8297633421
8297641538
8297646604
8297654661
8297662107
8297668088
8297673643
8297679746
8297686643
8297693113
8297700864
8297706357
8297712705
8297718625
8297725217
8297731565
8297738157
8297745054
8297750913
8297757261
8297764158
8297769162
8297775815
8297784665
8297789609
8297796384
8297800779
8297807553
8297813291
8297818296
8297823667
8297830869
8297837094
8297844174
8297849668
8297855893
8297863156
8297868711
8297874387
8297882199
8297887143
8297892148
8297898435
8297904233
8297910031
8297916562
8297921872
8297927731
8297933347
8297937924
8297944333
8297951474
8297957639
8297962643
8297967648
8297973752
8297978940
8297984982
8297990170
8297995663
8298001767
8298007077
8298013241
8298019894
8298024350
8298031064
8298037045
8298043881
8298049435
8298055539
8298063595
8298069455
8298076596
8298082943
8298089230
8298094784
8298101193
8298107540
8298113034
8298119686
8298126889
8298132504
8298138973
8298145077
8298151791
8298159420
8298165280
8298172421
8298177059
8298183407
8298190243
8298194576
8298204525
8298209774
8298216976
8298223995
8298230160
8298237301
8298244747
8298251583
8298256649
8298263363
8298268978
8298275570
8298282223
8298286617
8298295833
8298300411
8298307796
8298313534
8298320492
8298326290
8298332821
8298338741
8298346004
8298351619
8298357540
8298364620
8298370968
8298377498
8298382808
8298389888
8298395931
8298402767
8298409847
8298414485
8298421993
8298427791
8298436031
8298441707
8298449214
8298455379
8298462459
8298468318
8298474300
8298481990
8298487789
8298494808
8298499324
8298506404
8298512141
8298518855
8298526973
8298531917
8298538875
8298545039
8298551082
8298556819
8298563777
8298570064
8298575679
8298583186
8298588679
8298596919
8298602656
8298609187
8298615596
8298622493
8298630122
8298636775
8298644221
8298650325
8298655635
8298665156
8298672053
8298678218
8298685786
8298691706
8298699824
8298705683
8298712214
8298720515
8298726680
8298733149
8298739436
8298744502
8298753230
8298759150
8298767268
8298773799
8298779658
8298787104
8298793330
8298799983
8298807673
8298815302
8298821528
8298830134
8298836054
8298844477
8298850214
8298857050
8298866206
8298874567
8298882624
8298889948
8298895991
8298902949
8298911310
8298917597
8298926142
8298932306
8298939570
8298947321
8298955011
8298960444
8298969477
8298977045
8298984308
8298990717
8298997370
8299004389
8299011225
8299017328
8299025629
8299031610
8299040644
8299047724
8299054010
8299061395
8299067804
8299074396
8299082208
8299090021
8299098139
8299105158
8299112116
8299119012
8299125909
8299133234
8299142023
8299150507
8299157037
8299164789
8299172662
8299179864
8299186517
8299193902
8299201166
8299210321
8299217645
8299225519
8299232721
8299240472
8299247857
8299255792
8299263788
8299270746
8299278802
8299287835
8299295770
8299301873
8299311273
8299317254
8299326287
8299333734
8299343133
8299348565
8299357232
8299364923
8299371880
8299380486
8299389214
8299396111
8299403375
8299411919
8299418816
8299425713
8299433099
8299441216
8299450921
8299457513
8299465874
8299474053
8299479058
8299488640
8299494561
8299504204
8299512627
8299520135
8299528985
8299535698
8299541924
8299551140
8299559258
8299567864
8299573784
8299582268
8299587822
8299596672
8299601982
8299611138
8299617913
8299627495
8299635308
8299641350
8299649895
8299655876
8299663994
8299672844
8299681877
8299689995
8299697746
8299704704
8299711968
8299720024
8299728020
8299734734
8299744316
8299750603
8299757988
8299764885
8299773552
8299780510
8299787895
8299796135
8299803886
8299810112
8299817375
8299824211
8299833488
8299840080
8299848503
8299856254
8299866142
8299871757
8299879264
8299886711
8299894401
8299901542
8299908866
8299915763
8299925224
8299933769
8299940544
8299947868
8299954826
8299961662
8299968986
8299976188
8299986869
8299994376
8300004203
8300010795
8300017692
8300024528
8300033683
8300040275
8300048087
8300058829
8300065971
8300071403
8300079703
8300087699
8300094718
8300102836
8300111014
8300118278
8300124137
8300131705
8300139274
8300147269
8300155265
8300164664
8300171927
8300178519
8300186026
8300192557
8300200736
8300207877
8300215140
8300225211
8300230094
8300239737
8300245108
8300254141
8300260550
8300267203
8300273551
8300283072
8300290640
8300296988
8300302969
8300312369
8300317801
8300325003
8300333304
8300340811
8300347159
8300354727
8300362845
8300370352
8300377371
8300383353
8300392081
8300400198
8300408743
8300416006
8300422293
8300429739
8300436453
8300444143
8300453054
8300460806
8300467032
8300474661
8300482412
8300489675
8300495901
8300503591
8300511892
8300519949
8300527517
8300535269
8300541311
8300548757
8300555715
8300562979
8300569326
8300577383
8300582571
8300589956
8300594656
8300601675
8300605825
8300612722
8300620290
8300627431
8300632803
8300638601
8300645010
8300651113
8300658620
8300665578
8300672170
8300677114
8300682485
8300688528
8300695424
8300702443
8300709279
8300715383
8300721181
8300728200
8300734914
8300740835
8300747121
8300754079
8300759267
8300766591
8300772512
8300777944
8300783315
8300788564
8300795217
8300801625
8300806996
8300811696
8300817678
8300822377
8300828481
8300836537
8300841786
8300848073
8300851979
8300858266
8300863210
8300869740
8300876271
8300882070
8300887013
8300892506
8300899037
8300904958
8300909474
8300916615
8300922231
8300928273
8300933461
8300939259
8300944630
8300951039
8300956288
8300961720
8300969044
8300974721
8300980946
8300986806
8300992787
8300999806
8301005299
8301012013
8301017140
8301023793
8301028676
8301034779
8301042775
8301049305
8301054432
8301060292
8301066029
8301071339
8301078114
8301086476
8301092152
8301097889
8301104420
8301110524
8301117726
8301123219
8301129872
8301137074
8301144459
8301150624
8301158009
8301164356
8301171070
8301177967
8301183949
8301191334
8301196339
8301203602
8301208607
8301216663
8301223988
8301229481
8301237415
8301243336
8301251026
8301258167
8301263782
8301270862
8301277881
8301285389
8301290638
8301297962
8301304310
8301310047
8301316150
8301324939
8301330677
8301337452
8301344654
8301350574
8301356311
8301363392
8301369922
8301376880
8301382984
8301388965
8301395435
8301402027
8301410083
8301415149
8301422412
8301427356
8301434192
8301439990
8301447132
8301454822
8301461475
8301468738
8301473438
8301481189
8301486743
8301494190
8301500659
8301507434
8301515369
8301521045
8301526721
8301532703
8301539661
8301546985
8301552478
8301558826
8301565417
8301573596
8301578662
8301585803
8301591662
8301599292
8301605212
8301612231
8301619128
8301624194
8301631396
8301636035
8301646899
8301651782
8301658923
8301664416
8301671496
8301677722
8301682177
8301690539
8301698107
8301705065
8301711352
8301719531
8301726184
8301732836
8301738757
8301747485
8301755480
8301762072
8301768847
8301775805
8301782214
8301790148
8301797350
8301804675
8301810412
8301818652
8301824145
8301830126
8301841540
8301848742
8301856676
8301862719
8301870775
8301877001
8301886095
8301890856
8301901720
8301909228
8301915636
8301921740
8301929247
8301936876
8301944201
8301949816
8301959154
8301965868
8301973497
8301979723
8301986254
8301992479
8302000048
8302008470
8302015795
8302024523
8302033373
8302040514
8302047899
8302057848
8302066271
8302073717
8302081041
8302088182
8302095750
8302102708
8302110948
8302118700
8302126939
8302135118
8302142686
8302149461
8302156969
8302164110
8302172716
8302180101
8302189989
8302195787
8302205308
8302211595
8302219224
8302227098
8302234300
8302240037
8302249559
8302257920
8302264756
8302270677
8302278062
8302287095
8302294175
8302301560
8302309556
8302316514
8302326585
8302333726
8302339707
8302346421
8302355943
8302363389
8302371385
8302379075
8302386704
8302392625
8302401902
8302408006
8302415391
8302423325
8302431016
8302438340
8302447434
8302452866
8302461960
8302468003
8302475571
8302482773
8302490342
8302498520
8302506211
8302513352
8302521348
8302528306
8302535691
8302542710
8302553086
8302560471
8302568528
8302574631
8302582199
8302589585
8302597519
8302602341
8302616135
8302621872
8302631516
8302637192
8302646530
8302651596
8302659409
8302668442
8302676132
8302682907
8302690170
8302697556
8302705307
8302711777
8302719711
8302728500
8302736252
8302744614
8302752426
8302758774
8302766098
8302772568
8302780075
8302787765
8302795578
8302803573
8302811386
8302818588
8302825912
8302830002
8302839767
8302846115
8302858017
8302865280
8302873092
8302880661
8302888351
8302892318
8302901596
8302907760
8302917953
8302926071
8302934127
8302942367
8302950179
8302956710
8302964156
8302970809
8302980331
8302987228
8302996444
8303002425
8303011642
8303017989
8303024886
8303032760
8303039901
8303046310
8303055404
8303062484
8303069564
8303077804
8303084823
8303093245
8303102157
8303106795
8303116256
8303124068
8303131209
8303136886
8303144332
8303152572
8303163192
8303171492
8303178084
8303184859
8303192671
8303198836
8303207991
8303214461
8303224105
8303231246
8303238875
8303247359
8303254439
8303262251
8303269331
8303277327
8303286299
8303292586
8303301741
8303308943
8303316084
8303322554
8303331709
8303339705
8303347090
8303354170
8303362837
8303372175
8303380110
8303388716
8303396712
8303405317
8303413801
8303421919
8303430098
8303437849
8303445540
8303452803
8303459272
8303468672
8303475508
8303484968
8303490461
8303497663
8303504377
8303511335
8303517561
8303526106
8303532026
8303539045
8303545881
8303552534
8303558332
8303565473
8303571088
8303577436
8303582746
8303589399
8303596906
8303603742
8303609907
8303616193
8303622846
8303629133
8303636640
8303642194
8303648298
8303654401
8303660627
8303665998
8303672773
8303679487
8303683881
8303691511
8303697675
8303702680
8303710798
8303716474
8303723737
8303728009
8303734906
8303742231
8303748212
8303754560
8303759992
8303766034
8303771833
8303777936
8303784101
8303789594
8303795514
8303801068
8303807111
8303813214
8303819684
8303826886
8303831769
8303836713
8303843183
8303848737
8303855451
8303861432
8303866620
8303872601
8303877606
8303883221
8303889569
8303896283
8303901837
8303906598
8303913190
8303918866
8303925214
8303932721
8303939557
8303946698
8303952557
8303957684
8303965619
8303971783
8303977276
8303983136
8303989483
8303996441
8304003766
8304010357
8304016095
8304022625
8304027813
8304033490
8304040509
8304047833
8304052655
8304060162
8304065777
8304073529
8304079449
8304085919
8304092755
8304097210
8304104473
8304109356
8304118939
8304123944
8304130963
8304137127
8304143841
8304150005
8304156841
8304164349
8304169903
8304176922
8304182415
8304189007
8304196453
8304203472
8304209942
8304216595
8304223736
8304229839
8304234539
8304243084
8304245952
8304255901
8304262615
8304269390
8304275005
8304281292
8304286968
8304291973
8304301616
8304307598
8304314556
8304320476
8304325786
8304333110
8304339702
8304346355
8304352275
8304359844
8304366314
8304373088
8304379680
8304386394
8304391948
8304398723
8304405681
8304411235
8304417888
8304422954
8304429729
8304436809
8304444011
8304449626
8304456523
8304461833
8304469341
8304474406
8304483379
8304489970
8304498393
8304503825
8304511882
8304516643
8304524821
8304531474
8304539226
8304547099
8304553569
8304561503
8304566875
8304574809
8304582927
8304588664
8304597087
8304603984
8304610392
8304617289
8304623515
8304626750
8304637980
8304644816
8304655436
8304662211
8304669047
8304675456
8304681681
8304689555
8304698832
8304704203
8304714579
8304721354
8304726481
8304732157
8304742960
8304749430
8304756632
8304765055
8304772013
8304777995
8304784831
8304792521
8304799540
8304807169
8304814371
8304822367
8304828654
8304835917
8304842081
8304848917
8304856058
8304864298
8304870524
8304876383
8304882914
8304890848
8304896952
8304904215
8304910563
8304918131
8304924173
8304931986
8304938944
8304945414
8304953348
8304960184
8304967325
8304974344
8304983499
8304991800
8304997782
8305006082
8305011881
8305022074
8305031046
8305038553
8305045328
8305052896
8305059793
8305068338
8305076028
8305084024
8305092142
8305099527
8305105936
8305113260
8305122049
8305127664
8305135843
8305144144
8305152017
8305159769
8305166788
8305175516
8305182351
8305190164
8305196756
8305207498
8305214822
8305222940
8305230081
8305237710
8305244485
8305253457
8305260965
8305271157
8305278237
8305285256
8305291421
8305299600
8305307229
8305315896
8305324929
8305332559
8305339700
8305346963
8305354775
8305362710
8305370339
8305377786
8305384499
8305393960
8305399941
8305408913
8305414834
8305422219
8305428323
8305435891
8305445534
8305453591
8305460671
8305467934
8305474343
8305483559
8305488808
8305498208
8305504555
8305514199
8305520424
8305528115
8305534462
8305542519
8305550576
8305557839
8305565956
8305573891
8305580605
8305590431
8305597145
8305605019
8305611000
8305618386
8305627358
8305634377
8305641152
8305648537
8305655800
8305663185
8305670937
8305678383
8305685341
8305693214
8305699989
8305707313
8305714394
8305721596
8305729286
8305739174
8305744484
8305754371
8305761513
8305769935
8305776344
8305785377
8305793312
8305799171
8305808693
8305817970
8305825355
8305832252
8305839943
8305848060
8305853736
8305860023
8305871009
8305880287
8305885963
8305894996
8305901100
8305907020
8305916969
8305921119
8305935584
8305950050
8305957557
8305966590
8305972877
8305982642
8305991431
8305999610
8306004188
8306015052
8306019324
8306029212
8306036902
8306044410
8306048316
8306059485
8306067725
8306075110
8306082862
8306088660
8306096106
8306105628
8306112830
8306120948
8306127662
8306134986
8306142127
8306149390
8306156348
8306163916
8306171179
8306178809
8306186560
8306193946
8306201087
8306209082
8306217688
8306224890
8306233374
8306241736
8306248389
8306256140
8306264197
8306271948
8306276099
8306285864
8306294165
8306305334
8306311194
8306320471
8306329077
8306335913
8306344031
8306349829
8306359778
8306365759
8306375952
8306383032
8306392676
8306398657
8306406042
8306414160
8306421911
8306429602
8306437109
8306444250
8306451513
8306459509
8306466101
8306472509
8306480627
8306486975
8306493994
8306500097
8306505956
8306511816
8306516271
8306525732
8306531896
8306537328
8306542272
8306549108
8306554907
8306559850
8306566015
8306572363
8306580114
8306586095
8306591467
8306598730
8306603735
8306612951
8306619726
8306627050
8306633642
8306639013
8306647497
8306653356
8306661230
8306667028
8306674474
8306680395
8306686132
8306693151
8306699498
8306706334
8306713109
8306718297
8306723241
8306728185
8306735631
8306741368
8306747777
8306753881
8306760289
8306766332
8306771581
8306777440
8306782506
8306788060
8306795201
8306800633
8306805882
8306810826
8306816869
8306823155
8306828954
8306835362
8306841161
8306846654
8306851720
8306857945
8306865453
8306871068
8306876012
8306881566
8306886937
8306893834
8306898534
8306905003
8306912389
8306918919
8306923985
8306930943
8306936680
8306944493
8306950657
8306957371
8306963414
8306968419
8306974888
8306980748
8306986912
8306994053
8306998448
8307005528
8307010838
8307018284
8307023106
8307030186
8307036229
8307044529
8307050755
8307056675
8307062535
8307068699
8307076756
8307083103
8307089939
8307095799
8307101292
8307108860
8307113499
8307121250
8307129124
8307135532
8307143040
8307148777
8307155125
8307161900
8307167210
8307174351
8307181065
8307186008
8307195347
8307200962
8307208652
8307213657
8307220920
8307227817
8307234470
8307241062
8307247349
8307254612
8307262485
8307267490
8307275669
8307281589
8307287998
8307295688
8307302585
8307309909
8307314548
8307323520
8307329136
8307336277
8307342258
8307348850
8307355197
8307359775
8307369052
8307375705
8307381687
8307386875
8307393955
8307400058
8307405490
8307413364
8307418796
8307424716
8307432041
8307439487
8307444858
8307452548
8307458530
8307465732
8307473178
8307479099
8307486301
8307491855
8307498874
8307504977
8307511813
8307519321
8307524570
8307531833
8307536532
8307543613
8307551791
8307558017
8307563754
8307570712
8307576449
8307582797
8307589755
8307596835
8307603366
8307610202
8307617648
8307624484
8307630770
8307637484
8307645541
8307652499
8307660556
8307667269
8307672946
8307681491
8307687533
8307695773
8307703768
8307709506
8307718051
8307724398
8307732150
8307740817
8307747897
8307753268
8307762362
8307770785
8307777926
8307785250
8307793917
8307802157
8307811312
8307818941
8307828036
8307835299
8307843722
8307851229
8307858065
8307866854
8307872713
8307881930
8307888582
8307896944
8307904940
8307913057
8307920626
8307928499
8307936251
8307942049
8307950838
8307958162
8307966036
8307972811
8307979219
8307986238
8307994112
8308002535
8308010591
8308017610
8308024507
8308032381
8308040254
8308050569
8308058321
8308065279
8308073518
8308081331
8308087068
8308096101
8308101472
8308110567
8308117464
8308126863
8308132966
8308141511
8308149995
8308155977
8308165559
8308172090
8308180208
8308186494
8308194124
8308203950
8308211213
8308217683
8308227754
8308234712
8308242829
8308251130
8308256013
8308265107
8308272554
8308279450
8308288667
8308296723
8308304719
8308312470
8308319917
8308326447
8308333772
8308342194
8308352143
8308358369
8308365815
8308374055
8308382050
8308388032
8308395844
8308403901
8308412263
8308418549
8308426362
8308433991
8308441498
8308449372
8308456940
8308464570
8308472748
8308479828
8308487153
8308495087
8308502778
8308509247
8308517060
8308525055
8308532135
8308542267
8308550263
8308558014
8308563813
8308570465
8308581513
8308589569
8308597199
8308605011
8308612091
8308620758
8308628449
8308635956
8308643524
8308651337
8308660553
8308666107
8308674469
8308681549
8308688995
8308696258
8308703094
8308713653
8308722626
8308730377
8308737823
8308745086
8308752167
8308760772
8308767975
8308777008
8308786224
8308791839
8308798492
8308807464
8308815338
8308822845
8308828888
8308838470
8308845672
8308853118
8308859161
8308868194
8308874481
8308883636
8308889739
8308899444
8308905670
8308914398
8308922454
8308927032
8308936248
8308942168
8308950713
8308959258
8308966521
8308975433
8308981353
8308989959
8308996429
8309003631
8309010833
8309021636
8309028350
8309034026
8309043242
8309048797
8309057586
8309064727
8309073394
8309081023
8309086944
8309096221
8309105193
8309113005
8309117217
8309126616
8309135833
8309143950
8309151702
8309159453
8309166228
8309173979
8309181304
8309188933
8309195525
8309205229
8309212737
8309220549
8309227019
8309234404
8309242949
8309250700
8309257719
8309266020
8309274870
8309282744
8309289214
8309297697
8309305449
8309313566
8309321989
8309333098
8309340849
8309348417
8309357206
8309366728
8309374785
8309383085
8309392363
8309399748
8309407805
8309415861
8309422575
8309430265
8309436796
8309446806
8309451811
8309460234
8309466825
8309474089
8309480070
8309485380
8309493681
8309499540
8309506376
8309510587
8309517790
8309524442
8309529569
8309536833
8309542997
8309550504
8309556608
8309562772
8309570036
8309575101
8309580595
8309588102
8309595548
8309598661
8309607450
8309612455
8309619047
8309624418
8309630704
8309638395
8309644254
8309650419
8309656583
8309662931
8309668058
8309675809
8309681424
8309686002
8309692106
8309697171
8309703458
8309709684
8309715055
8309720487
8309727140
8309732206
8309737210
8309743131
8309751432
8309757840
8309763150
8309768277
8309774320
8309779202
8309785184
8309791654
8309796292
8309802518
8309808133
8309813443
8309820035
8309824674
8309831265
8309836148
8309843533
8309848111
8309855985
8309861234
8309868558
8309876126
8309883206
8309890347
8309896878
8309902859
8309908353
8309916287
8309922940
8309929898
8309936612
8309942776
8309949124
8309954373
8309960782
8309967434
8309972317
8309978848
8309985562
8309991543
8309998257
8310005337
8310012234
8310017483
8310024136
8310031521
8310036648
8310044766
8310051297
8310057217
8310064236
8310070828
8310076138
8310083218
8310089016
8310095913
8310103237
8310108486
8310115811
8310123013
8310127590
8310135159
8310140957
8310148586
8310154140
8310161526
8310168911
8310174221
8310181057
8310185574
8310194546
8310200832
8310206997
8310213283
8310219204
8310226406
8310231777
8310240505
8310245571
8310252285
8310258754
8310264553
8310271023
8310276821
8310283718
8310291103
8310297023
8310302517
8310308864
8310315639
8310321010
8310325832
8310335475
8310341457
8310348720
8310352809
8310360073
8310365993
8310373378
8310379787
8310384853
8310392421
8310397792
8310403468
8310409877
8310415798
8310422450
8310430141
8310436244
8310441676
8310447170
8310455043
8310461635
8310470546
8310478419
8310485072
8310492824
8310498500
8310506801
8310512782
8310521327
8310529140
8310536708
8310543056
8310549464
8310555934
8310562159
8310569972
8310575831
8310584315
8310591395
8310596522
8310605433
8310610499
8310618495
8310624598
8310632777
8310638758
8310646266
8310654261
8310660060
8310668360
8310673792
8310683924
8310691065
8310697901
8310706263
8310713099
8310720057
8310726710
8310736109
8310744349
8310750208
8310758021
8310763209
8310771326
8310777430
8310786829
8310793909
8310801356
8310808497
8310815333
8310823939
8310829004
8310837794
8310842859
8310851893
8310859400
8310865625
8310871363
8310880640
8310887171
8310895472
8310903589
8310912012
8310919092
8310924707
8310932764
8310938257
8310946680
8310952539
8310962549
8310970667
8310977991
8310983850
8310990320
8310997156
8311006067
8311016260
8311024072
8311030725
8311038110
8311046960
8311052515
8311058984
8311067712
8311074060
8311085229
8311092798
8311100915
8311107751
8311115747
8311119958
8311129846
8311138513
8311146570
8311155725
8311164148
8311171594
8311179406
8311188379
8311196130
8311205407
8311212732
8311220422
8311229577
8311235498
8311244531
8311251489
8311258264
8311270227
8311276330
8311284509
8311293786
8311301537
8311308740
8311315881
8311324365
8311332726
8311340722
8311348595
8311355004
8311362756
8311370019
8311377221
8311385522
8311395837
8311401696
8311412560
8311420006
8311427086
8311432030
8311441247
8311447289
8311457482
8311463524
8311473107
8311478478
8311486290
8311495079
8311502465
8311512047
8311521263
8311528771
8311535546
8311542931
8311550072
8311557030
8311564232
8311570702
8311579735
8311588219
8311595421
8311602623
8311609520
8311619286
8311625206
8311638084
8311645592
8311653404
8311660362
8311667625
8311675621
8311683311
8311689903
8311699669
8311707420
8311714866
8311721702
8311729149
8311736473
8311741783
8311748314
8311759544
8311768577
8311774498
8311782066
8311789940
8311797691
8311805748
8311810020
8311822654
8311829185
8311836570
8311843406
8311851158
8311858177
8311866722
8311874290
8311884483
8311891685
8311899131
8311905479
8311913352
8311921714
8311927451
8311937095
8311945396
8311952354
8311959800
8311967673
8311975913
8311983115
8311991599
8312000266
8312008445
8312015830
8312023215
8312029563
8312037009
8312045615
8312051597
8312057456
8312068931
8312076865
8312084433
8312092246
8312099936
8312106894
8312111533
8312121604
8312130088
8312137107
8312144858
8312151389
8312159201
8312167258
8312171958
8312181052
8312191062
8312197348
8312205832
8312211752
8312220297
8312229330
8312234702
8312241476
8312251852
8312259482
8312267783
8312273764
8312282431
8312288534
8312296835
8312305136
8312312887
8312320334
8312327719
8312333517
8312341818
8312347738
8312358664
8312365683
8312374167
8312382101
8312390280
8312398520
8312406454
8312413717
8312421408
8312427572
8312436849
8312443197
8312450399
8312458395
8312465353
8312471151
8312478964
8312484640
8312491537
8312497762
8312505331
8312510702
8312516744
8312523336
8312529073
8312537008
8312543356
8312549093
8312555807
8312560323
8312568014
8312574239
8312580465
8312588399
8312593526
8312600728
8312605672
8312612630
8312618429
8312625020
8312633321
8312639486
8312647237
8312652425
8312657735
8312666890
8312671773
8312678609
8312684102
8312690572
8312697957
8312704549
8312710775
8312716329
8312722188
8312727559
8312733602
8312740254
8312746846
8312753011
8312757894
8312762837
8312769429
8312773702
8312779927
8312785176
8312792561
8312797444
8312803548
8312809834
8312815511
8312821431
8312828450
8312834248
8312840596
8312846516
8312851704
8312859334
8312864827
8312872334
8312877705
8312884724
8312891377
8312895711
8312903523
8312910847
8312917683
8312922322
8312928914
8312935628
8312941792
8312948262
8312955098
8312961812
8312967427
8312974995
8312981404
8312986409
8312992939
8313000813
8313006001
8313013142
8313019062
8313025105
8313032307
8313037739
8313043537
8313050129
8313057453
8313064656
8313070454
8313077656
8313083393
8313090351
8313096882
8313105000
8313109699
8313116779
8313121723
8313129047
8313135029
8313142902
8313148701
8313155109
8313161274
8313167499
8313175556
8313181660
8313188862
8313196613
8313203388
8313209247
8313214741
8313221576
8313229084
8313234760
8313242695
8313248798
8313255024
8313261676
8313267536
8313275226
8313282123
8313287250
8313294269
8313301654
8313306537
8313314716
8313320209
8313327594
8313334430
8313341205
8313347309
8313354145
8313360858
8313367633
8313373737
8313380939
8313387775
8313393817
8313398395
8313405841
8313412189
8313419635
8313424762
8313432819
8313439777
8313444781
8313452899
8313459064
8313465961
8313474078
8313479266
8313485065
8313491717
8313499286
8313504779
8313513263
8313518878
8313526507
8313531695
8313538592
8313545916
8313553424
8313560443
8313566058
8313574176
8313580401
8313588824
8313595538
8313602008
8313610003
8313618670
8313625445
8313631488
8313641375
8313648333
8313656024
8313663714
8313671893
8313679400
8313686724
8313696124
8313704119
8313712725
8313721453
8313728655
8313736651
8313743060
8313750750
8313756914
8313764666
8313771563
8313778399
8313786577
8313793535
8313802630
8313810015
8313815752
8313823809
8313832598
8313839800
8313845049
8313856524
8313862932
8313871843
8313877031
8313885393
8313892473
8313900591
8313908953
8313915056
8313921953
8313930193
8313939470
8313946489
8313953264
8313961199
8313968767
8313977007
8313983537
8313990556
8313999101
8314006609
8314016191
8314023637
8314029375
8314037248
8314043413
8314052324
8314058122
8314069170
8314076189
8314083635
8314090471
8314098100
8314104265
8314112626
8314121843
8314130266
8314140886
8314147661
8314155595
8314163713
8314169450
8314177263
8314184465
8314192033
8314200761
8314208818
8314215043
8314223039
8314229447
8314238481
8314246781
8314252213
8314259843
8314273087
8314280717
8314288407
8314294022
8314303056
8314310807
8314319047
8314326188
8314334061
8314339371
8314346818
8314355424
8314364335
8314371537
8314377824
8314384720
8314392411
8314399064
8314408036
8314417008
8314425309
8314431962
8314438370
8314444657
8314452164
8314458817
8314465348
8314474564
8314481705
8314487809
8314494217
8314502884
8314510819
8314518265
8314528702
8314537308
8314544876
8314552323
8314559403
8314566666
8314576798
8314584732
8314592972
8314601883
8314611221
8314618790
8314624649
8314634598
8314641800
8314650711
8314659683
8314667068
8314675003
8314681900
8314687332
8314696731
8314703079
8314713699
8314721390
8314728470
8314734878
8314742447
8314749710
8314757278
8314764602
8314773086
8314779617
8314787185
8314795486
8314803299
8314810745
8314816482
8314824111
8314831863
8314839675
8314847122
8314853713
8314861770
8314868972
8314876479
8314880813
8314890579
8314896987
8314906692
8314912612
8314921096
8314927444
8314933242
8314942153
8314949294
8314955947
8314962234
8314971694
8314977065
8314986709
8314991836
8315000930
8315008132
8315017837
8315023940
8315032668
8315040419
8315047439
8315054702
8315061660
8315069472
8315078139
8315086013
8315092421
8315099440
8315108168
8315115615
8315124953
8315132643
8315139418
8315146803
8315154616
8315160353
8315168959
8315176711
8315184340
8315194777
8315199843
8315208998
8315215895
8315223097
8315231215
8315239882
8315249159
8315256239
8315263075
8315273878
8315281080
8315287855
8315294386
8315302015
8315308912
8315319044
8315326368
8315333876
8315342421
8315349745
8315356642
8315364149
8315372084
8315381788
8315388197
8315394667
8315401808
8315407667
8315415052
8315423170
8315430738
8315436537
8315443678
8315448377
8315455519
8315460829
8315467237
8315475965
8315481214
8315488050
8315494032
8315500440
8315506605
8315513380
8315519056
8315526563
8315531324
8315537489
8315542493
8315549451
8315554029
8315561780
8315568372
8315573743
8315579236
8315585096
8315590894
8315598096
8315603895
8315611890
8315618360
8315623975
8315630750
8315635877
8315642041
8315649427
8315654920
8315661084
8315667676
8315671704
8315678662
8315682630
8315690442
8315695691
8315701734
8315706922
8315712842
8315720166
8315725110
8315731763
8315736829
8315742505
8315749036
8315754102
8315759168
8315764295
8315771619
8315778455
8315784009
8315790234
8315794995
8315801160
8315807507
8315813489
8315819226
8315825024
8315831616
8315837415
8315844006
8315851819
8315859265
8315864941
8315870312
8315877209
8315883069
8315889599
8315896557
8315903332
8315909985
8315916394
8315922009
8315928662
8315934643
8315941662
8315948620
8315954602
8315960705
8315967480
8315974743
8315979870
8315988049
8315995007
8316000256
8316008129
8316012768
8316019665
8316026806
8316033276
8316040234
8316045544
8316052380
8316058056
8316064587
8316071301
8316080334
8316084179
8316093151
8316098888
8316104748
8316111889
8316117016
8316123425
8316130016
8316138195
8316143688
8316150890
8316155773
8316163097
8316170849
8316177502
8316183300
8316190807
8316196605
8316202709
8316208202
8316215099
8316221935
8316230297
8316235668
8316242870
8316249401
8316256115
8316264843
8316270092
8316277416
8316282665
8316289745
8316295177
8316301769
8316306591
8316313854
8316322399
8316329174
8316336315
8316341075
8316348461
8316354076
8316361583
8316367748
8316374034
8316381419
8316387096
8316392345
8316401012
8316407726
8316415416
8316422374
8316427989
8316436473
8316444224
8316450450
8316457469
8316464732
8316471690
8316477672
8316485179
8316491405
8316498729
8316505015
8316511729
8316517528
8316524547
8316530955
8316538096
8316545237
8316551646
8316559336
8316565928
8316571238
8316578746
8316586741
8316594798
8316600596
8316608531
8316613291
8316621470
8316629283
8316637705
8316646372
8316652354
8316660594
8316666331
8316674998
8316680247
8316688120
8316694102
8316704234
8316710459
8316717478
8316724863
8316731699
8316737559
8316747446
8316754038
8316763010
8316768992
8316777415
8316784800
8316791453
8316799082
8316805796
8316811716
8316820383
8316828379
8316834665
8316841135
8316847422
8316852915
8316862864
8316870920
8316877390
8316884287
8316893015
8316899057
8316907724
8316914072
8316922800
8316934946
8316941538
8316949777
8316954965
8316963754
8316970712
8316977915
8316984079
8316992258
8316999277
8317007578
8317013559
8317021310
8317029428
8317034250
8317043344
8317052194
8317060739
8317066720
8317075387
8317081491
8317092111
8317098764
8317109689
8317116830
8317125436
8317133310
8317139535
8317148263
8317154489
8317167306
8317172555
8317184030
8317189218
8317198556
8317206307
8317213143
8317219491
8317228585
8317235726
8317242562
8317248971
8317256600
8317262460
8317270211
8317278268
8317286019
8317294137
8317299691
8317308663
8317314156
8317322823
8317328561
8317336800
8317344674
8317351144
8317358712
8317364632
8317371773
8317381051
8317385995
8317395272
8317406258
8317414681
8317422188
8317426400
8317436470
8317444222
8317451546
8317458626
8317466011
8317472481
8317479927
8317488350
8317494026
8317503182
8317510933
8317517952
8317526253
8317533272
8317540718
8317546944
8317555123
8317561409
8317570076
8317576180
8317585701
8317592598
8317601570
8317607491
8317615852
8317622078
8317630745
8317639473
8317648323
8317655403
8317663032
8317669502
8317677131
8317683540
8317690254
8317698921
8317706550
8317714058
8317721504
8317730659
8317738777
8317745002
8317751045
8317759712
8317769416
8317777351
8317785163
8317791145
8317797737
8317804634
8317812629
8317819404
8317831123
8317838264
8317846992
8317853584
8317861335
8317867683
8317875800
8317881782
8317891975
8317900886
8317908698
8317915473
8317923652
8317932075
8317941047
8317948554
8317958930
8317965888
8317973517
8317980109
8317987800
8317995063
8318003058
8318012031
8318022162
8318029487
8318036261
8318042365
8318049933
8318056708
8318064215
8318073371
8318082160
8318088996
8318096808
8318103766
8318111457
8318120124
8318125922
8318132758
8318143134
8318149848
8318157294
8318164008
8318171393
8318178839
8318186285
8318195746
8318204047
8318211310
8318219366
8318226996
8318234564
8318238531
8318249457
8318256476
8318264471
8318271795
8318279425
8318287665
8318295355
8318302130
8318309942
8318317144
8318324896
8318333807
8318341314
8318347418
8318354437
8318360907
8318368780
8318375555
8318384649
8318390570
8318397283
8318404669
8318407659
8318416448
8318422064
8318428778
8318435186
8318440313
8318446234
8318452764
8318459661
8318465765
8318473333
8318479620
8318485174
8318490423
8318498174
8318504217
8318510564
8318518072
8318523626
8318530340
8318536565
8318540899
8318548162
8318555852
8318564214
8318570623
8318577947
8318583562
8318589605
8318595342
8318599370
8318608953
8318614812
8318620672
8318626165
8318631597
8318637334
8318643621
8318649968
8318655828
8318660466
8318666631
8318671758
8318678105
8318685247
8318689153
8318696172
8318702519
8318709111
8318714421
8318720708
8318727300
8318731938
8318740117
8318746648
8318750859
8318757817
8318763982
8318770085
8318776250
8318781743
8318788335
8318793279
8318799504
8318807011
8318813054
8318819402
8318823857
8318830815
8318836735
8318842778
8318850712
8318856816
8318862553
8318867985
8318874394
8318879338
8318886235
8318894169
8318900883
8318906559
8318913701
8318920720
8318927372
8318931828
8318941044
8318946476
8318953923
8318959355
8318966252
8318973332
8318980961
8318987126
8318995060
8319000553
8319006901
8319013554
8319018315
8319025334
8319034489
8319040470
8319046635
8319053532
8319059696
8319065006
8319070561
8319076603
8319084110
8319091862
8319097965
8319105045
8319112553
8319118717
8319124515
8319131901
8319138187
8319145817
8319150333
8319158268
8319165287
8319170963
8319178959
8319185428
8319191227
8319197635
8319203373
8319208744
8319216190
8319222110
8319228763
8319235782
8319243473
8319249393
8319255863
8319262027
8319268497
8319275211
8319283084
8319287601
8319294681
8319300357
8319307010
8319314640
8319321597
8319327762
8319333133
8319341007
8319347476
8319354190
8319361087
8319368228
8319374515
8319380862
8319388736
8319394351
8319401614
8319411807
8319417300
8319425052
8319430728
8319436954
8319443362
8319449649
8319456729
8319464480
8319470218
8319477237
8319482059
8319488894
8319496280
8319502139
8319511111
8319517764
8319523379
8319528445
8319536685
8319542788
8319551516
8319557864
8319566409
8319574527
8319580020
8319587283
8319595034
8319601931
8319608401
8319618289
8319623965
8319631228
8319639346
8319646731
8319653506
8319660220
8319669741
8319676211
8319685122
8319691409
8319697695
8319705691
8319712099
8319722292
8319730044
8319738222
8319745363
8319751955
8319759524
8319766360
8319775088
8319782961
8319790041
8319799746
8319806521
8319813967
8319820864
8319829958
8319836855
8319844912
8319850588
8319858461
8319866213
8319871706
8319881105
8319886843
8319893984
8319907961
8319915956
8319922609
8319929933
8319936952
8319946657
8319953127
8319961855
8319969362
8319977907
8319984987
8319991396
8319999208
8320005067
8320015504
8320024660
8320032899
8320039979
8320047548
8320055726
8320063173
8320069093
8320078859
8320085634
8320095277
8320102968
8320110170
8320115297
8320124147
8320129335
8320139283
8320147523
8320154725
8320160707
8320168702
8320176149
8320184510
8320191712
8320201295
8320209046
8320216004
8320223451
8320231080
8320237977
8320245606
8320252686
8320261170
8320267762
8320277284
8320284730
8320290467
8320297974
8320305238
8320312135
8320322877
8320329591
8320336915
8320343690
8320351319
8320358643
8320366212
8320370423
8320381165
8320390076
8320398194
8320404236
8320412232
8320419739
8320427308
8320435242
8320444214
8320451599
8320459656
8320467591
8320475708
8320483033
8320489136
8320497742
8320505432
8320513489
8320521118
8320528137
8320536072
8320544312
8320552857
8320557251
8320569580
8320578308
8320585938
8320592834
8320600159
8320608948
8320615478
8320623047
8320632934
8320640564
8320647461
8320653381
8320661499
8320668579
8320675903
8320682922
8320692505
8320698730
8320707824
8320715515
8320722595
8320729309
8320736145
8320743896
8320752807
8320759338
8320767761
8320773071
8320780639
8320787292
8320796630
8320801635
8320811462
8320818115
8320824829
8320833007
8320841613
8320847656
8320856811
8320866576
8320873046
8320881957
8320887878
8320896300
8320902221
8320911864
8320917846
8320927672
8320935851
8320943297
8320950683
8320958068
8320964660
8320971984
8320979613
8320989684
8320996764
8321004882
8321012389
8321019774
8321026793
8321034362
8321042540
8321050658
8321058959
8321066771
8321072875
8321080138
8321088133
8321095641
8321103331
8321111388
8321118651
8321127745
8321133421
8321143187
8321149901
8321156920
8321164183
8321174376
8321180296
8321189574
8321195677
8321205260
8321210387
8321217955
8321226622
8321236449
8321244566
8321251402
8321258238
8321265074
8321271177
8321281614
8321289122
8321298643
8321307188
8321314329
8321322752
8321329161
8321334532
8321343199
8321350096
8321355345
8321364134
8321372129
8321377867
8321384519
8321391355
8321398496
8321405760
8321411375
8321417173
8321422727
8321428404
8321435484
8321442686
8321448484
8321455869
8321461912
8321466795
8321472288
8321479185
8321486143
8321491819
8321497251
8321502622
8321509885
8321515928
8321522336
8321528135
8321535093
8321542478
8321547971
8321554868
8321559934
8321566587
8321573606
8321580259
8321586423
8321591245
8321597593
8321603208
8321607724
8321616513
8321621763
8321627805
8321633481
8321639219
8321647092
8321649778
8321659116
8321664426
8321670346
8321677243
8321681821
8321688352
8321694272
8321701474
8321706479
8321711972
8321718686
8321725095
8321729001
8321736447
8321742673
8321748410
8321755063
8321761411
8321767514
8321773984
8321781247
8321786252
8321792477
8321799680
8321806576
8321813412
8321819760
8321827267
8321832516
8321839291
8321845761
8321852048
8321858700
8321866086
8321870541
8321877255
8321882931
8321889950
8321895810
8321901059
8321910397
8321917050
8321922848
8321928646
8321934384
8321940976
8321946408
8321953671
8321960995
8321967037
8321971554
8321979367
8321983944
8321992123
8321997921
8322005856
8322010555
8322018307
8322023068
8322029843
8322037289
8322044003
8322049496
8322056942
8322063473
8322069576
8322076107
8322081783
8322089718
8322095882
8322103146
8322108456
8322115536
8322122433
8322128292
8322134395
8322141537
8322149044
8322154354
8322160213
8322167782
8322173580
8322178646
8322188534
8322193783
8322200863
8322205684
8322212825
8322217952
8322225032
8322232113
8322237789
8322245052
8322251277
8322256954
8322263362
8322269161
8322277400
8322284297
8322289669
8322296504
8322302181
8322308772
8322316463
8322319515
8322330379
8322336971
8322343562
8322350398
8322355159
8322363155
8322370601
8322376826
8322383357
8322390132
8322396907
8322403804
8322409968
8322416133
8322424373
8322432735
8322440120
8322446162
8322453181
8322459407
8322465999
8322474544
8322480891
8322487727
8322494258
8322501094
8322506953
8322515315
8322522639
8322528315
8322535701
8322541560
8322548274
8322555720
8322561091
8322570063
8322576533
8322582881
8322592524
8322599421
8322606562
8322611933
8322621455
8322628962
8322635920
8322642573
8322651362
8322658442
8322665156
8322672846
8322682124
8322690058
8322697199
8322704340
8322711237
8322720087
8322727106
8322736323
8322744135
8322752009
8322759638
8322767634
8322774408
8322783198
8322791498
8322796625
8322804499
8322810968
8322817560
8322824823
8322833002
8322839045
8322847773
8322855097
8322860590
8322867182
8322873468
8322880792
8322889154
8322897516
8322906244
8322913690
8322917719
8322926996
8322935785
8322941461
8322947748
8322959955
8322967218
8322974664
8322981927
8322989984
8322994379
8323003595
8323009393
8323021478
8323029230
8323036676
8323043451
8323050287
8323057245
8323065729
8323072015
8323081598
8323089898
8323098382
8323105645
8323113519
8323121087
8323130792
8323139886
8323148248
8323153924
8323161920
8323167718
8323182611
8323191949
8323200555
8323207208
8323214837
8323223321
8323230645
8323237603
8323245171
8323252557
8323262566
8323270440
8323277337
8323284295
8323293084
8323297845
8323307244
8323313775
8323324029
8323331658
8323338738
8323345147
8323352471
8323359002
8323368157
8323374932
8323383782
8323391778
8323398797
8323408196
8323414299
8323421868
8323429070
8323439568
8323446892
8323455132
8323463372
8323469353
8323477043
8323484429
8323491570
8323499199
8323507073
8323514458
8323521965
8323527763
8323536186
8323542778
8323551872
8323559807
8323566826
8323575920
8323584465
8323591850
8323598930
8323607536
8323615837
8323622978
8323631706
8323637626
8323647087
8323653374
8323660026
8323668754
8323677788
8323684868
8323692863
8323699638
8323708366
8323715202
8323723747
8323730217
8323739677
8323749137
8323757194
8323764030
8323772087
8323780570
8323787895
8323795341
8323803886
8323811698
8323821464
8323828056
8323836417
8323845939
8323852165
8323862296
8323870658
8323878898
8323886771
8323894218
8323901237
8323908927
8323916190
8323923942
8323931937
8323939994
8323947867
8323955314
8323962028
8323969596
8323977714
8323986197
8323993033
8324000357
8324009269
8324017081
8324023856
8324031485
8324038199
8324046134
8324053519
8324062552
8324068106
8324075675
8324083060
8324090689
8324099356
8324107352
8324114371
8324121878
8324130789
8324136954
8324144827
8324150687
8324158987
8324166739
8324175772
8324183218
8324190054
8324197989
8324204642
8324212271
8324219778
8324229849
8324236563
8324244314
8324251944
8324259817
8324263907
8324275015
8324280996
8324290579
8324297110
8324305899
8324311880
8324319021
8324324759
8324329763
8324337881
8324343924
8324351248
8324355886
8324362112
8324368154
8324374685
8324383108
8324388540
8324395315
8324401846
8324408376
8324413381
8324421743
8324427053
8324433401
8324440176
8324448110
8324453787
8324460256
8324467519
8324473928
8324480764
8324487234
8324492544
8324500906
8324506704
8324514577
8324520376
8324527456
8324534353
8324538686
8324545522
8324552053
8324558828
8324565236
8324570730
8324577627
8324583120
8324588796
8324594472
8324600759
8324606618
8324612233
8324617482
8324623769
8324628286
8324634450
8324640554
8324646413
8324652577
8324657643
8324664296
8324669789
8324675649
8324681935
8324688039
8324693898
8324699819
8324706166
8324710622
8324717091
8324722279
8324729543
8324736012
8324741505
8324748402
8324754567
8324760182
8324767445
8324772816
8324779225
8324786305
8324792226
8324797230
8324803212
8324809987
8324815053
8324821705
8324828480
8324836049
8324841908
8324849721
8324856373
8324861867
8324870167
8324877369
8324882313
8324891652
8324896779
8324904103
8324910206
8324916798
8324924244
8324928883
8324936207
8324940724
8324949635
8324954884
8324961964
8324967152
8324974781
8324981068
8324986378
8324992726
8325000294
8325006275
8325013538
8325021534
8325026478
8325033680
8325041615
8325048756
8325056812
8325063099
8325068897
8325074451
8325082020
8325087879
8325096119
8325104481
8325111439
8325117603
8325123768
8325129566
8325137379
8325144214
8325149219
8325156116
8325163501
8325168628
8325175770
8325181141
8325189380
8325196216
8325202076
8325209583
8325216541
8325222522
8325227954
8325235523
8325242725
8325247913
8325253772
8325260608
8325267871
8325274463
8325280689
8325287525
8325294544
8325301380
8325307483
8325313159
8325319324
8325327380
8325333545
8325340259
8325346973
8325352222
8325361560
8325367236
8325374499
8325380603
8325386645
8325394885
8325399951
8325406421
8325414416
8325421191
8325429004
8325435351
8325441699
8325449084
8325456592
8325462817
8325472583
8325478808
8325485522
8325490893
8325497485
8325506152
8325513232
8325518664
8325528857
8325535937
8325543139
8325549975
8325557116
8325564746
8325571459
8325579943
8325586413
8325593981
8325600146
8325607897
8325614306
8325621569
8325629931
8325636034
8325644335
8325651965
8325659716
8325667834
8325673815
8325681200
8325688402
8325698290
8325703966
8325712511
8325718188
8325725085
8325733080
8325740465
8325747606
8325757372
8325764696
8325770922
8325778551
8325784960
8325791002
8325798876
8325805223
8325813951
8325821703
8325827379
8325833666
8325841906
8325847399
8325855272
8325862902
8325870775
8325877489
8325885423
8325892992
8325901109
8325907823
8325916002
8325925157
8325932542
8325943163
8325951463
8325959215
8325969530
8325978014
8325983812
8325990953
8326000658
8326007493
8326016832
8326023912
8326030687
8326040513
8326049180
8326057298
8326066270
8326072984
8326080919
8326091905
8326097337
8326107591
8326114976
8326123155
8326130296
8326138230
8326144578
8326152330
8326160142
8326169602
8326175584
8326184678
8326190232
8326197984
8326206162
8326214280
8326221177
8326231980
8326239182
8326246262
8326254197
8326260972
8326269395
8326276231
8326285386
8326294419
8326302781
8326309006
8326318833
8326325913
8326333848
8326341660
8326349961
8326357102
8326364487
8326373459
8326379685
8326388596
8326394272
8326403183
8326411911
8326419785
8326427842
8326435959
8326443466
8326449509
8326457138
8326466355
8326474961
8326483261
8326491501
8326498459
8326506088
8326513107
8326523605
8326529770
8326539841
8326547836
8326556259
8326563278
8326570114
8326576828
8326585495
8326593735
8326599716
8326610153
8326616562
8326624069
8326631882
8326639450
8326646835
8326654342
8326662765
8326670517
8326677353
8326686874
8326693039
8326700180
8326707382
8326715133
8326723068
8326730880
8326739486
8326745040
8326753280
8326760787
8326767745
8326777999
8326786117
8326792892
8326801132
8326808395
8326814987
8326824142
8326832320
8326839462
8326848556
8326856124
8326863204
8326872481
8326879195
8326886031
8326894637
8326903670
8326910567
8326917525
8326924544
8326933455
8326939071
8326948104
8326955306
8326963302
8326970260
8326978865
8326985701
8326994796
8327000960
8327010054
8327021163
8327028365
8327035872
8327043929
8327049422
8327055525
8327064986
8327074019
8327082442
8327090865
8327098555
8327104842
8327112654
8327121077
8327129622
8327138655
8327145735
8327154402
8327161055
8327168806
8327176436
8327182112
8327191450
8327200484
8327207991
8327214461
8327224165
8327231795
8327238630
8327245649
8327255842
8327261213
8327269514
8327275312
8327283552
8327291365
8327295942
8327303694
8327310163
8327318159
8327323652
8327330427
8327335798
8327341108
8327347700
8327353926
8327361433
8327366926
8327372907
8327379072
8327385237
8327392256
8327398603
8327405012
8327412275
8327417585
8327423139
8327429975
8327436750
8327441633
8327450849
8327456159
8327463300
8327470808
8327476057
8327482893
8327487470
8327496625
8327502973
8327509382
8327514387
8327520063
8327527631
8327533124
8327539716
8327544843
8327550641
8327555341
8327561078
8327567487
8327573346
8327580243
8327586225
8327592450
8327597394
8327602887
8327609784
8327614484
8327621503
8327626264
8327634137
8327638959
8327645124
8327651288
8327656720
8327662946
8327669110
8327674909
8327680951
8327686933
8327692853
8327701398
8327706769
8327713178
8327719220
8327725324
8327732953
8327737836
8327745892
8327751202
8327757245
8327765057
8327771527
8327778607
8327785138
8327791730
8327798749
8327805218
8327812787
8327820538
8327827496
8327835187
8327840313
8327847821
8327854352
8327860333
8327867047
8327873333
8327880780
8327887188
8327894390
8327900494
8327905560
8327914227
8327920208
8327928021
8327934185
8327939678
8327947552
8327952679
8327960064
8327966656
8327972515
8327978863
8327986187
8327991314
8327997906
8328003155
8328010662
8328017864
8328024456
8328031780
8328037395
8328043133
8328049114
8328056072
8328063152
8328069866
8328077679
8328083050
8328090923
8328096722
8328103435
8328110210
8328116253
8328123577
8328130352
8328135784
8328142254
8328149151
8328155620
8328161907
8328169231
8328174114
8328181255
8328185772
8328193645
8328202922
8328209697
8328215618
8328222209
8328228008
8328235454
8328242290
8328250286
8328256511
8328263774
8328269634
8328277324
8328282695
8328288982
8328297954
8328303386
8328310893
8328318401
8328325298
8328332683
8328339397
8328346843
8328354289
8328361980
