7874681867
7874687726
7874693158
7874700482
7874706647
7874714703
7874720929
7874727460
7874732587
7874737042
7874741925
7874747113
7874752850
7874759320
7874765729
7874771222
7874776776
7874782269
7874786969
7874791974
7874796857
7874801861
7874807049
7874811322
7874817364
7874822613
7874830426
7874835370
7874840741
7874846905
7874852704
7874856976
7874866681
7874873333
7874879742
7874884991
7874893048
7874899578
7874906048
7874912518
7874919781
7874928570
7874935284
7874942547
7874948651
7874956951
7874964092
7874970684
7874978375
7874985516
7874992291
7875000347
7875007488
7875014568
7875019817
7875027081
7875035442
7875043316
7875049847
7875057110
7875067242
7875076458
7875082745
7875090252
7875096599
7875106365
7875113262
7875120464
7875128032
7875133343
7875141887
7875147930
7875155864
7875165142
7875172588
7875181011
7875189129
7875196697
7875203289
7875212322
7875219829
7875227520
7875234844
7875241497
7875252788
7875259685
7875267681
7875274700
7875280864
7875289043
7875296428
7875303569
7875313396
7875321269
7875327495
7875333720
7875343120
7875349528
7875357463
7875364848
7875373332
7875379192
7875385539
7875393169
7875401713
7875407512
7875415568
7875422038
7875430461
7875438334
7875444987
7875452739
7875458415
7875466655
7875473369
7875481852
7875487773
7875495829
7875502604
7875510539
7875518779
7875526530
7875532572
7875540446
7875548258
7875554179
7875562235
7875569865
7875576945
7875584391
7875592631
7875598979
7875606303
7875613566
7875618815
7875628886
7875636149
7875643229
7875649149
7875656168
7875663187
7875671305
7875679728
7875686991
7875693949
7875702128
7875708353
7875716898
7875726114
7875733256
7875740030
7875747721
7875755228
7875761637
7875768412
7875777018
7875783793
7875792154
7875800333
7875808451
7875813517
7875823770
7875831949
7875840006
7875849161
7875855387
7875864298
7875871561
7875880533
7875889383
7875894754
7875904276
7875910074
7875917703
7875925394
7875932779
7875940775
7875946573
7875954263
7875962259
7875968484
7875977396
7875984048
7875991861
7876001687
7876009744
7876015664
7876023660
7876030679
7876039102
7876045633
7876054056
7876062173
7876070169
7876077127
7876086404
7876090921
7876098977
7876109170
7876117227
7876125100
7876130715
7876139688
7876145669
7876154702
7876162454
7876170144
7876178628
7876186135
7876194558
7876202554
7876210793
7876221780
7876227700
7876236001
7876242715
7876250832
7876258523
7876267495
7876275368
7876282937
7876290810
7876299050
7876307595
7876314370
7876321328
7876330178
7876337990
7876347329
7876352700
7876360207
7876368020
7876374978
7876382119
7876392128
7876397194
7876407326
7876416176
7876423744
7876431374
7876437966
7876448403
7876456032
7876463844
7876471047
7876476906
7876485756
7876495522
7876503090
7876510292
7876517860
7876527077
7876536842
7876545509
7876551674
7876559730
7876568092
7876577003
7876585609
7876590065
7876600197
7876608558
7876616371
7876623329
7876628639
7876634559
7876642250
7876649513
7876657997
7876664833
7876671058
7876678383
7876684791
7876691688
7876698463
7876706092
7876713661
7876720436
7876726966
7876733680
7876741432
7876749977
7876757728
7876765113
7876772987
7876781104
7876789527
7876794837
7876802345
7876808753
7876818763
7876826392
7876833289
7876841590
7876848060
7876859962
7876868201
7876875770
7876884009
7876891944
7876899451
7876905494
7876914283
7876921363
7876930030
7876937171
7876944373
7876951636
7876960425
7876971778
7876979285
7876985938
7876993323
7877001990
7877009375
7877017859
7877027320
7877032691
7877040564
7877048438
7877053504
7877062964
7877071021
7877078833
7877085242
7877092871
7877098120
7877106726
7877114722
7877120764
7877129736
7877133521
7877141943
7877148413
7877155249
7877162512
7877170080
7877177283
7877183508
7877192358
7877198828
7877205908
7877212866
7877219519
7877227392
7877233801
7877239660
7877244726
7877252234
7877259192
7877265600
7877271704
7877277746
7877283484
7877289465
7877295202
7877302038
7877308508
7877314855
7877320593
7877326635
7877333410
7877337988
7877345617
7877350439
7877357702
7877363195
7877370153
7877375280
7877382604
7877387731
7877393713
7877399206
7877406835
7877411962
7877420995
7877425146
7877434545
7877439001
7877447729
7877456274
7877464086
7877470922
7877478307
7877485631
7877492589
7877499120
7877506689
7877513524
7877521337
7877529027
7877534581
7877542516
7877549596
7877556798
7877562902
7877572667
7877580297
7877586644
7877593785
7877599889
7877607091
7877611425
7877619603
7877627965
7877635350
7877639684
7877648961
7877652989
7877660802
7877666722
7877674840
7877681859
7877690526
7877694981
7877703343
7877709569
7877716771
7877722752
7877729832
7877736241
7877744969
7877754430
7877762059
7877768285
7877775975
7877782384
7877790867
7877800389
7877807225
7877813206
7877820592
7877829381
7877836094
7877841588
7877849644
7877858250
7877864659
7877873692
7877881443
7877887791
7877895542
7877901524
7877909825
7877918003
7877925816
7877932286
7877939366
7877944676
7877952061
7877959690
7877965794
7877974278
7877981053
7877989109
7877995823
7878001621
7878009739
7878015110
7878021336
7878028904
7878036961
7878044529
7878050266
7878057346
7878064609
7878070042
7878077000
7878084629
7878093296
7878100986
7878106663
7878113682
7878120456
7878127598
7878134433
7878142002
7878149692
7878157077
7878163974
7878169284
7878176609
7878183872
7878190891
7878196445
7878204074
7878212741
7878219150
7878228244
7878232883
7878242587
7878249179
7878255954
7878262302
7878273471
7878280307
7878287570
7878293308
7878302036
7878307895
7878316440
7878322726
7878332065
7878340243
7878342929
7878353671
7878358127
7878368320
7878372958
7878382175
7878390353
7878397372
7878403781
7878412265
7878418857
7878426730
7878433200
7878440524
7878446872
7878457553
7878464694
7878472750
7878478732
7878485568
7878493502
7878501437
7878507968
7878516085
7878524386
7878531710
7878538180
7878542941
7878553073
7878560458
7878567294
7878575106
7878585482
7878590609
7878600436
7878607150
7878616244
7878624483
7878634737
7878644930
7878652804
7878660799
7878668368
7878675814
7878683077
7878688814
7878696383
7878706087
7878711825
7878718599
7878725863
7878732332
7878739473
7878746920
7878754915
7878761690
7878769991
7878777925
7878783785
7878791292
7878797090
7878804903
7878813997
7878821443
7878828279
7878835176
7878841585
7878849214
7878856661
7878865267
7878871431
7878880159
7878886080
7878896089
7878904268
7878910249
7878920381
7878926302
7878936861
7878943880
7878950288
7878957796
7878963533
7878972139
7878982149
7878989046
7878997590
7879005342
7879014131
7879021882
7879030671
7879035127
7879043550
7879052888
7879057893
7879065767
7879073762
7879081575
7879090608
7879098115
7879105806
7879112397
7879119905
7879127046
7879137055
7879144868
7879151277
7879158601
7879166596
7879173493
7879180329
7879189729
7879198823
7879204560
7879212861
7879219758
7879228486
7879234406
7879242951
7879249543
7879258027
7879266755
7879274995
7879283112
7879291291
7879299653
7879306794
7879318085
7879325654
7879333100
7879341889
7879347748
7879357880
7879362946
7879371430
7879377106
7879387055
7879392975
7879400421
7879409394
7879418854
7879425507
7879432892
7879439606
7879447846
7879453461
7879462189
7879470551
7879477326
7879484100
7879491180
7879497528
7879504120
7879514313
7879520721
7879528229
7879535980
7879543243
7879550262
7879557953
7879562652
7879570526
7879575714
7879582123
7879589691
7879594208
7879603241
7879610199
7879615814
7879621063
7879626373
7879632782
7879639679
7879647979
7879654571
7879659576
7879666778
7879672271
7879679290
7879686309
7879693023
7879699249
7879704071
7879710540
7879715667
7879722015
7879727752
7879732757
7879740386
7879746002
7879751495
7879757171
7879764007
7879769805
7879778045
7879783355
7879789886
7879796661
7879801910
7879809112
7879815032
7879821807
7879827911
7879834075
7879840484
7879849334
7879855315
7879862090
7879869231
7879876678
7879882354
7879891326
7879897429
7879905547
7879910552
7879916411
7879923736
7879928435
7879935393
7879939849
7879947112
7879953948
7879960051
7879966338
7879972686
7879978423
7879986418
7879992156
7879997710
7880005950
7880012114
7880017668
7880024626
7880028899
7880036406
7880042021
7880047881
7880055510
7880060027
7880067961
7880073637
7880079436
7880085234
7880093169
7880098967
7880106291
7880114104
7880120512
7880127043
7880133818
7880140715
7880146147
7880153288
7880160002
7880166472
7880173186
7880179533
7880187285
7880194243
7880200163
7880207976
7880214628
7880220915
7880225432
7880234221
7880240934
7880248198
7880254545
7880261076
7880267912
7880274137
7880279081
7880286711
7880292631
7880299467
7880306242
7880311491
7880319548
7880326261
7880332670
7880338407
7880344267
7880351652
7880358000
7880364408
7880372038
7880377775
7880384794
7880390714
7880402982
7880412016
7880418851
7880426420
7880434598
7880441129
7880449247
7880456998
7880462675
7880467802
7880476163
7880483854
7880490079
7880496793
7880502103
7880509916
7880515165
7880522428
7880528104
7880535917
7880543912
7880550626
7880556546
7880563260
7880570890
7880576322
7880583585
7880591336
7880597501
7880603604
7880612577
7880617703
7880624173
7880631375
7880637906
7880644254
7880651761
7880658536
7880665616
7880672940
7880678189
7880685086
7880691739
7880696866
7880703763
7880711880
7880718777
7880725674
7880730496
7880737332
7880743985
7880750760
7880756131
7880763516
7880770169
7880775296
7880782193
7880788479
7880793423
7880800625
7880807950
7880816189
7880821072
7880831570
7880836392
7880847195
7880852017
7880863430
7880869168
7880879116
7880883694
7880892849
7880900051
7880907803
7880914334
7880921841
7880928433
7880936489
7880942410
7880950283
7880956326
7880963528
7880969631
7880976772
7880983486
7880991909
7881000088
7881006802
7881012234
7881019497
7881024990
7881032375
7881040066
7881049160
7881055874
7881062771
7881070400
7881078029
7881083706
7881092190
7881098354
7881109096
7881117092
7881124355
7881131984
7881137478
7881144619
7881148891
7881158962
7881166957
7881172695
7881180629
7881186061
7881191921
7881200222
7881206996
7881213466
7881220241
7881226833
7881232753
7881239955
7881247768
7881254848
7881260158
7881266994
7881275173
7881282436
7881288051
7881294948
7881302028
7881307643
7881315211
7881322169
7881329799
7881337001
7881344630
7881350246
7881357326
7881364284
7881369716
7881377101
7881384669
7881392299
7881399440
7881403590
7881412013
7881418055
7881426112
7881432216
7881440150
7881446864
7881453517
7881459315
7881467616
7881473719
7881482386
7881490077
7881495875
7881504481
7881511805
7881519618
7881524256
7881532740
7881539332
7881548426
7881555079
7881562159
7881569178
7881577723
7881585230
7881594019
7881601221
7881611536
7881619532
7881627344
7881634730
7881643458
7881650538
7881659388
7881666468
7881672754
7881681727
7881688135
7881697596
7881705591
7881712122
7881720057
7881727747
7881733484
7881741480
7881746058
7881755091
7881765772
7881771875
7881776392
7881786951
7881793787
7881801966
7881809290
7881818079
7881827295
7881835718
7881841638
7881852197
7881862329
7881868128
7881877649
7881886682
7881896021
7881901758
7881908716
7881916406
7881922144
7881929285
7881937280
7881943567
7881951318
7881959070
7881966333
7881971765
7881980127
7881985681
7881992517
7882000207
7882008020
7882013696
7882021814
7882027185
7882034570
7882041833
7882048669
7882056237
7882062707
7882070581
7882078027
7882083337
7882091210
7882099267
7882105981
7882111657
7882120263
7882127831
7882135644
7882142663
7882148278
7882155480
7882163049
7882171166
7882178063
7882186120
7882191552
7882200097
7882205407
7882215050
7882221642
7882230920
7882238427
7882246606
7882253136
7882260949
7882267419
7882274804
7882280846
7882289330
7882295434
7882305443
7882311608
7882319054
7882326806
7882333764
7882341515
7882348351
7882354210
7882362755
7882372887
7882377404
7882386437
7882392967
7882400109
7882408470
7882414452
7882423485
7882431297
7882440209
7882447106
7882456383
7882465172
7882473106
7882480248
7882487694
7882495384
7882501671
7882507164
7882512352
7882519188
7882522545
7882530601
7882537193
7882544395
7882549705
7882556236
7882563621
7882570152
7882575584
7882582481
7882589988
7882598106
7882604515
7882610191
7882617576
7882623985
7882630150
7882636131
7882642418
7882648765
7882653099
7882659385
7882665062
7882670982
7882677635
7882683067
7882689781
7882695335
7882699851
7882705650
7882710105
7882716636
7882721763
7882728721
7882734153
7882739524
7882745994
7882751609
7882756675
7882762107
7882767722
7882773765
7882779014
7882784629
7882789817
7882794212
7882802146
7882808982
7882814536
7882820029
7882825706
7882830222
7882835837
7882841086
7882847129
7882852988
7882857566
7882864341
7882870017
7882875327
7882878562
7882887168
7882892966
7882897056
7882903647
7882909568
7882915122
7882919394
7882925498
7882931907
7882937888
7882942832
7882949179
7882953757
7882961020
7882966941
7882972739
7882979880
7882985984
7882991049
7882997031
7883003256
7883007773
7883014548
7883021323
7883027487
7883033652
7883039511
7883045859
7883051718
7883056906
7883063193
7883071372
7883076071
7883082358
7883088400
7883096335
7883101950
7883110190
7883116659
7883126242
7883133078
7883141196
7883148886
7883155417
7883164145
7883170370
7883178671
7883182516
7883191122
7883198019
7883204489
7883209066
7883217123
7883222677
7883229269
7883235983
7883242453
7883248983
7883255575
7883262228
7883268881
7883275045
7883281576
7883288656
7883295126
7883300375
7883306784
7883313497
7883320455
7883327413
7883334310
7883339926
7883346884
7883352926
7883358114
7883366354
7883372335
7883379171
7883384542
7883392416
7883397665
7883404256
7883410055
7883417196
7883422689
7883429891
7883435140
7883442708
7883448019
7883455587
7883461080
7883467733
7883473287
7883481527
7883485311
7883493306
7883498678
7883506307
7883513021
7883519490
7883525777
7883532247
7883538472
7883544881
7883551290
7883557637
7883564778
7883569783
7883577840
7883584493
7883592000
7883597432
7883604695
7883611775
7883619039
7883624654
7883633687
7883638997
7883647054
7883652425
7883659932
7883666890
7883674519
7883679952
7883687459
7883694478
7883702168
7883709370
7883715230
7883721760
7883729329
7883736836
7883743306
7883750752
7883758748
7883765706
7883774190
7883778523
7883789204
7883796284
7883803364
7883809590
7883815999
7883822712
7883829243
7883836262
7883841328
7883850056
7883854878
7883861164
7883867817
7883873249
7883879719
7883885762
7883890950
7883898457
7883903767
7883911946
7883919636
7883926167
7883933064
7883940205
7883946125
7883952656
7883958698
7883965351
7883974690
7883979084
7883991596
7884000690
7884009418
7884016498
7884021564
7884028034
7884033161
7884039570
7884047626
7884054218
7884057880
7884065510
7884071125
7884076984
7884082844
7884089069
7884095966
7884102192
7884108539
7884114399
7884120868
7884125446
7884132221
7884139606
7884147724
7884155841
7884162311
7884168903
7884176532
7884181842
7884189960
7884197040
7884206012
7884214801
7884222614
7884229328
7884235675
7884243915
7884250751
7884256915
7884265460
7884274127
7884281635
7884286945
7884296832
7884304156
7884310443
7884319049
7884326007
7884334003
7884341815
7884350848
7884358600
7884364825
7884372882
7884380145
7884388019
7884394366
7884402179
7884409930
7884419452
7884430438
7884436541
7884445697
7884452288
7884460528
7884466571
7884476214
7884485797
7884491961
7884500018
7884506976
7884512408
7884519122
7884525225
7884534869
7884542132
7884549334
7884557574
7884565569
7884573138
7884579241
7884586810
7884595477
7884603045
7884609331
7884616473
7884622271
7884630572
7884636614
7884646319
7884654741
7884661699
7884670305
7884675676
7884684282
7884690325
7884699114
7884707537
7884714678
7884721148
7884730242
7884735369
7884745073
7884754106
7884761125
7884767839
7884776262
7884784197
7884790422
7884798601
7884806658
7884812517
7884819597
7884827898
7884835222
7884843340
7884850420
7884858171
7884865129
7884874040
7884881548
7884890031
7884896318
7884905778
7884912187
7884920122
7884927202
7884935197
7884945939
7884959245
7884966325
7884975114
7884984330
7884990739
7884999772
7885005876
7885011186
7885024675
7885032548
7885040422
7885046952
7885055070
7885064103
7885070573
7885078324
7885086015
7885090714
7885098710
7885106278
7885114701
7885122148
7885131486
7885143571
7885152299
7885159562
7885167985
7885175187
7885183915
7885192643
7885203751
7885211991
7885219742
7885227311
7885234513
7885242448
7885249711
7885255326
7885265397
7885271805
7885279313
7885286271
7885293656
7885302140
7885309769
7885316178
7885322892
7885329789
7885338761
7885345658
7885352799
7885359513
7885368241
7885374832
7885382462
7885389054
7885395706
7885403519
7885410843
7885417557
7885424881
7885431961
7885438797
7885444595
7885449173
7885456741
7885464676
7885470657
7885477371
7885483719
7885489273
7885496048
7885501846
7885509964
7885516189
7885521988
7885528824
7885534012
7885542557
7885549393
7885555252
7885562759
7885568680
7885574539
7885580459
7885587417
7885594253
7885600418
7885604934
7885611892
7885616165
7885623123
7885630142
7885635818
7885640884
7885646987
7885655410
7885659439
7885668655
7885673721
7885679824
7885685867
7885691909
7885697708
7885702285
7885706985
7885713699
7885721206
7885725540
7885732681
7885739272
7885745376
7885753433
7885761733
7885771804
7885776687
7885783950
7885790847
7885797866
7885803054
7885810500
7885816665
7885824111
7885829360
7885836257
7885840041
7885847671
7885854934
7885859511
7885865615
7885874953
7885880507
7885887160
7885890273
7885898818
7885904860
7885912185
7885919143
7885925795
7885932570
7885938247
7885943801
7885950392
7885958083
7885961806
7885970473
7885977187
7885983351
7885991347
7885996108
7886004103
7886011550
7886017043
7886023757
7886027968
7886036513
7886044386
7886051039
7886057814
7886064040
7886070570
7886077345
7886083693
7886091139
7886097121
7886104140
7886110060
7886116469
7886122938
7886128859
7886137282
7886143873
7886150831
7886157911
7886163954
7886170180
7886177137
7886183424
7886190260
7886197279
7886202894
7886210463
7886215956
7886222792
7886230482
7886236280
7886242323
7886249464
7886255567
7886262464
7886271925
7886278272
7886285108
7886291944
7886300245
7886306959
7886319654
7886325208
7886333448
7886341016
7886347730
7886353162
7886360059
7886368177
7886372999
7886380262
7886386671
7886392713
7886399183
7886405408
7886411939
7886418531
7886425428
7886431348
7886438245
7886444776
7886450147
7886456800
7886464673
7886470105
7886475965
7886486097
7886492444
7886499036
7886502942
7886513379
7886519727
7886526075
7886532544
7886538892
7886545545
7886552503
7886558484
7886565076
7886571179
7886577588
7886583814
7886590222
7886596997
7886604138
7886610791
7886618054
7886626233
7886631116
7886638745
7886644055
7886651502
7886659253
7886665723
7886671216
7886680127
7886685437
7886692578
7886699536
7886707104
7886713147
7886722485
7886728467
7886740552
7886749096
7886756970
7886762463
7886770215
7886778210
7886786389
7886792309
7886800366
7886807019
7886814343
7886822705
7886829724
7886836987
7886845776
7886852429
7886859082
7886869702
7886879345
7886886914
7886894909
7886898876
7886908154
7886915112
7886921642
7886928784
7886936901
7886945141
7886955578
7886963207
7886971203
7886980053
7886988964
7886996471
7887003673
7887011852
7887020763
7887026134
7887032787
7887038341
7887047008
7887050976
7887059215
7887066723
7887072399
7887080578
7887086803
7887096325
7887103893
7887109935
7887118724
7887128063
7887134716
7887141429
7887148326
7887156932
7887162792
7887170726
7887177867
7887185069
7887189586
7887197826
7887205821
7887216014
7887222606
7887230480
7887237010
7887245311
7887251964
7887257945
7887264110
7887272594
7887281200
7887288158
7887294932
7887303172
7887311473
7887318980
7887326915
7887334422
7887344249
7887351268
7887357799
7887366221
7887374522
7887380443
7887389293
7887397166
7887402232
7887411937
7887418284
7887427256
7887435984
7887442942
7887448619
7887456248
7887464183
7887473887
7887480784
7887490306
7887496836
7887504405
7887512339
7887518809
7887524973
7887535532
7887542735
7887550181
7887557017
7887563425
7887574168
7887579600
7887592966
7887601084
7887607432
7887617197
7887625803
7887633921
7887641977
7887649668
7887660349
7887667185
7887677500
7887684641
7887691294
7887702341
7887708262
7887717417
7887723276
7887729868
7887737192
7887742868
7887752939
7887761240
7887767893
7887776865
7887783151
7887792063
7887801218
7887810983
7887821665
7887828134
7887837289
7887849191
7887857492
7887867441
7887874216
7887881479
7887887399
7887893808
7887900461
7887907846
7887914133
7887921823
7887927804
7887937631
7887945382
7887953683
7887961801
7887968271
7887975961
7887982675
7887991830
7887998910
7888005319
7888016427
7888024301
7888030954
7888040902
7888046884
7888054147
7888063119
7888070382
7888074838
7888084359
7888092416
7888100167
7888107308
7888115121
7888121591
7888131173
7888136788
7888144601
7888152779
7888158395
7888165658
7888173348
7888181222
7888186471
7888195321
7888200753
7888208504
7888215401
7888221810
7888227242
7888233834
7888240487
7888246895
7888252083
7888258431
7888265877
7888272469
7888281807
7888287850
7888295784
7888302926
7888309517
7888314888
7888322335
7888332100
7888338936
7888344734
7888350106
7888356697
7888364327
7888369942
7888377327
7888382820
7888388130
7888393685
7888399117
7888405892
7888412178
7888418465
7888423531
7888429329
7888435066
7888440743
7888447578
7888451790
7888458992
7888465889
7888471870
7888476753
7888483894
7888490059
7888495735
7888499214
7888506966
7888510445
7888518074
7888524299
7888529915
7888535652
7888541450
7888547737
7888553840
7888558967
7888565193
7888572212
7888577644
7888583442
7888590156
7888594734
7888601692
7888607368
7888613227
7888618904
7888624641
7888630439
7888636543
7888643074
7888648994
7888655097
7888661445
7888667915
7888673469
7888679939
7888685188
7888691902
7888698249
7888703071
7888709968
7888714912
7888721504
7888726569
7888733833
7888740058
7888746040
7888749580
7888758369
7888762763
7888771430
7888777167
7888783515
7888789741
7888795417
7888802802
7888808845
7888814826
7888821357
7888830451
7888836371
7888841376
7888849372
7888856818
7888863105
7888868049
7888876288
7888884223
7888891242
7888896857
7888904242
7888910041
7888917304
7888922736
7888929267
7888936530
7888942755
7888948065
7888956366
7888960150
7888968390
7888973700
7888982062
7888988898
7888993720
7889000495
7889006903
7889013739
7889020148
7889026434
7889032904
7889040106
7889046576
7889052435
7889058966
7889066290
7889071173
7889079047
7889084418
7889092535
7889097296
7889104803
7889109564
7889118170
7889123419
7889131293
7889136847
7889145453
7889151373
7889157354
7889166449
7889171331
7889178900
7889184759
7889192572
7889199896
7889205633
7889211248
7889216314
7889225653
7889233160
7889237860
7889244879
7889251837
7889257818
7889263189
7889272039
7889280096
7889287481
7889292425
7889299566
7889305547
7889311468
7889317632
7889325018
7889330755
7889338934
7889346197
7889352422
7889361944
7889369085
7889375921
7889383672
7889389898
7889396245
7889402837
7889410955
7889418706
7889425054
7889431463
7889438238
7889445928
7889454717
7889462591
7889473882
7889480779
7889487859
7889496953
7889504033
7889513616
7889519963
7889526982
7889533452
7889540227
7889546453
7889554753
7889561528
7889568181
7889573857
7889581365
7889586675
7889592656
7889602422
7889609319
7889615605
7889621892
7889629399
7889636174
7889642949
7889650090
7889656316
7889663518
7889671330
7889675359
7889685246
7889691960
7889702702
7889709660
7889713872
7889723027
7889730473
7889736638
7889745915
7889754094
7889758732
7889767094
7889773747
7889780156
7889787053
7889795903
7889802861
7889808842
7889817143
7889824528
7889832951
7889843388
7889848942
7889857426
7889865910
7889872990
7889879765
7889888432
7889896794
7889902470
7889913029
7889917301
7889928654
7889931156
7889941715
7889950016
7889957767
7889965702
7889973514
7889980961
7889989384
7889995060
7890005680
7890014530
7890022953
7890031009
7890039066
7890044986
7890053959
7890062626
7890071354
7890081424
7890085819
7890095462
7890102604
7890110416
7890119510
7890125431
7890133365
7890140995
7890148563
7890155765
7890161136
7890168338
7890176517
7890182804
7890191104
7890194888
7890203861
7890211734
7890219913
7890228824
7890232974
7890242191
7890249515
7890255923
7890264835
7890270816
7890281253
7890288516
7890293826
7890302127
7890309451
7890315616
7890323855
7890331729
7890338260
7890346377
7890354983
7890362063
7890370486
7890379214
7890387759
7890395510
7890404361
7890411380
7890419680
7890428225
7890439700
7890445071
7890455630
7890462954
7890470217
7890478274
7890484805
7890492373
7890500613
7890508120
7890516726
7890522402
7890531191
7890540530
7890548342
7890555117
7890565310
7890575075
7890581972
7890590334
7890597231
7890606570
7890613161
7890622072
7890628542
7890637697
7890647829
7890654360
7890662417
7890670778
7890679506
7890686220
7890694155
7890702456
7890710207
7890719973
7890728762
7890735781
7890743410
7890751039
7890760195
7890765016
7890777101
7890786867
7890795534
7890806947
7890814882
7890825075
7890836488
7890848817
7890856020
7890866945
7890873842
7890881166
7890887636
7890898866
7890906740
7890914125
7890920167
7890927431
7890933961
7890940431
7890948610
7890957094
7890963990
7890971742
7890978700
7890985902
7890993715
7890999208
7891006410
7891014039
7891022035
7891028504
7891035157
7891041749
7891048646
7891055787
7891061646
7891069337
7891075807
7891080750
7891086244
7891093873
7891101197
7891107240
7891114869
7891120850
7891127869
7891134095
7891140565
7891145509
7891152467
7891158570
7891163941
7891170960
7891176392
7891184205
7891190430
7891196473
7891201844
7891206238
7891213807
7891219178
7891225403
7891232239
7891239869
7891245057
7891251160
7891258484
7891264527
7891271668
7891277161
7891283875
7891290284
7891296021
7891302613
7891309449
7891314148
7891319519
7891324707
7891331299
7891336487
7891343628
7891350098
7891356568
7891362183
7891367981
7891373902
7891380798
7891388428
7891395264
7891401123
7891407105
7891412232
7891419251
7891424194
7891430664
7891438110
7891443665
7891449890
7891456970
7891462402
7891469299
7891474731
7891481872
7891487060
7891492798
7891500732
7891507507
7891513428
7891519409
7891525757
7891531738
7891538025
7891543213
7891550476
7891556274
7891563720
7891569824
7891576294
7891583496
7891590881
7891596374
7891602417
7891608154
7891613647
7891622314
7891627807
7891634155
7891642150
7891649230
7891654724
7891661437
7891668395
7891675903
7891681030
7891686950
7891695312
7891700866
7891708740
7891714111
7891720519
7891725707
7891732970
7891739928
7891747680
7891754211
7891760497
7891768188
7891774291
7891782104
7891787658
7891794799
7891800048
7891807372
7891813415
7891820800
7891828856
7891835387
7891843932
7891851012
7891857421
7891865905
7891873229
7891881224
7891886535
7891893187
7891901610
7891908080
7891914611
7891921752
7891929747
7891936400
7891943358
7891948668
7891954527
7891961241
7891968077
7891975890
7891982176
7891987120
7891992308
7891999815
7892008421
7892015013
7892022276
7892028197
7892033934
7892039671
7892046080
7892054686
7892060789
7892066771
7892075133
7892080382
7892087584
7892095152
7892102965
7892109312
7892116392
7892121519
7892128599
7892137144
7892142759
7892150755
7892156248
7892165098
7892170958
7892180113
7892188902
7892196043
7892203062
7892211241
7892218687
7892226377
7892234495
7892243040
7892249388
7892257932
7892265379
7892271360
7892282041
7892288511
7892295896
7892302915
7892309507
7892314817
7892324094
7892332700
7892339475
7892348081
7892355466
7892364378
7892370664
7892376401
7892386106
7892393064
7892400083
7892407407
7892413877
7892420713
7892428953
7892437681
7892445981
7892454892
7892462949
7892469663
7892477536
7892487424
7892497678
7892506101
7892514096
7892521482
7892530149
7892538755
7892546018
7892553647
7892561032
7892569211
7892579465
7892588132
7892597043
7892605954
7892613339
7892619931
7892627744
7892632932
7892642087
7892650632
7892658322
7892665158
7892673947
7892679074
7892684384
7892693600
7892701535
7892708859
7892715207
7892722775
7892729428
7892737179
7892745480
7892755185
7892759152
7892767697
7892775998
7892783017
7892791684
7892798153
7892807919
7892818234
7892823971
7892829952
7892839108
7892846920
7892855038
7892862667
7892868954
7892880795
7892889340
7892897091
7892905392
7892915157
7892923519
7892930416
7892939693
7892947140
7892956783
7892963619
7892971981
7892981930
7892988582
7892995785
7893004940
7893013302
7893019710
7893028621
7893040706
7893048519
7893058040
7893066646
7893076229
7893085994
7893094051
7893102169
7893110530
7893121700
7893129940
7893140560
7893150325
7893160701
7893171138
7893180965
7893192928
7893206538
7893217830
7893222469
7893243037
7893257808
7893268428
7893279903
7893291316
7893308772
7893322383
7893327693
7893342280
7893354976
7893364070
7893374141
7893384211
7893394953
7893404109
7893412959
7893423640
7893431147
7893439570
7893450251
7893457331
7893466181
7893472468
7893482539
7893487605
7893497492
7893502436
7893510920
7893517451
7893527033
7893533564
7893541621
7893548334
7893556025
7893562434
7893572382
7893579401
7893587153
7893594843
7893604792
7893613703
7893620966
7893630488
7893639338
7893646723
7893655451
7893663507
7893671747
7893678278
7893686884
7893693415
7893702143
7893710810
7893717707
7893727167
7893733270
7893741876
7893750727
7893756525
7893762934
7893770868
7893777399
7893785700
7893793695
7893800958
7893810541
7893820367
7893828180
7893836481
7893843561
7893854364
7893862360
7893868890
7893875909
7893890375
7893898248
7893906366
7893915033
7893921380
7893930108
7893935540
7893945428
7893952447
7893961786
7893967706
7893977166
7893985589
7893992730
7893997613
7894003900
7894010125
7894016229
7894022515
7894028375
7894035699
7894042596
7894047235
7894054193
7894061089
7894068536
7894076165
7894083611
7894091363
7894097527
7894104546
7894112115
7894117425
7894123162
7894129388
7894135918
7894141534
7894147942
7894154534
7894161614
7894167657
7894173638
7894179558
7894186028
7894191521
7894197381
7894203972
7894209221
7894214959
7894219780
7894225945
7894233452
7894239678
7894245659
7894249993
7894256890
7894262139
7894267510
7894273125
7894281487
7894286919
7894293755
7894299492
7894305474
7894311272
7894316277
7894322258
7894327324
7894333977
7894338738
7894344963
7894352837
7894357659
7894363091
7894370049
7894376579
7894381401
7894389580
7894394585
7894401970
7894408318
7894414482
7894420708
7894429619
7894437736
7894444939
7894453422
7894460747
7894466667
7894472710
7894479851
7894486687
7894490349
7894498833
7894505363
7894512687
7894519401
7894525932
7894532585
7894539787
7894546379
7894552360
7894559929
7894570121
7894577446
7894585441
7894592155
7894598136
7894606010
7894615531
7894621208
7894629508
7894634818
7894642265
7894648490
7894655631
7894659355
7894667838
7894673209
7894679862
7894686454
7894692741
7894699088
7894706535
7894714591
7894721305
7894728019
7894734061
7894740714
7894746146
7894755118
7894760917
7894766410
7894773429
7894780265
7894788016
7894795524
7894804130
7894809806
7894816153
7894822257
7894828544
7894836051
7894843192
7894849479
7894855826
7894862235
7894867728
7894872977
7894880484
7894888358
7894894583
7894901358
7894905692
7894914298
7894921561
7894928458
7894935233
7894942618
7894948721
7894955069
7894961539
7894967337
7894973624
7894982779
7894988638
7894996268
7895002188
7895009879
7895014822
7895025565
7895031912
7895039114
7895046255
7895051932
7895060599
7895066336
7895075430
7895080740
7895088797
7895094351
7895102591
7895109060
7895116385
7895123953
7895130056
7895138907
7895147329
7895155142
7895161917
7895170340
7895177847
7895184011
7895195486
7895202322
7895210379
7895215200
7895225820
7895231191
7895240713
7895244924
7895254568
7895258962
7895267935
7895272085
7895281851
7895289846
7895295217
7895302602
7895309682
7895313772
7895322683
7895326772
7895336721
7895341299
7895351308
7895357839
7895364919
7895371572
7895380544
7895387075
7895394277
7895400319
7895408620
7895417043
7895422780
7895430654
7895437490
7895445424
7895452810
7895461293
7895467641
7895475148
7895479970
7895489736
7895497670
7895503469
7895509816
7895518727
7895525502
7895532277
7895540639
7895546498
7895554860
7895561940
7895568410
7895577260
7895583241
7895591725
7895597585
7895605458
7895613332
7895620595
7895626576
7895634633
7895643361
7895651356
7895659901
7895667958
7895674183
7895683034
7895689015
7895698597
7895705189
7895714345
7895722950
7895727955
7895738148
7895743336
7895751576
7895758412
7895768788
7895774830
7895785267
7895793690
7895800160
7895808094
7895816273
7895824513
7895831104
7895841419
7895847950
7895856190
7895864246
7895871510
7895877674
7895885609
7895895863
7895901295
7895912403
7895917591
7895929188
7895934315
7895945728
7895953480
7895961536
7895967579
7895978504
7895985401
7895993519
7895999500
7896007374
7896015735
7896021961
7896030262
7896037647
7896045459
7896052234
7896058094
7896067005
7896073536
7896078357
7896089038
7896093982
7896103626
7896108325
7896119068
7896123645
7896132190
7896138843
7896147205
7896154895
7896163562
7896171863
7896177783
7896186145
7896193042
7896199512
7896206836
7896214832
7896223071
7896230945
7896237353
7896245227
7896252856
7896258716
7896263476
7896273547
7896281360
7896289294
7896293811
7896303149
7896307849
7896316272
7896325732
7896332507
7896339770
7896350146
7896356677
7896364795
7896373461
7896380603
7896387133
7896392260
7896403491
7896412280
7896420825
7896425707
7896435778
7896440905
7896450976
7896458239
7896464831
7896474047
7896482226
7896488635
7896496142
7896504748
7896511279
7896519579
7896527697
7896534289
7896543566
7896550036
7896555102
7896565905
7896574755
7896580797
7896589281
7896598375
7896605761
7896614306
7896621019
7896629137
7896635607
7896643908
7896651842
7896660570
7896668505
7896676683
7896684191
7896692614
7896701097
7896710741
7896720934
7896727464
7896737169
7896744066
7896757494
7896764269
7896772936
7896782152
7896790758
7896796861
7896805711
7896814195
7896820299
7896828661
7896834276
7896842027
7896849962
7896856004
7896863389
7896871324
7896878953
7896886705
7896892625
7896900316
7896907884
7896913926
7896920945
7896929673
7896936387
7896943773
7896950120
7896957505
7896965501
7896971543
7896977342
7896984605
7896989793
7896996446
7897001756
7897009507
7897015489
7897022203
7897025926
7897034165
7897040391
7897046555
7897050157
7897058152
7897064744
7897071153
7897074876
7897084031
7897089951
7897096177
7897101243
7897107652
7897111802
7897119920
7897126145
7897132859
7897138230
7897142625
7897150071
7897154282
7897161545
7897167649
7897174973
7897181321
7897187607
7897195969
7897200913
7897208298
7897215928
7897221543
7897228562
7897233017
7897239426
7897244553
7897251450
7897258042
7897263657
7897269516
7897275803
7897280747
7897286789
7897293198
7897299973
7897305771
7897310715
7897316208
7897322312
7897328415
7897333176
7897341721
7897347885
7897353684
7897360092
7897365585
7897372177
7897378891
7897385422
7897393112
7897398056
7897404526
7897411056
7897417648
7897422775
7897429916
7897435104
7897441818
7897446640
7897453659
7897459701
7897465805
7897472153
7897478256
7897482651
7897490036
7897496139
7897502060
7897508529
7897514511
7897521164
7897526291
7897533493
7897540512
7897547104
7897552047
7897559188
7897566268
7897572372
7897579818
7897586227
7897591720
7897600143
7897605758
7897611984
7897617599
7897625411
7897631271
7897639510
7897649032
7897655319
7897658981
7897668990
7897674423
7897681136
7897686813
7897692916
7897700668
7897707748
7897714400
7897721542
7897727279
7897734298
7897740157
7897745528
7897753585
7897758956
7897765304
7897773116
7897779769
7897784224
7897791854
7897796859
7897804305
7897807784
7897816268
7897819991
7897828780
7897834945
7897841170
7897847762
7897853682
7897859847
7897865828
7897870711
7897877364
7897885115
7897889998
7897896163
7897902266
7897908980
7897913558
7897921492
7897927107
7897934676
7897939803
7897947432
7897955245
7897962447
7897969954
7897975508
7897983321
7897994978
7898001997
7898009261
7898014632
7898023421
7898029097
7898036543
7898043684
7898049666
7898056807
7898063460
7898068526
7898075972
7898080916
7898089094
7898093977
7898101240
7898108870
7898115034
7898122114
7898127852
7898135542
7898142012
7898147627
7898155317
7898160871
7898167219
7898172651
7898179975
7898185408
7898193708
7898199690
7898208052
7898213911
7898221662
7898227644
7898234358
7898242353
7898248579
7898254438
7898262006
7898267255
7898275129
7898282880
7898289350
7898297407
7898303754
7898309125
7898318037
7898323408
7898330427
7898338727
7898345869
7898354841
7898361738
7898367170
7898374982
7898380475
7898388288
7898395429
7898401288
7898409955
7898417585
7898425214
7898430829
7898437909
7898445661
7898451032
7898458966
7898464765
7898472394
7898480268
7898487592
7898492902
7898502118
7898510724
7898518964
7898527387
7898533612
7898541425
7898548810
7898555951
7898561383
7898568585
7898576154
7898583661
7898591962
7898597882
7898603192
7898612408
7898614667
7898625287
7898632672
7898638470
7898648846
7898656781
7898664776
7898673077
7898683453
7898693890
7898701092
7898713971
7898721722
7898729962
7898738812
7898744915
7898751629
7898759259
7898766583
7898775555
7898780865
7898788372
7898795941
7898801800
7898809918
7898817913
7898825421
7898831402
7898838970
7898846783
7898852520
7898860516
7898868389
7898878582
7898886089
7898894573
7898900555
7898908062
7898915813
7898923016
7898929912
7898939190
7898945598
7898951702
7898957439
7898965862
7898972942
7898980022
7898985698
7898993694
7899001262
7899007000
7899014385
7899022014
7899027507
7899036113
7899044475
7899049602
7899058391
7899063396
7899074138
7899082012
7899090068
7899096294
7899106182
7899112529
7899120464
7899128581
7899136577
7899143047
7899150737
7899156780
7899164653
7899171611
7899179790
7899187297
7899195964
7899203227
7899212138
7899220561
7899229533
7899237285
7899243754
7899251323
7899260417
7899268046
7899275310
7899286418
7899293681
7899302043
7899310893
7899316874
7899326274
7899332255
7899340617
7899348796
7899358744
7899363627
7899374308
7899380107
7899390116
7899399089
7899408244
7899418986
7899427104
7899435893
7899445353
7899452555
7899460551
7899470011
7899477213
7899485148
7899493021
7899499064
7899506937
7899514628
7899522257
7899528239
7899536295
7899542155
7899550394
7899558207
7899564554
7899572489
7899580485
7899586527
7899594767
7899600870
7899609110
7899615641
7899624186
7899633158
7899640848
7899648722
7899655130
7899662332
7899669046
7899678995
7899684976
7899695108
7899704508
7899710306
7899719217
7899727091
7899732828
7899740579
7899746378
7899757059
7899763223
7899770853
7899778726
7899784647
7899791177
7899801248
7899806680
7899820169
7899827920
7899836893
7899844705
7899851297
7899858499
7899868142
7899875223
7899882913
7899892190
7899899881
7899906289
7899915750
7899922158
7899929971
7899938394
7899945840
7899954629
7899959695
7899970193
7899975564
7899986306
7899991372
7900001443
7900008401
7900015603
7900021829
7900030068
7900035561
7900043984
7900049172
7900056008
7900062905
7900069009
7900076089
7900081521
7900088235
7900094521
7900099953
7900106911
7900112221
7900120400
7900127907
7900135354
7900141396
7900148537
7900158181
7900168557
7900175332
7900182900
7900191811
7900198647
7900204384
7900209206
7900215920
7900222512
7900228615
7900234841
7900239113
7900245461
7900251076
7900255959
7900263405
7900269326
7900272377
7900278847
7900283242
7900290077
7900298317
7900304787
7900311623
7900317726
7900322670
7900328529
7900333534
7900337929
7900344093
7900351601
7900357155
7900361549
7900368202
7900372658
7900377907
7900383583
7900389626
7900395241
7900401344
7900408424
7900414955
7900420753
7900427223
7900433449
7900439369
7900444740
7900450294
7900457802
7900462135
7900470009
7900475075
7900482094
7900485756
7900494972
7900500892
7900506935
7900512428
7900517616
7900525123
7900531410
7900536964
7900546241
7900552711
7900558815
7900565650
7900572731
7900580360
7900585182
7900592323
7900600807
7900608802
7900615577
7900622596
7900628944
7900634010
7900641029
7900645057
7900653602
7900660621
7900666908
7900673804
7900680579
7900686866
7900695350
7900702125
7900708167
7900716529
7900722266
7900730323
7900736426
7900745276
7900749244
7900758765
7900766273
7900772742
7900779151
7900785682
7900791236
7900797889
7900801795
7900810767
7900819129
7900823890
7900831946
7900838965
7900843970
7900851050
7900857703
7900865515
7900871070
7900878028
7900884741
7900890174
7900896338
7900903479
7900910315
7900916724
7900924964
7900929053
7900937720
7900943518
7900950842
7900957922
7900964514
7900968420
7900976721
7900983557
7900989966
7900997290
7901004370
7901011145
7901018164
7901023657
7901030554
7901036841
7901042212
7901050207
7901056189
7901063452
7901069677
7901075720
7901081274
7901089453
7901093481
7901102087
7901109472
7901116430
7901124182
7901130590
7901135962
7901142553
7901149816
7901156164
7901161535
7901168005
7901175085
7901182958
7901189123
7901196752
7901203283
7901208898
7901216711
7901223852
7901232275
7901238134
7901245275
7901251562
7901260351
7901266393
7901273290
7901281774
7901287145
7901293005
7901301183
7901307287
7901314245
7901320165
7901329442
7901336400
7901344152
7901350988
7901359777
7901365758
7901373388
7901379796
7901388036
7901395849
7901403966
7901410558
7901418676
7901425206
7901432042
7901438512
7901448156
7901454564
7901464147
7901468358
7901477452
7901481603
7901490819
7901498204
7901505284
7901509496
7901518468
7901522801
7901532506
7901536656
7901545873
7901551793
7901561192
7901568272
7901575536
7901581273
7901588353
7901595494
7901602757
7901607091
7901617039
7901622227
7901631322
7901637791
7901645665
7901652196
7901659581
7901668065
7901674168
7901682469
7901691136
7901697667
7901706334
7901713047
7901720921
7901726658
7901734593
7901740818
7901749302
7901757054
7901764073
7901771763
7901777989
7901785862
7901790440
7901800572
7901808262
7901814243
7901821629
7901829868
7901837498
7901843296
7901849888
7901858982
7901866062
7901873203
7901881443
7901888950
7901895664
7901903416
7901909214
7901917637
7901927158
7901933872
7901942417
7901949192
7901955234
7901962864
7901970615
7901978550
7901986606
7901994175
7902000644
7902008518
7902016941
7902025852
7902032077
7902040866
7902049655
7902060520
7902067966
7902075229
7902082187
7902090061
7902097080
7902107272
7902114292
7902123447
7902131198
7902138339
7902145541
7902155307
7902162875
7902169772
7902178928
7902187900
7902194553
7902201511
7902209872
7902216525
7902222446
7902230502
7902238864
7902248507
7902255038
7902261691
7902267550
7902275973
7902283847
7902291171
7902298861
7902306552
7902314303
7902321383
7902329135
7902336459
7902342501
7902347140
7902358309
7902364779
7902372775
7902377352
7902387240
7902392001
7902401278
7902407687
7902416171
7902422884
7902431002
7902437533
7902445895
7902452486
7902460604
7902466525
7902473544
7902482211
7902490816
7902496615
7902504183
7902512118
7902520846
7902527254
7902535677
7902543795
7902551424
7902560091
7902566866
7902575411
7902580355
7902589632
7902596773
7902606295
7902614412
7902624300
7902631746
7902638826
7902648104
7902655062
7902661775
7902671053
7902677584
7902685884
7902694490
7902702120
7902708589
7902716707
7902724153
7902731233
7902743135
7902752412
7902758943
7902764070
7902775056
7902780061
7902790376
7902795381
7902804719
7902815706
7902821931
7902831880
7902838472
7902848054
7902854829
7902860139
7902872163
7902878022
7902892671
7902904023
7902914216
7902923433
7902935945
7902943757
7902953340
7902965425
7902971406
7902978486
7902982881
7902992768
7903000703
7903008515
7903015290
7903022431
7903029939
7903035371
7903042695
7903050752
7903058503
7903064606
7903068757
7903078522
7903085358
7903092744
7903097016
7903104890
7903113679
7903120515
7903125580
7903131867
7903135773
7903143464
7903149140
7903155304
7903162201
7903168183
7903173310
7903178986
7903185212
7903190888
7903195832
7903201935
7903209076
7903213898
7903221222
7903226105
7903232941
7903237885
7903244049
7903250214
7903257843
7903261139
7903268769
7903273590
7903280609
7903286591
7903293122
7903300812
7903306976
7903312409
7903318146
7903322785
7903328461
7903334259
7903340668
7903347137
7903353851
7903358612
7903364960
7903370209
7903376007
7903381439
7903386505
7903393158
7903400055
7903405426
7903410919
7903414947
7903421600
7903425934
7903432892
7903439606
7903446747
7903453888
7903460052
7903466095
7903472870
7903480377
7903483673
7903490448
7903495208
7903503082
7903510467
7903516571
7903521514
7903527435
7903533599
7903540191
7903547332
7903554595
7903560211
7903567352
7903573577
7903578460
7903585052
7903589935
7903597808
7903602813
7903609100
7903614227
7903622161
7903625701
7903632964
7903640105
7903646148
7903651885
7903657745
7903663665
7903669585
7903676849
7903683379
7903688933
7903694854
7903701263
7903708831
7903714873
7903721892
7903727141
7903734160
7903739837
7903746978
7903752471
7903759734
7903766143
7903773101
7903778472
7903785735
7903792022
7903799041
7903804168
7903811614
7903817900
7903823394
7903831450
7903837126
7903844084
7903849700
7903857756
7903863433
7903871184
7903877898
7903884429
7903891142
7903897612
7903901396
7903910185
7903917449
7903924162
7903931731
7903936614
7903943388
7903950163
7903956694
7903962981
7903970976
7903976958
7903984343
7903990507
7903996733
7904003203
7904010161
7904018522
7904022734
7904032316
7904039274
7904045866
7904051481
7904059233
7904066252
7904072783
7904076811
7904084745
7904091154
7904098051
7904105131
7904111662
7904116972
7904123320
7904132536
7904137846
7904144926
7904151701
7904160368
7904166654
7904174406
7904181974
7904190275
7904197050
7904203520
7904209623
7904216947
7904220792
7904229398
7904236112
7904242826
7904249601
7904256254
7904262052
7904268766
7904276273
7904282987
7904289396
7904295927
7904302335
7904308866
7904316129
7904321134
7904329862
7904334684
7904342008
7904346891
7904353971
7904361051
7904368741
7904374601
7904383207
7904388456
7904395536
7904402677
7904409024
7904416227
7904423246
7904431180
7904438138
7904445279
7904451261
7904458219
7904465421
7904472623
7904477811
7904484952
7904492764
7904499967
7904506986
7904514127
7904521085
7904528714
7904533353
7904542935
7904550931
7904556546
7904562955
7904571011
7904577481
7904585782
7904592374
7904600308
7904606656
7904614346
7904620938
7904631375
7904639126
7904644681
7904649136
7904660000
7904667935
7904675808
7904683072
7904690640
7904696927
7904704556
7904712063
7904720791
7904728237
7904736294
7904743618
7904750820
7904758023
7904764614
7904773770
7904782925
7904790676
7904795193
7904804897
7904809536
7904818508
7904825222
7904834316
7904845058
7904852871
7904859341
7904867763
7904872768
7904887356
7904895779
7904902065
7904911587
7904916042
7904924770
7904930691
7904938686
7904945217
7904953823
7904961696
7904971523
7904976406
7904985927
7904990383
7905000026
7905006557
7905013942
7905020534
7905029384
7905035793
7905043483
7905049343
7905057704
7905063442
7905071865
7905079799
7905087245
7905092922
7905101650
7905107509
7905115566
7905123317
7905127773
7905138149
7905142726
7905152736
7905157497
7905166103
7905172511
7905180263
7905188624
7905195521
7905201991
7905209682
7905217982
7905224330
7905230311
7905238673
7905246974
7905254970
7905264369
7905271510
7905279933
7905284938
7905295985
7905301173
7905311183
7905318202
7905324733
7905334071
7905342555
7905349696
7905356349
7905364833
7905371546
7905379969
7905388270
7905396876
7905405909
7905412501
7905418665
7905428370
7905434473
7905443812
7905448817
7905459376
7905467799
7905476466
7905483668
7905491968
7905499537
7905508021
7905514918
7905521143
7905526941
7905683985
7905690820
7905701257
7905709924
7905719080
7905728174
7905736841
7905745142
7905752405
7905762842
7905772180
7905779199
7905787927
7905796106
7905804590
7905810815
7905819177
7905828515
7905834985
7905845300
7905853051
7905859948
7905867334
7905875634
7905884240
7905892236
7905900903
7905907983
7905914697
7905922753
7905929406
7905938623
7905946191
7905955407
7905962243
7905970849
7905978662
7905986230
7905990685
7906000024
7906007836
7906018395
7906023522
7906032311
7906039147
7906049462
7906054650
7906063744
7906072350
7906081078
7906085717
7906094750
7906101830
7906108544
7906115563
7906121544
7906127709
7906134362
7906139916
7906146264
7906152123
7906159447
7906165734
7906172692
7906179039
7906184899
7906191307
7906196617
7906203942
7906210961
7906218712
7906225182
7906230614
7906238060
7906243981
7906251671
7906257591
7906265404
7906274193
7906281090
7906287010
7906291710
7906298302
7906305077
7906310265
7906316551
7906322777
7906327538
7906334312
7906341270
7906347069
7906353111
7906358971
7906363975
7906369286
7906375328
7906380943
7906386925
7906393150
7906398582
7906405113
7906411400
7906416160
7906422691
7906427574
7906434288
7906440208
7906446190
7906452171
7906457969
7906461204
7906468956
7906475059
7906480735
7906486290
7906494163
7906499290
7906505394
7906511131
7906517295
7906523521
7906528587
7906536033
7906542747
7906549034
7906555137
7906559593
7906567161
7906573631
7906580833
7906586875
7906592857
7906597190
7906605735
7906610435
7906616172
7906623069
7906629356
7906637901
7906641563
7906650413
7906657005
7906663047
7906668784
7906675437
7906682578
7906689353
7906696067
7906701316
7906708518
7906712180
7906721091
7906729636
7906734458
7906741477
7906748374
7906754294
7906760886
7906766623
7906772239
7906780295
7906787375
7906795005
7906799216
7906808371
7906816245
7906821738
7906833518
7906839133
7906846579
7906852011
7906859152
7906866049
7906872397
7906878317
7906886191
7906891501
7906899069
7906904501
7906910910
7906916647
7906924399
7906929953
7906938315
7906942038
7906949973
7906955344
7906963766
7906967551
7906977255
7906982626
7906989096
7906996237
7907002890
7907009787
7907016379
7907022665
7907029318
7907036093
7907042563
7907048971
7907055929
7907060812
7907067160
7907073751
7907081625
7907087851
7907094809
7907101767
7907107016
7907115133
7907121481
7907128195
7907134725
7907141195
7907147848
7907154379
7907158224
7907167562
7907172811
7907179464
7907186178
7907192648
7907196432
7907204977
7907211996
7907218954
7907225423
7907233053
7907239095
7907246236
7907253500
7907260580
7907267660
7907273153
7907280599
7907287862
7907295797
7907302816
7907309835
7907317342
7907323446
7907328878
7907337240
7907343831
7907352437
7907358114
7907365072
7907371602
7907380086
7907386861
7907395589
7907401815
7907413533
7907421346
7907429647
7907434346
7907443929
7907449056
7907461263
7907475118
7907481526
7907491841
7907498860
7907508565
7907514973
7907523335
7907530843
7907539998
7907547871
7907554036
7907561848
7907568257
7907574238
7907581807
7907590352
7907597005
7907602620
7907611714
7907617817
7907625020
7907630269
7907638081
7907646321
7907653950
7907659871
7907667805
7907673664
7907682270
7907690205
7907695820
7907703755
7907708454
7907718708
7907726643
7907732685
7907740498
7907748188
7907752705
7907761250
7907768025
7907777241
7907783772
7907791157
7907797566
7907806599
7907813252
7907820087
7907829060
7907836811
7907842731
7907850361
7907858112
7907865620
7907871479
7907879047
7907887531
7907895099
7907902851
7907908832
7907916523
7907924213
7907930195
7907936664
7907946186
7907953632
7907960346
7907966816
7907975422
7907982135
7907988849
7907997516
7908004108
7908012958
7908019611
7908027973
7908034442
7908040851
7908049701
7908058185
7908061054
7908075519
7908081928
7908090473
7908098712
7908105121
7908113055
7908121417
7908127948
7908136920
7908145404
7908153949
7908161090
7908169330
7908176349
7908182635
7908190570
7908199664
7908204852
7908214984
7908220111
7908232562
7908237750
7908248858
7908256122
7908265704
7908274371
7908283404
7908294329
7908302264
7908310687
7908316790
7908322222
7908332904
7908339923
7908347674
7908354022
7908361895
7908366534
7908377154
7908381793
7908390826
7908395403
7908404498
7908411211
7908419634
7908426104
7908434100
7908439898
7908448260
7908457415
7908465777
7908472369
7908479754
7908485613
7908494036
7908503252
7908510454
7908518877
7908526568
7908532427
7908539629
7908544939
7908553057
7908560320
7908562822
7908574785
7908582781
7908588457
7908597246
7908602800
7908610796
7908617876
7908623857
7908631304
7908639421
7908645159
7908649370
7908659624
7908664202
7908674089
7908678606
7908687944
7908696001
7908706316
7908710832
7908720659
7908727190
7908734880
7908741350
7908748308
7908754961
7908764299
7908770891
7908779375
7908785295
7908794389
7908800371
7908809038
7908815385
7908824846
7908831071
7908839189
7908845048
7908851579
7908860917
7908867631
7908873491
7908884172
7908892533
7908899064
7908905107
7908912858
7908920549
7908926530
7908934464
7908943315
7908966386
7908973283
7908981584
7908989274
7909002396
7909009782
7909021561
7909030778
7909038224
7909048356
7909057816
7909065507
7909073929
7909085465
7909093155
7909099076
7909105607
7909113419
7909121964
7909127945
7909136490
7909143692
7909149369
7909158097
7909163712
7909171585
7909179093
7909185990
7909190934
7909197647
7909204361
7909210038
7909216690
7909222611
7909228714
7909236710
7909242081
7909249710
7909253372
7909260697
7909265946
7909273209
7909278397
7909288467
7909294144
7909300369
7909306717
7909312515
7909318741
7909323135
7909329727
7909336868
7909343216
7909349747
7909355240
7909359390
7909365860
7909372024
7909378189
7909384476
7909391128
7909395828
7909402603
7909407364
7909414139
7909419082
7909425308
7909430008
7909437027
7909442520
7909447830
7909453262
7909458633
7909465286
7909471878
7909478164
7909482986
7909488174
7909494583
7909500015
7909505508
7909511062
7909516433
7909522354
7909528213
7909533523
7909539016
7909544265
7909549270
7909555923
7909563125
7909567703
7909574966
7909581313
7909586868
7909593826
7909598159
7909604995
7909612258
7909620071
7909626601
7909633620
7909641067
7909647658
7909654433
7909661941
7909668349
7909677871
7909683608
7909689956
7909697646
7909701064
7909709426
7909715224
7909721145
7909729323
7909733657
7909742568
7909749343
7909756057
7909762770
7909768081
7909776931
7909785537
7909792067
7909799330
7909804213
7909812148
7909817519
7909824843
7909829604
7909838637
7909844863
7909849928
7909858901
7909863478
7909871779
7909877944
7909884840
7909891249
7909897292
7909903334
7909909926
7909915480
7909923170
7909930739
7909935683
7909942946
7909948317
7909957899
7909964369
7909970778
7909978346
7909981703
7909989699
7909996840
7910003615
7910011000
7910016066
7910023695
7910029799
7910035719
7910044874
7910051039
7910059401
7910064100
7910070570
7910078688
7910083754
7910091932
7910098402
7910104200
7910112257
7910117201
7910124708
7910132093
7910139051
7910145582
7910150526
7910158277
7910165113
7910171095
7910177870
7910186292
7910193372
7910199415
7910207533
7910214246
7910221937
7910228651
7910236097
7910245679
7910251050
7910259107
7910263441
7910271619
7910277906
7910284498
7910290845
7910297132
7910304029
7910309278
7910317579
7910323682
7910331800
7910338453
7910344678
7910351087
7910358289
7910366285
7910372937
7910381299
7910390271
7910396924
7910405652
7910412366
7910417676
7910426648
7910434217
7910441175
7910448132
7910455823
7910462293
7910467725
7910475110
7910481336
7910489819
7910495068
