7708203533
7708209026
7708213482
7708218242
7708222881
7708227703
7708232769
7708237407
7708241985
7708247539
7708252483
7708256939
7708262188
7708267376
7708272014
7708276226
7708280864
7708284954
7708289226
7708293804
7708298198
7708302654
7708307109
7708310894
7708315166
7708319316
7708324688
7708329387
7708334697
7708340435
7708345806
7708351238
7708358196
7708363750
7708370525
7708377117
7708381694
7708388530
7708396770
7708405986
7708413554
7708420268
7708426067
7708435039
7708441814
7708451396
7708458415
7708466594
7708472819
7708480388
7708486552
7708493083
7708500957
7708507121
7708513347
7708520854
7708525554
7708533488
7708540996
7708549357
7708555705
7708562297
7708569743
7708577494
7708583232
7708591838
7708598674
7708606364
7708613627
7708620280
7708627238
7708635417
7708639628
7708649455
7708657389
7708664652
7708671549
7708678385
7708684855
7708691752
7708698222
7708705058
7708714396
7708720316
7708727519
7708733134
7708741373
7708747111
7708755778
7708762736
7708770914
7708778483
7708785258
7708792094
7708798929
7708804545
7708811320
7708818949
7708827189
7708839152
7708843546
7708854471
7708864420
7708872355
7708880838
7708887735
7708895304
7708902994
7708910562
7708918741
7708926126
7708934244
7708941873
7708948160
7708955057
7708963053
7708968424
7708976114
7708983560
7708991800
7709000284
7709007974
7709012064
7709022867
7709028787
7709035684
7709043069
7709051004
7709059183
7709064981
7709073099
7709079996
7709087442
7709093606
7709105386
7709113565
7709121927
7709129434
7709136087
7709144571
7709150796
7709163125
7709170755
7709176431
7709185037
7709192117
7709199258
7709204934
7709215921
7709222818
7709229409
7709236489
7709242044
7709248941
7709256265
7709263223
7709272256
7709279824
7709285073
7709292520
7709299416
7709306802
7709312112
7709321816
7709327615
7709336404
7709341958
7709350076
7709356728
7709363808
7709370827
7709379006
7709385720
7709392678
7709400002
7709406899
7709414528
7709421548
7709429909
7709436867
7709444619
7709450661
7709458291
7709465249
7709472390
7709479104
7709487832
7709493569
7709502602
7709509255
7709517495
7709525917
7709533852
7709542519
7709549172
7709557350
7709563515
7709571205
7709579323
7709587013
7709593300
7709603188
7709611244
7709621132
7709629189
7709636879
7709644020
7709651772
7709659096
7709666847
7709674171
7709681801
7709688942
7709696449
7709703834
7709711220
7709718544
7709726417
7709734779
7709743324
7709752113
7709759559
7709767921
7709775856
7709784095
7709790016
7709801918
7709812904
7709819740
7709831031
7709835914
7709846717
7709854957
7709862770
7709870155
7709878089
7709885536
7709890968
7709901893
7709907325
7709914649
7709922950
7709929603
7709934730
7709941566
7709950233
7709958167
7709967200
7709974525
7709982825
7709991187
7709997047
7710006812
7710015906
7710021949
7710030066
7710036109
7710041541
7710049659
7710056250
7710064734
7710071509
7710077735
7710084998
7710090979
7710097693
7710105017
7710112464
7710119666
7710126563
7710133521
7710140479
7710147254
7710154090
7710161780
7710169715
7710176978
7710183875
7710190894
7710197241
7710204382
7710210791
7710219153
7710227087
7710234595
7710241064
7710247534
7710252234
7710262060
7710266211
7710278113
7710281958
7710292334
7710298743
7710305151
7710312292
7710317236
7710327002
7710336462
7710343359
7710350927
7710358191
7710367224
7710371374
7710382055
7710389563
7710397558
7710404821
7710408972
7710420019
7710427526
7710434851
7710442114
7710449621
7710456091
7710461218
7710470739
7710475805
7710486120
7710490820
7710498083
7710510290
7710519811
7710525427
7710532995
7710541113
7710547338
7710554174
7710561010
7710567174
7710573400
7710578100
7710586828
7710592199
7710597692
7710606359
7710612462
7710618566
7710626806
7710632360
7710639257
7710646459
7710652318
7710659948
7710666173
7710672155
7710680211
7710684728
7710692846
7710698461
7710704320
7710713048
7710718358
7710724584
7710731847
7710736730
7710745641
7710754918
7710762120
7710768041
7710776097
7710780187
7710788426
7710793187
7710801488
7710809178
7710815587
7710823460
7710830174
7710836888
7710845311
7710852147
7710859105
7710867161
7710875218
7710881444
7710887181
7710896824
7710903050
7710910252
7710917943
7710925633
7710932286
7710940953
7710947789
7710955723
7710959813
7710968663
7710975987
7710982273
7710990208
7710996861
7711004979
7711012608
7711019078
7711026585
7711032383
7711041111
7711048924
7711057896
7711069126
7711076634
7711085423
7711093052
7711101231
7711110142
7711117649
7711125401
7711133091
7711139683
7711148228
7711154331
7711161838
7711167332
7711176609
7711183445
7711189670
7711198704
7711207981
7711215488
7711223118
7711230198
7711238010
7711244968
7711253452
7711261020
7711267002
7711275058
7711281894
7711289524
7711293491
7711304966
7711312900
7711319309
7711327060
7711333835
7711340610
7711348545
7711355380
7711363620
7711370456
7711377231
7711385715
7711390231
7711399936
7711405551
7711415439
7711422580
7711430270
7711438144
7711441684
7711453708
7711460849
7711469028
7711476474
7711482150
7711490878
7711498691
7711505832
7711515109
7711520968
7711529574
7711535861
7711544711
7711553500
7711561007
7711567782
7711573642
7711582675
7711587008
7711598422
7711604464
7711612033
7711621981
7711628878
7711636630
7711644503
7711651156
7711660433
7711666659
7711676547
7711685397
7711691500
7711702731
7711709750
7711719515
7711728671
7711740084
7711749667
7711757540
7711764925
7711770418
7711780550
7711787630
7711794466
7711802706
7711807833
7711816805
7711822603
7711831820
7711839937
7711847139
7711853365
7711859346
7711868624
7711876925
7711883638
7711890718
7711895662
7711905123
7711913118
7711919161
7711930757
7711937898
7711946138
7711953157
7711958895
7711969270
7711976961
7711985018
7711994234
7712000398
7712007539
7712014436
7712021394
7712029573
7712036226
7712045686
7712054292
7712062227
7712069673
7712075471
7712084871
7712093416
7712100984
7712107759
7712116609
7712124666
7712133272
7712142061
7712149324
7712157075
7712166414
7712174043
7712181672
7712187898
7712198335
7712203706
7712213044
7712220613
7712228303
7712235505
7712241120
7712252778
7712262177
7712269807
7712277253
7712283723
7712291901
7712298859
7712308442
7712315644
7712322175
7712331574
7712338288
7712347749
7712353669
7712363251
7712373200
7712379914
7712390534
7712400422
7712408539
7712419159
7712428315
7712435334
7712441498
7712453095
7712457673
7712467194
7712474762
7712482087
7712489960
7712495575
7712504364
7712508393
7712518097
7712527313
7712533966
7712541901
7712549042
7712561615
7712568939
7712575287
7712585480
7712594330
7712599945
7712607941
7712615448
7712623810
7712632965
7712640655
7712650299
7712657684
7712666656
7712673859
7712680939
7712688568
7712696075
7712704010
7712712311
7712720917
7712726532
7712734710
7712742645
7712750030
7712759063
7712765228
7712774505
7712780914
7712789825
7712796478
7712803192
7712812347
7712820465
7712826995
7712835296
7712844085
7712846527
7712856841
7712866424
7712873992
7712880035
7712886932
7712895904
7712900176
7712911163
7712921661
7712928130
7712936309
7712943084
7712951568
7712954253
7712967376
7712976287
7712982024
7712990264
7712998626
7713007293
7713015227
7713022918
7713032134
7713040313
7713047637
7713055693
7713064055
7713070708
7713078948
7713089507
7713096465
7713107390
7713113921
7713123076
7713131804
7713140105
7713148223
7713155303
7713162627
7713171172
7713179778
7713185332
7713197295
7713205168
7713212553
7713220061
7713226897
7713233244
7713243681
7713248076
7713259672
7713267851
7713276701
7713284025
7713288603
7713300322
7713308073
7713317717
7713325102
7713332243
7713340666
7713347624
7713354887
7713363371
7713372465
7713380766
7713389677
7713397612
7713405851
7713414030
7713423002
7713430754
7713439604
7713447843
7713456938
7713463468
7713472318
7713480009
7713490324
7713497526
7713507047
7713512296
7713521757
7713526945
7713538847
7713544584
7713553922
7713562223
7713570524
7713576261
7713584684
7713589261
7713599088
7713606473
7713613736
7713621549
7713628751
7713633756
7713643277
7713649076
7713658597
7713671170
7713678983
7713691495
7713700162
7713710538
7713718167
7713725492
7713732327
7713739591
7713745572
7713753324
7713760037
7713766690
7713776639
7713784512
7713791837
7713798978
7713806363
7713816129
7713826199
7713832364
7713840787
7713849148
7713856656
7713864163
7713871243
7713879849
7713887356
7713894314
7713902066
7713909024
7713914761
7713924588
7713930996
7713939724
7713946682
7713953579
7713961636
7713967495
7713976284
7713984280
7713992276
7713999478
7714007046
7714015103
7714020901
7714031094
7714038174
7714045254
7714053372
7714059902
7714067776
7714074917
7714084927
7714092434
7714101040
7714105557
7714115017
7714123135
7714131191
7714138271
7714146267
7714154385
7714161343
7714169948
7714178371
7714186611
7714192776
7714201687
7714210476
7714218593
7714225429
7714232326
7714238979
7714248073
7714255825
7714264431
7714272365
7714281337
7714286586
7714296291
7714303432
7714311367
7714318325
7714327419
7714334621
7714342616
7714348781
7714357753
7714364284
7714369228
7714380519
7714388759
7714395107
7714403285
7714411952
7714420192
7714426967
7714433925
7714441798
7714451015
7714459071
7714466090
7714473842
7714480128
7714489711
7714498073
7714505214
7714515223
7714523585
7714533839
7714540492
7714550807
7714559352
7714566981
7714574366
7714582850
7714591334
7714597499
7714606532
7714612574
7714620997
7714627345
7714635340
7714641200
7714649806
7714658778
7714665003
7714673365
7714680079
7714688014
7714695338
7714702967
7714708460
7714717615
7714722071
7714732691
7714741358
7714746912
7714753260
7714762659
7714770106
7714777064
7714783533
7714792200
7714799158
7714805811
7714814173
7714819788
7714828150
7714835596
7714841272
7714849634
7714857874
7714866175
7714872644
7714881311
7714890528
7714898767
7714907190
7714914820
7714921045
7714929102
7714936365
7714943567
7714953027
7714960352
7714968103
7714977075
7714984155
7714990564
7714999353
7715005640
7715016016
7715022241
7715030725
7715039148
7715045373
7715053857
7715062097
7715068628
7715075525
7715085046
7715092309
7715100671
7715107568
7715117334
7715124414
7715133020
7715140222
7715146875
7715156091
7715164331
7715170434
7715179711
7715186181
7715194238
7715202783
7715208764
7715218774
7715223779
7715234033
7715241967
7715250146
7715257226
7715265038
7715272118
7715279748
7715288842
7715295922
7715304894
7715311486
7715321984
7715330590
7715340600
7715348901
7715355736
7715366967
7715374352
7715383507
7715389550
7715398644
7715407250
7715413720
7715421349
7715427025
7715437096
7715445641
7715454308
7715462426
7715468895
7715473839
7715485070
7715490197
7715499962
7715506859
7715514916
7715521263
7715529625
7715538780
7715545128
7715553490
7715562279
7715570763
7715577538
7715586083
7715592125
7715600426
7715605309
7715615807
7715622948
7715630943
7715650352
7715656029
7715660423
7715670189
7715677391
7715683494
7715687828
7715695030
7715702049
7715708763
7715715355
7715720115
7715728172
7715733482
7715740440
7715745750
7715753135
7715758445
7715764732
7715769920
7715778099
7715783409
7715790123
7715795433
7715803550
7715809593
7715815818
7715821922
7715828636
7715832359
7715840598
7715847068
7715853233
7715859153
7715865379
7715869102
7715877769
7715883506
7715889182
7715894798
7715899375
7715905418
7715910178
7715917258
7715923484
7715928794
7715933799
7715939475
7715946006
7715950645
7715958152
7715964194
7715969504
7715975364
7715981284
7715986777
7715992087
7715999900
7716008628
7716015220
7716020896
7716027915
7716035056
7716039695
7716048789
7716055930
7716060569
7716067038
7716071738
7716079001
7716085044
7716092246
7716096274
7716104514
7716110129
7716116049
7716122702
7716127097
7716134665
7716139914
7716146811
7716151694
7716159750
7716165488
7716171225
7716178610
7716184531
7716191184
7716196433
7716204123
7716208578
7716215414
7716221701
7716228110
7716232870
7716239889
7716245261
7716252585
7716258078
7716266012
7716272177
7716279989
7716283652
7716291830
7716297873
7716304220
7716311300
7716317587
7716323446
7716330038
7716337790
7716344137
7716350607
7716355551
7716363241
7716368307
7716374960
7716381552
7716388449
7716394796
7716402487
7716407431
7716413961
7716420980
7716429403
7716435079
7716441915
7716447714
7716453939
7716460226
7716466451
7716472921
7716479208
7716485616
7716492086
7716498495
7716503622
7716511434
7716518514
7716525289
7716531820
7716538106
7716544088
7716550680
7716556234
7716562948
7716569784
7716574972
7716582601
7716589437
7716595723
7716601461
7716609639
7716616536
7716625386
7716631856
7716638875
7716645345
7716652425
7716659383
7716665792
7716672689
7716679647
7716685750
7716690755
7716698384
7716705464
7716711873
7716716756
7716725911
7716731221
7716738179
7716743550
7716750081
7716757039
7716763326
7716768697
7716776387
7716781819
7716789021
7716794392
7716802327
7716808125
7716815633
7716821004
7716829243
7716835896
7716842366
7716849019
7716853963
7716861958
7716869038
7716874348
7716881917
7716889180
7716896260
7716900410
7716908589
7716915303
7716923665
7716927876
7716937153
7716941426
7716951008
7716957966
7716965046
7716969136
7716978535
7716985981
7716993000
7716997822
7717005390
7717012104
7717018635
7717025532
7717032734
7717039326
7717048847
7717056110
7717062763
7717069233
7717076862
7717083210
7717091877
7717098164
7717106586
7717113056
7717120747
7717126484
7717134663
7717140461
7717149738
7717155598
7717163471
7717171161
7717178180
7717185566
7717192096
7717199421
7717205890
7717212726
7717221332
7717227436
7717235492
7717241779
7717250690
7717257953
7717264423
7717271991
7717281269
7717288593
7717296222
7717305988
7717314044
7717321124
7717328082
7717337299
7717347186
7717354694
7717363178
7717368305
7717377948
7717386127
7717392047
7717399982
7717407550
7717412982
7717421710
7717426288
7717436114
7717443378
7717450946
7717455524
7717465533
7717472857
7717479205
7717485675
7717494647
7717500995
7717508075
7717514544
7717525653
7717533038
7717540850
7717548785
7717555377
7717561785
7717569537
7717578997
7717586749
7717593280
7717601031
7717607379
7717615435
7717621783
7717628558
7717636981
7717643267
7717651324
7717658221
7717663958
7717671343
7717679034
7717686480
7717694048
7717700457
7717708208
7717715533
7717723162
7717728594
7717737078
7717741778
7717750933
7717757891
7717768206
7717773150
7717782122
7717788408
7717797564
7717803789
7717812090
7717820513
7717830034
7717836382
7717844805
7717853167
7717861711
7717870928
7717878313
7717887163
7717896135
7717902910
7717910478
7717916155
7717925188
7717930986
7717937639
7717945268
7717953020
7717961260
7717970293
7717979082
7717988176
7717994707
7718004289
7718008806
7718019182
7718024126
7718033952
7718042192
7718050859
7718058793
7718066606
7718074846
7718085466
7718092485
7718100663
7718109453
7718119645
7718126359
7718134477
7718140947
7718149675
7718155839
7718164323
7718170732
7718178544
7718184953
7718193498
7718200028
7718208268
7718214128
7718222428
7718230485
7718237260
7718243119
7718250688
7718258561
7718266068
7718273637
7718280167
7718288041
7718295975
7718301591
7718309220
7718316849
7718322526
7718331437
7718336869
7718345780
7718351578
7718358719
7718365555
7718370865
7718377579
7718387894
7718392411
7718400467
7718407608
7718414322
7718420853
7718428605
7718438309
7718446610
7718451493
7718459732
7718466202
7718474930
7718481339
7718487808
7718496170
7718504410
7718510514
7718518387
7718526322
7718533707
7718539505
7718543961
7718554276
7718559891
7718569290
7718578018
7718583939
7718591324
7718599503
7718604080
7718613113
7718619522
7718629227
7718636246
7718642593
7718651016
7718656875
7718662613
7718670913
7718678299
7718686538
7718692032
7718699600
7718705093
7718713211
7718719009
7718727615
7718731460
7718739212
7718743118
7718750991
7718758010
7718763626
7718768447
7718774673
7718782180
7718790115
7718797988
7718805068
7718812087
7718819778
7718825393
7718834853
7718841262
7718848281
7718854629
7718861099
7718867019
7718871963
7718880325
7718884475
7718892104
7718898696
7718904800
7718910842
7718916701
7718922683
7718927383
7718935195
7718939834
7718947585
7718953444
7718959548
7718966811
7718973220
7718979262
7718985183
7718990737
7718996718
7719004043
7719009230
7719015883
7719022109
7719028579
7719034194
7719040847
7719047316
7719050673
7719058120
7719063735
7719070327
7719076064
7719081374
7719088271
7719093581
7719097853
7719105666
7719110549
7719115920
7719124526
7719130202
7719135634
7719142348
7719146803
7719153578
7719160841
7719167311
7719174208
7719179396
7719185866
7719192152
7719198561
7719205336
7719211806
7719218458
7719225355
7719230971
7719238478
7719242689
7719251173
7719258070
7719265211
7719271559
7719277235
7719284254
7719291273
7719298170
7719303907
7719309706
7719318617
7719323011
7719333937
7719340651
7719348341
7719357679
7719361219
7719372084
7719379774
7719385267
7719393995
7719399366
7719407728
7719415113
7719421827
7719428846
7719434034
7719442091
7719448927
7719455152
7719462354
7719469068
7719475294
7719481092
7719490003
7719495863
7719502882
7719509107
7719514173
7719521436
7719529920
7719535657
7719543165
7719549390
7719555616
7719563367
7719568616
7719577039
7719583387
7719589979
7719597608
7719604017
7719610303
7719617505
7719623731
7719630994
7719638074
7719644361
7719651075
7719657849
7719663770
7719674817
7719679517
7719686048
7719692334
7719698682
7719705274
7719713696
7719719373
7719726331
7719734021
7719738782
7719761548
7719767346
7719774976
7719783337
7719790967
7719798657
7719805493
7719813855
7719819653
7719827222
7719835644
7719840039
7719847668
7719854443
7719862134
7719869397
7719874829
7719883191
7719888134
7719896679
7719904980
7719914013
7719921154
7719927075
7719933972
7719941967
7719949414
7719955456
7719964917
7719969250
7719977124
7719983105
7719989453
7719993176
7720002331
7720006481
7720014660
7720021252
7720027722
7720034863
7720039867
7720046215
7720052746
7720056530
7720068249
7720073498
7720079967
7720086803
7720093517
7720099132
7720106335
7720111584
7720121654
7720129467
7720136547
7720142040
7720149242
7720153393
7720162548
7720166576
7720178661
7720184643
7720191845
7720195934
7720204479
7720211376
7720217296
7720223522
7720233043
7720237621
7720246593
7720253246
7720259288
7720265331
7720272533
7720280406
7720287792
7720294322
7720302318
7720308483
7720314525
7720322154
7720329112
7720334972
7720342784
7720348460
7720355785
7720363414
7720368968
7720376170
7720382945
7720390269
7720397349
7720405223
7720412730
7720420421
7720426646
7720434337
7720442210
7720447948
7720455882
7720463939
7720471690
7720477488
7720484019
7720491221
7720497752
7720506541
7720513072
7720523387
7720531199
7720538768
7720545237
7720552561
7720558360
7720566294
7720573985
7720580149
7720588084
7720596629
7720604380
7720611949
7720618601
7720626597
7720634226
7720641734
7720650706
7720660532
7720667246
7720672556
7720682322
7720689585
7720696604
7720704111
7720712351
7720719492
7720727122
7720734751
7720741648
7720746775
7720754770
7720759348
7720768809
7720776499
7720783457
7720790598
7720797678
7720804514
7720809885
7720817575
7720824961
7720832712
7720838877
7720846750
7720854013
7720860849
7720866342
7720873667
7720883005
7720888376
7720895639
7720902902
7720908212
7720914926
7720922495
7720930551
7720939218
7720944223
7720952097
7720958627
7720967599
7720974252
7720981577
7720988962
7721001047
7721008676
7721013986
7721019968
7721026803
7721034372
7721041086
7721047006
7721057260
7721064218
7721071481
7721077218
7721085275
7721092965
7721098703
7721106454
7721114694
7721122812
7721129220
7721137399
7721144662
7721150643
7721158029
7721165353
7721172006
7721179574
7721186410
7721194528
7721200875
7721209847
7721216317
7721223275
7721229196
7721238961
7721246957
7721255441
7721264901
7721272652
7721279244
7721289010
7721295785
7721305794
7721313363
7721321602
7721328866
7721337472
7721343941
7721352791
7721358651
7721370125
7721377083
7721386178
7721392830
7721403878
7721409859
7721420601
7721427925
7721437081
7721444771
7721453194
7721460152
7721469246
7721475533
7721483834
7721490608
7721499520
7721506355
7721513924
7721520516
7721527535
7721535835
7721541817
7721550118
7721558846
7721565315
7721574715
7721580330
7721587471
7721594978
7721601814
7721607002
7721613960
7721622139
7721627998
7721633735
7721639656
7721644050
7721651069
7721655525
7721663521
7721668586
7721676094
7721681526
7721687874
7721694343
7721700752
7721707954
7721712898
7721721687
7721727607
7721733955
7721740974
7721745552
7721753913
7721760749
7721765693
7721770576
7721777412
7721782783
7721789253
7721792854
7721802741
7721807441
7721813117
7721818549
7721824348
7721830390
7721836433
7721843696
7721848579
7721854377
7721858955
7721864997
7721869270
7721876716
7721880073
7721888374
7721893989
7721897895
7721904487
7721908515
7721915107
7721920783
7721925971
7721930732
7721936957
7721941352
7721947822
7721953193
7721958442
7721964484
7721971686
7721976996
7721982551
7721987922
7721994696
7721999884
7722004645
7722013739
7722021369
7722027167
7722033332
7722037604
7722044989
7722049689
7722057624
7722062628
7722069098
7722073798
7722081000
7722086371
7722091864
7722098029
7722103644
7722110053
7722116400
7722122992
7722127936
7722135199
7722140326
7722148505
7722152411
7722161139
7722167059
7722173041
7722179877
7722184454
7722192938
7722198370
7722205023
7722209906
7722216986
7722221869
7722228888
7722233954
7722241949
7722248480
7722254461
7722260199
7722266180
7722272162
7722278204
7722283087
7722292242
7722297125
7722302984
7722309088
7722315008
7722321173
7722327215
7722334173
7722341192
7722346868
7722351934
7722358648
7722363958
7722371160
7722376287
7722385687
7722390692
7722396612
7722402899
7722409612
7722415960
7722421819
7722428167
7722434881
7722441168
7722445623
7722452337
7722458196
7722464544
7722469122
7722478521
7722483892
7722490911
7722495794
7722502752
7722508306
7722513433
7722518560
7722527410
7722532171
7722539129
7722542547
7722550359
7722556402
7722562322
7722568548
7722577337
7722583562
7722588140
7722596257
7722603337
7722609441
7722614934
7722623357
7722628728
7722636296
7722642644
7722648687
7722654363
7722660283
7722667241
7722673650
7722680669
7722686650
7722692204
7722698125
7722704228
7722710149
7722718816
7722724065
7722729619
7722736028
7722741948
7722748967
7722754948
7722762517
7722769414
7722775883
7722781560
7722786992
7722794621
7722799992
7722806523
7722811894
7722821355
7722825749
7722832951
7722838383
7722845158
7722850651
7722858159
7722863774
7722872380
7722880009
7722885380
7722893742
7722900761
7722907597
7722914311
7722916447
7722927250
7722935490
7722940434
7722947331
7722954472
7722960819
7722967900
7722974980
7722982243
7722989872
7722996952
7723002934
7723010075
7723017704
7723023014
7723027104
7723039311
7723041935
7723052006
7723056095
7723064945
7723071964
7723079166
7723083317
7723094791
7723101322
7723108524
7723113529
7723121647
7723125919
7723134586
7723141788
7723148075
7723154300
7723161381
7723167301
7723175663
7723182132
7723189518
7723195377
7723205753
7723213016
7723219303
7723225101
7723232181
7723241580
7723248905
7723255435
7723265628
7723273319
7723281864
7723287296
7723296634
7723304447
7723310123
7723318240
7723326419
7723334232
7723341312
7723346439
7723353702
7723360538
7723367801
7723371890
7723381656
7723386600
7723396304
7723403140
7723409427
7723415347
7723422610
7723428653
7723440249
7723444766
7723453189
7723459964
7723466006
7723472415
7723480594
7723486514
7723495913
7723502261
7723509219
7723515261
7723522647
7723528750
7723535464
7723543154
7723550479
7723558779
7723565676
7723571597
7723578738
7723584109
7723591555
7723598818
7723606692
7723612795
7723621401
7723630557
7723639651
7723647524
7723656741
7723666567
7723673586
7723680422
7723688357
7723696169
7723705813
7723713442
7723719851
7723727663
7723736513
7723744692
7723751345
7723759157
7723763613
7723773378
7723780764
7723787478
7723794436
7723803713
7723811464
7723817995
7723824465
7723831423
7723839785
7723846071
7723854311
7723861879
7723871279
7723877809
7723886232
7723892763
7723900514
7723907289
7723915102
7723921632
7723929750
7723937746
7723945436
7723951173
7723958376
7723965883
7723973756
7723978212
7723989503
7723994997
7724005495
7724012392
7724021364
7724028444
7724036012
7724045106
7724053834
7724061158
7724070314
7724076600
7724083680
7724090272
7724097352
7724105287
7724113404
7724120362
7724127259
7724135804
7724143067
7724149049
7724156678
7724163697
7724170594
7724177918
7724186097
7724191407
7724196656
7724205262
7724213014
7724218263
7724225587
7724233949
7724241700
7724246949
7724255433
7724261292
7724268922
7724276734
7724281495
7724291932
7724297242
7724307496
7724314820
7724320801
7724327515
7724335877
7724344056
7724351990
7724360657
7724367859
7724374390
7724380677
7724388550
7724395386
7724403199
7724411255
7724419312
7724426026
7724433777
7724441345
7724447815
7724455445
7724463745
7724468384
7724479187
7724486389
7724494324
7724500794
7724508118
7724514221
7724522400
7724530457
7724538208
7724544800
7724552002
7724557373
7724563660
7724569031
7724576355
7724581421
7724588989
7724594910
7724601562
7724607178
7724612915
7724618896
7724624695
7724628418
7724636535
7724641845
7724647644
7724654419
7724660339
7724665222
7724671020
7724678894
7724685302
7724691772
7724696716
7724703064
7724708618
7724715576
7724722900
7724729370
7724736450
7724742736
7724748840
7724754516
7724758727
7724766113
7724773376
7724779540
7724785400
7724789855
7724795348
7724801147
7724806884
7724811462
7724819030
7724825683
7724831420
7724836791
7724842468
7724848754
7724852660
7724860229
7724866576
7724871825
7724877318
7724882629
7724888244
7724893432
7724901671
7724906310
7724912169
7724916442
7724922301
7724926635
7724933532
7724938842
7724945983
7724951110
7724956908
7724963134
7724969420
7724975402
7724980590
7724987548
7724991637
7724999450
7725005858
7725011595
7725017394
7725022155
7725029601
7725035033
7725043090
7725048339
7725054320
7725061583
7725066954
7725074706
7725080931
7725087340
7725093443
7725099974
7725105772
7725114439
7725120299
7725126341
7725133299
7725139098
7725144225
7725151549
7725158873
7725164549
7725172179
7725179259
7725184935
7725191344
7725196348
7725204161
7725209166
7725218748
7725223997
7725230955
7725237669
7725243956
7725252195
7725260923
7725268492
7725273924
7725280577
7725287107
7725292418
7725303282
7725308165
7725316099
7725320860
7725327879
7725335142
7725341184
7725346739
7725353208
7725360777
7725365721
7725371214
7725378233
7725383482
7725388609
7725396299
7725402403
7725409239
7725412779
7725420591
7725426328
7725432371
7725438779
7725444822
7725452879
7725457639
7725464963
7725469541
7725476804
7725481443
7725489927
7725495603
7725502378
7725507505
7725514402
7725519468
7725526975
7725532956
7725541501
7725545163
7725552244
7725557920
7725564695
7725568113
7725576474
7725582883
7725589109
7725595761
7725602292
7725608457
7725615049
7725621030
7725627622
7725634458
7725641110
7725648557
7725657102
7725664304
7725670712
7725679563
7725687863
7725699033
7725706540
7725713010
7725718808
7725725278
7725732175
7725737119
7725741086
7725751218
7725759457
7725764279
7725771725
7725778866
7725785458
7725794064
7725805234
7725813351
7725820981
7725826901
7725835019
7725840878
7725846249
7725856259
7725861264
7725872616
7725877560
7725892025
7725897641
7725904904
7725914059
7725922909
7725931576
7725941220
7725947811
7725955807
7725964840
7725970333
7725978146
7725984127
7725992001
7725999874
7726006588
7726011837
7726018368
7726025631
7726032162
7726038021
7726044674
7726051998
7726058773
7726065731
7726073482
7726080074
7726085873
7726095150
7726103145
7726111202
7726117061
7726124813
7726132625
7726140194
7726146297
7726155391
7726163082
7726168331
7726176448
7726180660
7726189815
7726195919
7726204830
7726212581
7726219539
7726227046
7726232418
7726238277
7726245540
7726251460
7726260127
7726266292
7726274593
7726280757
7726287959
7726294002
7726302547
7726308589
7726314815
7726322566
7726330196
7726336726
7726344722
7726350642
7726358760
7726364864
7726372981
7726378413
7726388118
7726394588
7726402095
7726407954
7726414912
7726422664
7726429683
7726437617
7726440303
7726452388
7726460505
7726468257
7726472834
7726483088
7726488337
7726496638
7726503291
7726511897
7726518855
7726526667
7726535456
7726542964
7726551325
7726557673
7726563532
7726573359
7726579707
7726585139
7726595820
7726603083
7726608942
7726617609
7726623530
7726632136
7726640376
7726646235
7726656489
7726664362
7726671625
7726679072
7726687983
7726696772
7726706049
7726714289
7726722651
7726729975
7726735224
7726742548
7726749811
7726754511
7726763849
7726771967
7726777582
7726784479
7726792292
7726799311
7726804804
7726810846
7726820612
7726828791
7726834284
7726841181
7726848383
7726855158
7726862360
7726869745
7726875849
7726882196
7726890314
7726896600
7726903742
7726909784
7726917352
7726923273
7726934930
7726940118
7726949335
7726956049
7726963861
7726970392
7726977655
7726984003
7726993036
7726999566
7727007440
7727015191
7727022577
7727028497
7727036371
7727044183
7727049371
7727059442
7727064752
7727073907
7727081170
7727087091
7727093743
7727101068
7727109368
7727117730
7727125299
7727133111
7727138970
7727146478
7727154778
7727160821
7727168633
7727176873
7727185296
7727192742
7727198541
7727206414
7727213067
7727222039
7727229058
7727235955
7727247247
7727252618
7727260857
7727267449
7727275445
7727281426
7727290398
7727296197
7727306634
7727312981
7727322991
7727330376
7727338494
7727348626
7727356743
7727364678
7727374443
7727381768
7727390557
7727396355
7727403557
7727412285
7727420830
7727427117
7727432488
7727444145
7727452873
7727461479
7727467583
7727475945
7727484490
7727491081
7727499199
7727506950
7727514702
7727522270
7727526787
7727534721
7727540459
7727546928
7727552299
7727561333
7727567192
7727573234
7727578911
7727584587
7727590385
7727596123
7727601860
7727607719
7727614555
7727619072
7727625419
7727631401
7727638298
7727642509
7727651359
7727656852
7727662956
7727667839
7727674247
7727679130
7727685966
7727690849
7727698173
7727704093
7727710380
7727713676
7727720817
7727726310
7727732414
7727738700
7727745048
7727751701
7727757987
7727764396
7727770316
7727775199
7727780265
7727788200
7727794425
7727800224
7727805167
7727810355
7727816764
7727820914
7727827445
7727833427
7727839591
7727843986
7727849906
7727856193
7727861686
7727868033
7727873832
7727879203
7727884757
7727889823
7727895988
7727900138
7727904593
7727912406
7727917350
7727922599
7727928275
7727933402
7727939139
7727945060
7727951651
7727957938
7727963065
7727967765
7727975150
7727979789
7727987601
7727991141
7728000418
7728006705
7728013175
7728019889
7728025016
7728032157
7728036856
7728046073
7728049857
7728058402
7728065177
7728069876
7728076529
7728082694
7728089407
7728095999
7728102286
7728109366
7728115591
7728121634
7728127432
7728132010
7728139273
7728145926
7728152029
7728157889
7728163992
7728169791
7728175833
7728184988
7728190359
7728197317
7728202200
7728209219
7728214163
7728220266
7728225332
7728233633
7728237722
7728245474
7728251211
7728257620
7728263540
7728270437
7728275503
7728284353
7728289663
7728295706
7728302175
7728308096
7728314138
7728318716
7728326406
7728333547
7728339163
7728344290
7728351187
7728358450
7728363760
7728369070
7728377310
7728383413
7728389517
7728395315
7728401479
7728407217
7728413320
7728419973
7728427908
7728434011
7728440054
7728445913
7728451955
7728457998
7728462514
7728470815
7728477590
7728483022
7728490224
7728495168
7728500234
7728508047
7728515004
7728521108
7728527639
7728533559
7728539418
7728545461
7728551503
7728557973
7728564443
7728570485
7728577382
7728584523
7728589406
7728596974
7728604970
7728612111
7728622792
7728627858
7728638600
7728644216
7728652455
7728660085
7728666799
7728674916
7728682179
7728689565
7728695363
7728702992
7728710072
7728716786
7728724355
7728731435
7728737111
7728743764
7728750966
7728756764
7728764577
7728769765
7728777699
7728783009
7728791371
7728796559
7728803822
7728810536
7728816090
7728822499
7728829884
7728836720
7728844410
7728852223
7728858998
7728868336
7728875721
7728884022
7728891651
7728898854
7728907093
7728913929
7728921925
7728928272
7728937733
7728944020
7728951771
7728959889
7728967274
7728975025
7728981617
7728989369
7728995106
7729004200
7729009205
7729020496
7729029102
7729034962
7729042469
7729049671
7729056385
7729064991
7729072010
7729078968
7729085987
7729094593
7729101185
7729108936
7729114734
7729122059
7729128040
7729136829
7729144825
7729153553
7729160267
7729169910
7729179798
7729186634
7729196582
7729203479
7729212940
7729219959
7729228137
7729235340
7729244678
7729249988
7729259265
7729267200
7729278003
7729283252
7729292224
7729298694
7729306628
7729313098
7729321582
7729327380
7729337207
7729344287
7729351977
7729358508
7729367480
7729373950
7729382739
7729391833
7729394946
7729407031
7729416552
7729423266
7729432238
7729440661
7729447253
7729455005
7729462207
7729472338
7729481128
7729488330
7729494555
7729502307
7729510485
7729516528
7729520983
7729533618
7729538928
7729548205
7729555529
7729561389
7729568041
7729576281
7729582079
7729594531
7729601305
7729607409
7729616625
7729624194
7729630236
7729638659
7729646349
7729654589
7729660937
7729669298
7729677233
7729683153
7729690966
7729695543
7729705248
7729714037
7729722521
7729727587
7729735888
7729742357
7729750109
7729756701
7729764208
7729772936
7729781053
7729788195
7729796739
7729804552
7729816454
7729822618
7729833788
7729839281
7729851305
7729859789
7729868150
7729872667
7729881151
7729887743
7729896410
7729903185
7729912584
7729919786
7729927599
7729934068
7729941576
7729947557
7729957201
7729962999
7729972887
7729978929
7729986497
7729994127
7730002122
7730007982
7730015916
7730021715
7730030076
7730038194
7730043748
7730052964
7730060350
7730066636
7730073167
7730079820
7730088548
7730097459
7730104112
7730112290
7730118760
7730126206
7730131944
7730141404
7730147813
7730158677
7730165757
7730176621
7730183335
7730194138
7730201707
7730209275
7730217332
7730226853
7730234177
7730243272
7730248093
7730257676
7730264146
7730271531
7730277451
7730287949
7730295640
7730303330
7730309128
7730318528
7730324448
7730331589
7730339402
7730341965
7730355515
7730362900
7730368760
7730373459
7730384812
7730389817
7730398423
7730405381
7730416062
7730423691
7730429306
7730437851
7730443772
7730449936
7730459274
7730465317
7730474289
7730482346
7730490158
7730495956
7730503403
7730511215
7730516708
7730524277
7730532089
7730541000
7730546188
7730555466
7730559921
7730569259
7730575668
7730582687
7730588180
7730597519
7730603500
7730610214
7730615097
7730622177
7730628463
7730633285
7730639694
7730646774
7730651779
7730658004
7730662826
7730670150
7730675705
7730680587
7730688766
7730694808
7730701095
7730706954
7730711227
7730717819
7730723800
7730729598
7730735702
7730741500
7730747909
7730754135
7730760360
7730764694
7730770919
7730776595
7730783187
7730789779
7730794906
7730801131
7730807296
7730812179
7730819198
7730824447
7730830733
7730835738
7730842879
7730849166
7730856185
7730861983
7730868087
7730876266
7730881698
7730888412
7730893966
7730901229
7730906661
7730912093
7730918013
7730925338
7730930220
7730934615
7730940841
7730945357
7730951583
7730956282
7730964339
7730969832
7730974959
7730980330
7730985579
7730990950
7730996077
7731004073
7731009566
7731016158
7731020796
7731027022
7731031539
7731038008
7731042708
7731051009
7731055769
7731061202
7731067793
7731073164
7731078719
7731082808
7731091597
7731097639
7731103926
7731108443
7731115462
7731121077
7731127852
7731134322
7731140608
7731144331
7731152754
7731158552
7731164595
7731170820
7731176924
7731184797
7731189619
7731195967
7731202376
7731209089
7731214033
7731220747
7731225752
7731233686
7731239058
7731245771
7731251509
7731257429
7731262495
7731268782
7731274092
7731283552
7731289961
7731294477
7731300398
7731306257
7731313093
7731318952
7731325971
7731332746
7731339582
7731344892
7731353071
7731360151
7731366926
7731373029
7731379255
7731386579
7731391462
7731399580
7731404401
7731412397
7731417890
7731426801
7731434186
7731441144
7731446699
7731454755
7731462324
7731468671
7731474470
7731483014
7731488691
7731495405
7731500715
7731507856
7731513471
7731521100
7731527387
7731534406
7731541059
7731547406
7731551191
7731559003
7731565717
7731572126
7731579267
7731585736
7731591840
7731598310
7731605023
7731611493
7731618024
7731622479
7731631146
7731637799
7731643903
7731648786
7731655927
7731661542
7731667889
7731675092
7731681867
7731689069
7731693524
7731699872
7731706219
7731712018
7731719037
7731725995
7731733380
7731739423
7731745038
7731752911
7731758465
7731764691
7731772015
7731780133
7731786114
7731792523
7731798077
7731805890
7731811261
7731817608
7731823224
7731832196
7731838726
7731844220
7731849713
7731857525
7731863140
7731871380
7731877728
7731886029
7731893719
7731900982
7731907452
7731914776
7731923199
7731928570
7731936382
7731945660
7731951458
7731959149
7731966961
7731974285
7731979717
7731986065
7731993267
7732002483
7732008465
7732016338
7732023907
7732030132
7732037884
7732045208
7732051067
7732056682
7732067669
7732075237
7732084270
7732094463
7732104229
7732111858
7732121685
7732129924
7732136699
7732146465
7732153484
7732161846
7732169048
7732177166
7732183086
7732192119
7732200786
7732207073
7732212993
7732221782
7732227703
7732236247
7732243999
7732251506
7732259807
7732267986
7732273784
7732281413
7732289226
7732293925
7732302104
7732308879
7732318401
7732325664
7732332927
7732339458
7732346660
7732355144
7732361552
7732367412
7732378459
7732385478
7732391704
7732399638
7732405742
7732413432
7732418864
7732427165
7732431987
7732443461
7732448344
7732458720
7732463420
7732471659
7732478190
7732486857
7732493388
7732504374
7732511271
7732517130
7732525309
7732532816
7732538676
7732546122
7732553874
7732561198
7732569315
7732577250
7732585917
7732594828
7732604838
7732612589
7732619486
7732628336
7732637614
7732644938
7732653177
7732658121
7732668070
7732675821
7732685038
7732692728
7732701395
7732708597
7732716288
7732722635
7732732157
7732738321
7732746927
7732755350
7732763224
7732771219
7732779154
7732785623
7732795511
7732802347
7732813822
7732820658
7732830667
7732837564
7732846231
7732851968
7732860330
7732866678
7732874857
7732880899
7732889627
7732899332
7732904337
7732915750
7732920877
7732931802
7732936990
7732948221
7732953165
7732964517
7732970071
7732979165
7732985635
7732994058
7733000711
7733006997
7733015664
7733022561
7733032083
7733037149
7733044839
7733051065
7733057107
7733065164
7733072976
7733082559
7733088601
7733097329
7733107095
7733118142
7733125405
7733132485
7733138589
7733146951
7733155740
7733163796
7733170571
7733178628
7733185586
7733194802
7733201638
7733210366
7733217202
7733225198
7733231057
7733240639
7733246438
7733253029
7733261025
7733269509
7733277688
7733286294
7733292885
7733301796
7733311806
7733318825
7733327919
7733336708
7733343789
7733354042
7733362404
7733368447
7733376808
7733385964
7733395241
7733402931
7733411293
7733418251
7733426064
7733432717
7733440346
7733446205
7733455177
7733461281
7733470070
7733479103
7733485024
7733492836
7733500221
7733506447
7733510963
7733521828
7733526710
7733535988
7733540932
7733553322
7733558143
7733566322
7733572853
7733581093
7733587562
7733596657
7733604042
7733612404
7733618019
7733625404
7733633278
7733640174
7733645790
7733654335
7733661720
7733667762
7733675514
7733683815
7733688758
7733695167
7733702186
7733710182
7733714637
7733722816
7733730384
7733736488
7733742774
7733747169
7733756812
7733761695
7733767616
7733772315
7733779456
7733784461
7733790870
7733795936
7733802650
7733808936
7733814613
7733820777
7733826575
7733832252
7733837989
7733844459
7733851111
7733856421
7733862769
7733868201
7733872596
7733879615
7733886023
7733892676
7733896155
7733903663
7733908606
7733913794
7733916907
7733924170
7733930335
7733935767
7733942176
7733948218
7733954016
7733958472
7733965491
7733971411
7733977820
7733983130
7733988257
7733993933
7733999671
7734004981
7734011084
7734017371
7734022681
7734028479
7734033850
7734039160
7734042334
7734050086
7734056250
7734061865
7734067908
7734073767
7734079810
7734084387
7734090857
7734095557
7734102820
7734108557
7734114111
7734119238
7734125342
7734130896
7734136511
7734142981
7734148779
7734155127
7734161658
7734167151
7734173681
7734179236
7734184118
7734193213
7734197058
7734204382
7734211218
7734217260
7734223059
7734230200
7734237646
7734245031
7734252478
7734258642
7734266455
7734275793
7734282568
7734290686
7734298681
7734304235
7734310705
7734316198
7734321081
7734328527
7734333715
7734342931
7734347265
7734355138
7734358801
7734366918
7734370519
7734378210
7734384985
7734392858
7734399267
7734405248
7734410436
7734416357
7734421667
7734427587
7734435094
7734441869
7734446691
7734453100
7734459386
7734464330
7734470800
7734475805
7734484655
7734490819
7734496923
7734502721
7734509130
7734512853
7734520238
7734526220
7734535436
7734541478
7734547399
7734553563
7734559484
7734564000
7734569860
7734577184
7734583837
7734591344
7734597081
7734603368
7734609105
7734614964
7734622167
7734628453
7734635533
7734641454
7734646764
7734652806
7734658604
7734664525
7734671849
7734678624
7734684239
7734690709
7734696446
7734703282
7734710789
7734716466
7734722447
7734730565
7734735570
7734741551
7734750096
7734756810
7734762669
7734768773
7734777745
7734784947
7734792393
7734799046
7734804600
7734811314
7734818821
7734823094
7734832920
7734840001
7734848729
7734856907
7734864537
7734871311
7734878697
7734883396
7734893711
7734900303
7734907078
7734914219
7734921848
7734928684
7734935276
7734942234
7734949009
7734956211
7734962681
7734969151
7734975742
7734982578
7734987644
7734995518
7735003147
7735008518
7735014927
7735021763
7735026829
7735035251
7735040378
7735049961
7735054966
7735062046
7735066929
7735075535
7735080539
7735086948
7735094150
7735102878
7735109043
7735117160
7735125522
7735131382
7735138218
7735146030
7735152133
7735157199
7735169406
7735176975
7735184604
7735190158
7735197971
7735205417
7735213168
7735217624
7735228732
7735233920
7735242587
7735249118
7735256870
7735262729
7735270663
7735276767
7735286472
7735292148
7735299106
7735306796
7735314365
7735322238
7735328158
7735335971
7735343600
7735351840
7735359958
7735365817
7735373202
7735379428
7735386203
7735395297
7735402560
7735410128
7735417331
7735427462
7735435946
7735443331
7735450473
7735461459
7735466952
7735479159
7735484530
7735495211
7735499789
7735508822
7735516451
7735523043
7735529574
7735539828
7735544650
7735553011
7735559542
7735567904
7735573763
7735581881
7735588412
7735600863
7735608553
7735615938
7735625338
7735632479
7735639437
7735648897
7735656954
7735666720
7735672701
7735682039
7735688509
7735696932
7735706636
7735712984
7735719820
7735729097
7735736361
7735744295
7735751253
7735759249
7735765840
7735774385
7735781099
7735790682
7735797762
7735804476
7735811067
7735818941
7735827303
7735833894
7735839754
7735850252
7735857454
7735865144
7735871004
7735878206
7735886079
7735892488
7735900362
7735906892
7735916353
7735921052
7735931734
7735937349
7735945100
7735952608
7735959382
7735966401
7735978181
7735985444
7735995210
7736002656
7736008638
7736015290
7736024507
7736031404
7736039704
7736046479
7736053376
7736062165
7736068147
7736074067
7736082978
7736090974
7736100556
7736107026
7736115754
7736125092
7736131745
7736141267
7736149629
7736157624
7736166352
7736175141
7736183259
7736190400
7736200227
7736205353
7736215302
7736221284
7736232270
7736240082
7736246491
7736253510
7736261262
7736268830
7736277436
7736284516
7736294281
7736301484
7736309357
7736316315
7736324677
7736333588
7736339325
7736348786
7736357086
7736361664
7736372040
7736377167
7736387360
7736395966
7736405670
7736412323
7736422821
7736429901
7736440521
7736449127
7736455841
7736465240
7736473724
7736482086
7736490204
7736498138
7736504730
7736513153
7736519195
7736528229
7736537018
7736546295
7736552154
7736559967
7736569183
7736576996
7736584015
7736591705
7736597870
7736609649
7736617828
7736624603
7736631256
7736640228
7736645477
7736653717
7736661468
7736668121
7736675994
7736680816
7736688384
7736693206
7736700286
7736707794
7736715118
7736721343
7736727142
7736733672
7736741119
7736748199
7736754607
7736761504
7736767913
7736774078
7736778899
7736785247
7736791961
7736798186
7736804534
7736810699
7736817107
7736823760
7736829253
7736835967
7736841826
7736846770
7736855071
7736860259
7736867278
7736872527
7736879241
7736886016
7736891814
7736896941
7736904265
7736909453
7736916838
7736921599
7736927642
7736932647
7736939666
7736945220
7736952117
7736957061
7736962676
7736969451
7736974150
7736980559
7736985381
7736992522
7736999541
7737004790
7737009612
7737015166
7737021636
7737026640
7737035307
7737040740
7737047942
7737051482
7737059904
7737066252
7737074187
7737079802
7737089751
7737095976
7737102324
7737108183
7737114348
7737120329
7737126066
7737133879
7737138762
7737145231
7737152067
7737157194
7737163664
7737168669
7737176359
7737182158
7737188017
7737194914
7737200834
7737206633
7737213102
7737220182
7737225065
7737232023
7737238493
7737245939
7737251005
7737258757
7737265776
7737272856
7737279997
7737285978
7737291593
7737299711
7737305265
7737311491
7737319730
7737326933
7737330900
7737339140
7737345548
7737352567
7737356351
7737365263
7737371610
7737378751
7737385465
7737392118
7737395841
7737404081
7737411466
7737417936
7737424955
7737429899
7737437589
7737444242
7737449979
7737455411
7737463285
7737469388
7737476529
7737481046
7737488065
7737494352
7737500516
7737506986
7737513761
7737519925
7737527311
7737534452
7737540128
7737547330
7737552701
7737559781
7737565274
7737572843
7737578458
7737586026
7737591580
7737598538
7737606351
7737612882
7737616727
7737626248
7737630032
7737638333
7737645963
7737653165
7737660184
7737665677
7737674527
7737679837
7737689969
7737695157
7737703213
7737712247
7737718594
7737725735
7737732388
7737737515
7737743924
7737749844
7737754910
7737761929
7737767239
7737776089
7737779812
7737787137
7737792691
7737798977
7737804959
7737810818
7737817837
7737824002
7737830227
7737836087
7737842007
7737847988
7737853421
7737859890
7737867764
7737875271
7737881680
7737888699
7737894741
7737900295
7737907559
7737913296
7737920559
7737926601
7737933193
7737940456
7737949978
7737955654
7737964809
7737974270
7737983425
7737989101
7737996181
7738003872
7738011257
7738017238
7738024502
7738033657
7738039211
7738047878
7738053615
7738061184
7738067959
7738076320
7738081142
7738090908
7738098537
7738106105
7738113491
7738121242
7738128688
7738134609
7738144008
7738152553
7738158229
7738166835
7738174526
7738180995
7738189113
7738195888
7738204555
7738211818
7738220241
7738227504
7738235988
7738244350
7738251613
7738260097
7738267543
7738277187
7738283534
7738291225
7738298976
7738306850
7738316554
7738324306
7738333461
7738342250
7738354396
7738359096
7738369716
7738377711
7738388697
7738393885
7738405116
7738409632
7738420131
7738424891
7738433497
7738440028
7738452174
7738461207
7738467799
7738475123
7738483424
7738488246
7738496668
7738502894
7738510890
7738517176
7738526453
7738531092
7738539027
7738545496
7738553736
7738562769
7738571436
7738578333
7738585657
7738592066
7738599757
7738605677
7738614161
7738619959
7738629847
7738638025
7738644800
7738652247
7738662195
7738669397
7738676661
7738685938
7738693262
7738702356
7738709131
7738715662
7738724268
7738732630
7738739832
7738748255
7738757593
7738764002
7738772608
7738780908
7738786829
7738794092
7738802637
7738808740
7738816797
7738825037
7738832544
7738840540
7738846277
7738855310
7738864343
7738870569
7738879907
7738888025
7738893701
7738901941
7738910181
7738918603
7738924829
7738932763
7738941308
7738947229
7738955774
7738964074
7738972314
7738978540
7738987146
7738993188
7739002710
7739008813
7739017480
7739026452
7739034204
7739040917
7739048913
7739055139
7739065270
7739074609
7739081445
7739087670
7739097009
7739106652
7739114526
7739124230
7739132592
7739141686
7739153283
7739160607
7739169274
7739176354
7739184411
7739193810
7739202477
7739208703
7739217492
7739223839
7739232384
7739240746
7739246972
7739256066
7739261071
7739271691
7739279564
7739287316
7739294579
7739302391
7739309349
7739317772
7739324059
7739332665
7739340966
7739347557
7739356102
7739364159
7739370690
7739378807
7739387657
7739392845
7739403160
7739410301
7739418175
7739425194
7739432762
7739441856
7739448265
7739456810
7739465660
7739472252
7739481590
7739487938
7739497032
7739503380
7739512779
7739519432
7739528221
7739535911
7739543052
7739552086
7739559288
7739566734
7739575950
7739581932
7739591148
7739598899
7739607505
7739614097
7739622703
7739628624
7739638633
7739644554
7739653892
7739662681
7739671165
7739677024
7739686118
7739691306
7739701866
7739708946
7739716636
7739723594
7739731040
7739739768
7739746787
7739752280
7739759360
7739766685
7739774375
7739779624
7739788962
7739794395
7739801719
7739807151
7739813499
7739818870
7739826377
7739831809
7739839927
7739845847
7739851890
7739857078
7739863669
7739868857
7739876059
7739881553
7739890281
7739894065
7739905600
7739913901
7739920676
7739927878
7739934104
7739941611
7739949973
7739955100
7739963156
7739969138
7739974631
7739980673
7739986228
7739992148
7739997702
7740003867
7740010031
7740014853
7740020529
7740027243
7740033408
7740038840
7740043662
7740050253
7740054953
7740062216
7740065512
7740073263
7740079916
7740085532
7740091879
7740098776
7740104452
7740109152
7740117026
7740122519
7740128439
7740134054
7740139731
7740145102
7740152060
7740157614
7740163351
7740169149
7740174826
7740180807
7740187277
7740192343
7740198629
7740204184
7740210592
7740216085
7740222494
7740229147
7740234213
7740241171
7740247152
7740253195
7740260641
7740266561
7740271749
7740277670
7740281820
7740289327
7740297689
7740302694
7740310690
7740315633
7740323446
7740328329
7740336446
7740344259
7740350118
7740355672
7740364400
7740368185
7740375753
7740383077
7740389608
7740396383
7740403341
7740409383
7740416097
7740422017
7740427144
7740434041
7740441793
7740448201
7740454793
7740461080
7740467733
7740475850
7740482442
7740489949
7740500753
7740508626
7740514547
7740520772
7740528646
7740534993
7740540608
7740548055
7740555806
7740560811
7740568440
7740573384
7740581014
7740586080
7740594258
7740600850
7740607076
7740613912
7740620198
7740626912
7740633565
7740638448
7740646260
7740652669
7740658833
7740665364
7740669942
7740677266
7740684163
7740690571
7740697652
7740704060
7740711751
7740716694
7740724141
7740730671
7740736897
7740743855
7740750203
7740757405
7740763752
7740771748
7740777241
7740782795
7740791890
7740795796
7740804036
7740810749
7740817158
7740824055
7740830464
7740837178
7740843403
7740851643
7740859150
7740865254
7740871357
7740878193
7740884968
7740890949
7740897724
7740905354
7740911762
7740920124
7740927204
7740933674
7740941975
7740948322
7740956440
7740965229
7740976032
7740983356
7740992695
7740999409
7741009968
7741019062
7741027302
7741034443
7741040424
7741047260
7741053241
7741060627
7741066120
7741075397
7741081440
7741087482
7741094135
7741100605
7741107074
7741113544
7741127582
7741135150
7741141864
7741150043
7741154132
7741163410
7741170123
7741178790
7741185809
7741192767
7741199298
7741205829
7741212543
7741219928
7741227741
7741232806
7741240985
7741248431
7741255695
7741260883
7741269366
7741278827
7741285724
7741293475
7741302081
7741309222
7741315753
7741322894
7741331561
7741336932
7741343341
7741348834
7741356830
7741362323
7741369159
7741374713
7741382830
7741388385
7741396746
7741400775
7741408709
7741416583
7741423175
7741430560
7741437518
7741442523
7741451312
7741456439
7741465472
7741471881
7741481524
7741489275
7741497027
7741501727
7741511675
7741516192
7741525591
7741532183
7741539385
7741546038
7741554583
7741561114
7741569048
7741577349
7741583514
7741591753
7741597613
7741606158
7741613482
7741621660
7741627825
7741636492
7741643328
7741651873
7741657915
7741667009
7741671953
7741682634
7741690630
7741699053
7741704119
7741713091
7741719499
7741730181
7741737261
7741747576
7741754595
7741765886
7741771013
7741781694
7741788835
7741797075
7741803972
7741813432
7741819780
7741828386
7741837053
7741844255
7741853776
7741861101
7741870500
7741877641
7741890397
7741899858
7741906145
7741914384
7741922563
7741930620
7741939409
7741948015
7741953813
7741962785
7741969011
7741975236
7741982866
7741988908
7741996171
7742004533
7742010392
7742018510
7742024919
7742033525
7742042375
7742049455
7742057878
7742062882
7742073075
7742081193
7742088578
7742095841
7742103898
7742111161
7742119035
7742125443
7742135514
7742141923
7742147721
7742157975
7742163834
7742173783
7742179093
7742189164
7742197709
7742206071
7742211136
7742220841
7742228104
7742237137
7742244278
7742252274
7742258561
7742267716
7742276871
7742284623
7742290909
7742299881
7742306473
7742315445
7742321793
7742331070
7742337418
7742345413
7742353714
7742361954
7742368179
7742375321
7742383743
7742393204
7742402298
7742409317
7742417435
7742423904
7742432388
7742438797
7742447830
7742456375
7742463272
7742471939
7742477859
7742487320
7742496048
7742502456
7742509476
7742517654
7742529251
7742537735
7742543045
7742552566
7742560379
7742568435
7742573379
7742582901
7742591934
7742600235
7742606094
7742614578
7742620132
7742630264
7742638687
7742646865
7742655166
7742665115
7742678298
7742685561
7742694534
7742702346
7742711074
7742718093
7742730239
7742738357
7742746658
7742753921
7742763076
7742771621
7742778945
7742787429
7742795608
7742804030
7742809951
7742819106
7742824172
7742834792
7742839980
7742848708
7742857985
7742864882
7742873854
7742880935
7742887038
7742894606
7742902663
7742909316
7742914443
7742922194
7742927199
7742935134
7742940444
7742947096
7742952468
7742959059
7742964308
7742971633
7742977004
7742984328
7742990431
7742998244
7743002211
7743010207
7743014113
7743024367
7743028883
7743036513
7743040846
7743047743
7743054152
7743060377
7743067946
7743074049
7743081434
7743086195
7743093764
7743098646
7743106154
7743111036
7743118788
7743125563
7743131361
7743138197
7743144056
7743149183
7743156141
7743162367
7743169447
7743175123
7743179274
7743186354
7743190931
7743197340
7743202345
7743209059
7743215406
7743220838
7743227369
7743232069
7743238355
7743245741
7743251356
7743256788
7743262098
7743267652
7743273451
7743279737
7743284742
7743292494
7743297804
7743303236
7743308851
7743315809
7743322034
7743328870
7743336500
7743342664
7743349744
7743356214
7743362134
7743369031
7743375562
7743382459
7743388990
7743394849
7743399427
7743406568
7743413099
7743419019
7743423963
7743430982
7743435987
7743443494
7743449476
7743455945
7743459851
7743468274
7743475904
7743482495
7743489148
7743495923
7743503186
7743509900
7743515637
7743523633
7743531446
7743536817
7743544568
7743549939
7743557324
7743562756
7743569165
7743576428
7743583753
7743589307
7743597241
7743603589
7743610181
7743616345
7743623975
7743628674
7743635815
7743643201
7743649792
7743656628
7743663159
7743668408
7743675122
7743683972
7743688977
7743695935
7743702405
7743708752
7743715710
7743721325
7743727734
7743734265
