8461163825
8461169440
8461174628
8461178412
8461184332
8461189704
8461195075
8461201422
8461207709
8461214362
8461221259
8461227789
8461236578
8461244147
8461250555
8461256476
8461262946
8461270636
8461276434
8461281744
8461288702
8461296393
8461302252
8461308661
8461313788
8461322455
8461329657
8461335699
8461342352
8461350592
8461355963
8461363714
8461372809
8461379278
8461385748
8461393438
8461400946
8461408575
8461417181
8461424261
8461430975
8461440069
8461446478
8461455206
8461461492
8461468633
8461476019
8461484136
8461491400
8461497747
8461505316
8461514349
8461521124
8461528021
8461536504
8461543523
8461551275
8461558538
8461565069
8461572393
8461580267
8461587957
8461593145
8461602056
8461610906
8461618169
8461627447
8461634954
8461642827
8461650640
8461658025
8461665410
8461671941
8461682866
8461691350
8461699529
8461708440
8461715581
8461723272
8461730657
8461740117
8461747136
8461755620
8461762944
8461768071
8461779607
8461790349
8461799748
8461807988
8461815617
8461823247
8461832646
8461839482
8461848454
8461855168
8461864262
8461870000
8461878300
8461885808
8461895512
8461902409
8461910954
8461917424
8461925725
8461934025
8461943608
8461953740
8461960270
8461966740
8461976994
8461984929
8461993229
8462001469
8462009709
8462015751
8462025517
8462033757
8462040776
8462049931
8462059574
8462067448
8462076847
8462083622
8462093449
8462101017
8462108830
8462116642
8462123051
8462131474
8462141789
8462149906
8462157230
8462163090
8462170536
8462177738
8462185123
8462193058
8462200321
8462210270
8462216801
8462224796
8462231815
8462239139
8462247196
8462257389
8462265018
8462271976
8462279239
8462288334
8462295169
8462302982
8462311283
8462318851
8462325992
8462331668
8462341007
8462348941
8462356815
8462365787
8462371707
8462379154
8462388370
8462396060
8462405155
8462414615
8462423831
8462436404
8462450198
8462459537
8462466495
8462476443
8462486575
8462492740
8462503116
8462510013
8462519473
8462527225
8462535159
8462544131
8462550357
8462558291
8462567141
8462573855
8462582217
8462590640
8462599185
8462606204
8462614260
8462622073
8462628604
8462636660
8462645510
8462651309
8462659854
8462668704
8462675906
8462683962
8462691226
8462699099
8462709231
8462716189
8462726016
8462732180
8462740847
8462749941
8462756045
8462765383
8462773989
8462781863
8462790102
8462798891
8462807375
8462815676
8462824587
8462833559
8462841005
8462848452
8462853396
8462863955
8462872683
8462879824
8462888613
8462895815
8462903810
8462911867
8462920717
8462930239
8462938967
8462946474
8462954592
8462962526
8462970400
8462978517
8462987184
8462997194
8463006349
8463014833
8463023683
8463031068
8463037782
8463045290
8463054872
8463063051
8463070680
8463076112
8463084230
8463091981
8463100404
8463113405
8463122194
8463130861
8463138917
8463147096
8463155336
8463166017
8463174501
8463182252
8463190797
8463197877
8463205751
8463214479
8463223512
8463230958
8463238099
8463245668
8463253785
8463260926
8463268800
8463276307
8463283692
8463288941
8463297669
8463306275
8463312135
8463319398
8463327271
8463335328
8463341859
8463350587
8463357545
8463365113
8463373231
8463381776
8463386231
8463397156
8463405518
8463413575
8463420960
8463426636
8463434754
8463443177
8463451478
8463458497
8463466919
8463473206
8463480835
8463488892
8463497010
8463504029
8463512085
8463518189
8463526551
8463533020
8463539002
8463545594
8463552552
8463560059
8463564820
8463571655
8463578736
8463583862
8463590759
8463596924
8463604492
8463610779
8463617188
8463623962
8463627930
8463637207
8463644287
8463651855
8463658630
8463664429
8463671631
8463675842
8463683899
8463690430
8463697327
8463703735
8463710022
8463718750
8463724792
8463730896
8463737793
8463742859
8463751342
8463758056
8463765258
8463771728
8463778869
8463786132
8463797546
8463805420
8463812377
8463818359
8463825744
8463830261
8463836975
8463845458
8463852600
8463858398
8463863525
8463870361
8463877014
8463883666
8463890746
8463898376
8463905700
8463913268
8463919494
8463926208
8463934325
8463941589
8463950561
8463954955
8463962829
8463969298
8463976256
8463981811
8463989928
8463997558
8464003539
8464010436
8464016051
8464023681
8464030089
8464035888
8464041747
8464051146
8464056884
8464064208
8464071898
8464077575
8464084288
8464089660
8464098571
8464105040
8464111754
8464117369
8464125243
8464132201
8464139159
8464147704
8464155333
8464162291
8464169005
8464177489
8464183531
8464192015
8464202757
8464208556
8464216734
8464224181
8464231322
8464239622
8464246214
8464254210
8464261107
8464268187
8464277952
8464284788
8464292418
8464299437
8464305479
8464312987
8464321837
8464331114
8464339049
8464345091
8464355162
8464367186
8464374449
8464381773
8464391966
8464398863
8464407530
8464414122
8464422178
8464429136
8464436582
8464444517
8464453855
8464461912
8464470335
8464477354
8464484678
8464492002
8464499693
8464507200
8464515073
8464522520
8464531126
8464538511
8464547422
8464554746
8464560789
8464568723
8464576658
8464584470
8464591306
8464599363
8464606565
8464611265
8464620542
8464628660
8464636350
8464643491
8464651975
8464658811
8464666623
8464672788
8464679807
8464688596
8464696225
8464701413
8464710508
8464716855
8464723569
8464731809
8464738217
8464744748
8464755124
8464761899
8464768674
8464776914
8464783444
8464791562
8464794797
8464806882
8464815366
8464822751
8464829404
8464837704
8464844479
8464850522
8464858273
8464863950
8464875363
8464881833
8464890134
8464896725
8464902524
8464911740
8464919247
8464925168
8464934994
8464943905
8464950314
8464956601
8464964413
8464971798
8464979367
8464985165
8464995663
8465003109
8465012448
8465020199
8465027462
8465033505
8465042172
8465048825
8465057186
8465063290
8465071285
8465079586
8465086910
8465093380
8465100826
8465106991
8465116512
8465123592
8465130367
8465138973
8465146664
8465153316
8465158993
8465168697
8465177547
8465184566
8465193600
8465200558
8465207393
8465213497
8465222286
8465229549
8465239254
8465246944
8465254451
8465263118
8465268856
8465277950
8465285091
8465292598
8465299984
8465306819
8465315120
8465321834
8465328609
8465337093
8465343563
8465350032
8465358211
8465367610
8465374385
8465382625
8465389705
8465396419
8465403499
8465410396
8465419978
8465429073
8465435725
8465442256
8465451350
8465457027
8465464412
8465470149
8465481135
8465487483
8465495296
8465501521
8465509761
8465515437
8465523494
8465529353
8465539363
8465547358
8465554377
8465560481
8465565181
8465575984
8465582454
8465592891
8465601496
8465607661
8465616816
8465622981
8465630061
8465638484
8465645686
8465651484
8465662226
8465668635
8465674311
8465684382
8465690974
8465698298
8465704035
8465711298
8465720881
8465728938
8465736933
8465743098
8465750910
8465757624
8465766901
8465772639
8465781916
8465788325
8465796808
8465802668
8465811213
8465817560
8465826288
8465835627
8465842951
8465849299
8465858515
8465865351
8465872431
8465881647
8465888727
8465896173
8465904596
8465911798
8465921015
8465928400
8465935785
8465940546
8465949213
8465957086
8465965814
8465973627
8465981989
8465989130
8465997858
8466004572
8466011530
8466018610
8466027399
8466034540
8466043268
8466049982
8466056818
8466065240
8466073114
8466080255
8466088556
8466095392
8466102838
8466109552
8466118219
8466124750
8466133600
8466141290
8466149652
8466154168
8466161676
8466168084
8466174249
8466180047
8466187310
8466195306
8466203118
8466209954
8466214715
8466221063
8466227899
8466234124
8466240716
8466246942
8466252984
8466258355
8466266046
8466271478
8466278741
8466285211
8466291680
8466296929
8466303338
8466308465
8466313836
8466321648
8466329034
8466334954
8466340935
8466347344
8466353204
8466357842
8466364617
8466372124
8466378533
8466385247
8466390130
8466395867
8466400078
8466406365
8466414361
8466418938
8466426140
8466429314
8466436944
8466442559
8466449028
8466454339
8466461541
8466466607
8466471978
8466478081
8466483940
8466489495
8466496086
8466501519
8466507256
8466514214
8466520012
8466524651
8466531853
8466538933
8466544914
8466550408
8466556938
8466564568
8466569878
8466577263
8466584648
8466590691
8466597282
8466602165
8466609062
8466615105
8466620537
8466628349
8466634087
8466640678
8466645805
8466651665
8466659294
8466663811
8466671135
8466676384
8466683891
8466689751
8466695732
8466702873
8466709404
8466715690
8466721977
8466728325
8466734794
8466741264
8466748161
8466756401
8466762321
8466769340
8466774894
8466779899
8466786552
8466794364
8466800468
8466806755
8466813102
8466818717
8466825675
8466832023
8466838371
8466846733
8466851615
8466857475
8466863883
8466869865
8466877616
8466883048
8466889030
8466896293
8466903434
8466911247
8466915946
8466923392
8466929191
8466936271
8466942008
8466949210
8466954948
8466961356
8466967033
8466973319
8466980033
8466986869
8466991935
8466999076
8467005057
8467010184
8467017081
8467024833
8467029654
8467036307
8467042594
8467048636
8467053519
8467061087
8467066520
8467073294
8467079459
8467087149
8467092459
8467098563
8467105521
8467111563
8467119193
8467125235
8467132315
8467139090
8467143790
8467151175
8467158499
8467164420
8467170889
8467178336
8467185599
8467192008
8467198294
8467203055
8467211539
8467217337
8467223074
8467229666
8467236685
8467242422
8467247488
8467254202
8467261282
8467267691
8467273611
8467277823
8467285330
8467291372
8467296377
8467305227
8467312002
8467317862
8467323843
8467332449
8467336966
8467345511
8467353933
8467361380
8467368521
8467377005
8467385550
8467391348
8467402334
8467408865
8467416555
8467423147
8467431265
8467439260
8467444265
8467451834
8467460134
8467467153
8467474844
8467481863
8467488332
8467493887
8467500356
8467508413
8467516103
8467522085
8467530508
8467535940
8467544729
8467550405
8467557668
8467565725
8467573537
8467581167
8467588003
8467596120
8467603261
8467609853
8467617177
8467624746
8467633107
8467639943
8467647817
8467653920
8467662709
8467669301
8467676259
8467683400
8467693959
8467700856
8467708181
8467715016
8467723134
8467730336
8467738515
8467746327
8467756276
8467764516
8467771657
8467780751
8467789174
8467797109
8467805592
8467812917
8467820424
8467827565
8467836903
8467844594
8467851369
8467858388
8467868153
8467874745
8467883046
8467891652
8467897572
8467906483
8467912343
8467920521
8467930470
8467939869
8467951771
8467961842
8467969960
8467979908
8467989796
8467996998
8468005177
8468012440
8468019459
8468026905
8468031971
8468039051
8468045521
8468052357
8468059803
8468065357
8468073475
8468077564
8468086475
8468092518
8468099537
8468107044
8468113758
8468119251
8468125843
8468130421
8468138599
8468145496
8468151112
8468160084
8468166187
8468173023
8468178577
8468184864
8468190479
8468198353
8468205433
8468212879
8468219593
8468226856
8468233997
8468241871
8468249256
8468257984
8468265613
8468272632
8468279224
8468287830
8468295520
8468301929
8468310779
8468319141
8468326770
8468333118
8468341724
8468348194
8468356311
8468363574
8468371143
8468379138
8468385669
8468393909
8468399951
8468409045
8468414844
8468422107
8468427905
8468438830
8468445056
8468453174
8468458972
8468467578
8468473559
8468482593
8468488513
8468500964
8468508471
8468516955
8468523913
8468531604
8468538318
8468547412
8468555713
8468565966
8468572619
8468581897
8468586779
8468597338
8468606433
8468614550
8468621935
8468628955
8468634570
8468645556
8468651599
8468660632
8468666918
8468676196
8468684435
8468695055
8468705676
8468710314
8468718615
8468725634
8468732409
8468740954
8468749438
8468757677
8468763598
8468771349
8468778979
8468784594
8468792162
8468801073
8468808092
8468813097
8468821825
8468829454
8468835863
8468844286
8468849840
8468857653
8468865587
8468873339
8468879503
8468887377
8468893175
8468900804
8468908678
8468917894
8468924425
8468932176
8468938890
8468946031
8468954027
8468961168
8468967088
8468973802
8468981920
8468987047
8468995775
8469001329
8469008958
8469017137
8469025255
8469032274
8469042284
8469049730
8469055040
8469062669
8469067613
8469074998
8469080247
8469087449
8469093919
8469101182
8469106614
8469112596
8469118394
8469124620
8469131395
8469137925
8469143785
8469148790
8469155198
8469160020
8469167222
8469174607
8469181016
8469188218
8469194871
8469201097
8469206651
8469214952
8469221360
8469228196
8469234849
8469242051
8469248033
8469255601
8469261033
8469269456
8469276597
8469283067
8469287766
8469293565
8469300034
8469304917
8469311814
8469317368
8469323655
8469328049
8469334641
8469339646
8469344834
8469352585
8469358079
8469364426
8469369248
8469375107
8469381699
8469386338
8469393723
8469398728
8469405747
8469411362
8469416611
8469422043
8469426804
8469434250
8469439499
8469445298
8469450547
8469455246
8469460129
8469466172
8469472824
8469479111
8469485031
8469489609
8469495529
8469502304
8469508774
8469514939
8469521225
8469526962
8469531601
8469538864
8469543930
8469549729
8469556442
8469562302
8469569321
8469574570
8469580429
8469586960
8469593979
8469600754
8469606247
8469613388
8469619064
8469625534
8469632187
8469638534
8469646225
8469653122
8469658981
8469664291
8469670883
8469678085
8469684189
8469690658
8469697494
8469702743
8469709640
8469715805
8469723068
8469728012
8469735092
8469742294
8469749496
8469756332
8469762863
8469769393
8469775192
8469784652
8469790878
8469797897
8469804183
8469811630
8469816635
8469823654
8469830184
8469837203
8469843734
8469850082
8469857650
8469863326
8469870773
8469877242
8469883407
8469891463
8469896407
8469903060
8469908553
8469915572
8469921981
8469928451
8469934249
8469940414
8469947188
8469952621
8469961043
8469967330
8469974715
8469980819
8469988204
8469994796
8469999373
8470008101
8470015059
8470022139
8470028731
8470035811
8470044234
8470049605
8470056441
8470064193
8470070418
8470076827
8470084090
8470090865
8470096480
8470104659
8470110945
8470119063
8470124739
8470131575
8470138167
8470144637
8470152876
8470158125
8470164839
8470171309
8470177718
8470184187
8470190657
8470202803
8470208662
8470215010
8470223494
8470229231
8470237471
8470244368
8470251692
8470258284
8470266340
8470272688
8470280806
8470287520
8470293257
8470299299
8470306807
8470314985
8470321577
8470326338
8470336775
8470344587
8470351362
8470360762
8470367292
8470375959
8470382307
8470390730
8470397200
8470405256
8470410932
8470419905
8470428816
8470434858
8470441999
8470450361
8470457563
8470462202
8470471418
8470478742
8470486189
8470493085
8470498762
8470507124
8470512250
8470518476
8470525434
8470533674
8470539716
8470547163
8470552900
8470560041
8470566389
8470572187
8470579511
8470588239
8470595685
8470602582
8470608686
8470615888
8470623578
8470632306
8470641217
8470647992
8470656476
8470661847
8470670087
8470677472
8470685224
8470695600
8470701459
8470710065
8470717999
8470725141
8470731183
8470739545
8470744122
8470753156
8470760846
8470766827
8470773785
8470782086
8470786359
8470794843
8470803265
8470810101
8470817487
8470824872
8470832562
8470840436
8470845318
8470853619
8470866315
8470876080
8470883954
8470890179
8470898663
8470905621
8470912152
8470919903
8470926861
8470934369
8470941204
8470948468
8470955365
8470962506
8470969830
8470979046
8470985821
8470995159
8471001080
8471009197
8471015362
8471021710
8471031353
8471040203
8471047833
8471056255
8471062603
8471070843
8471079693
8471087994
8471096783
8471105267
8471112957
8471119915
8471126812
8471134807
8471141338
8471149273
8471157574
8471166363
8471173992
8471181927
8471190777
8471199627
8471208233
8471214702
8471224529
8471231731
8471239483
8471247722
8471254497
8471261699
8471268718
8471275371
8471285686
8471292766
8471300456
8471307109
8471313884
8471319805
8471328472
8471337688
8471344463
8471353191
8471359050
8471367595
8471373393
8471382610
8471388896
8471398662
8471406474
8471414287
8471422099
8471429607
8471436870
8471441630
8471451579
8471462199
8471470195
8471477946
8471484294
8471488994
8471499370
8471504985
8471513652
8471522075
8471530253
8471535991
8471544474
8471549540
8471558757
8471565837
8471574015
8471585368
8471591349
8471600077
8471608439
8471615397
8471622721
8471628825
8471637858
8471646769
8471652995
8471662089
8471670451
8471677775
8471683756
8471693888
8471701640
8471711039
8471721842
8471728739
8471736979
8471745524
8471751383
8471760111
8471767191
8471777201
8471780558
8471793863
8471801798
8471808024
8471817179
8471825724
8471834574
8471843119
8471851847
8471859293
8471867166
8471875528
8471884134
8471891580
8471901529
8471909647
8471919351
8471927164
8471934671
8471939432
8471948282
8471956766
8471965677
8471971353
8471980386
8471989175
8471997354
8472004556
8472012003
8472019815
8472026346
8472032876
8472040506
8472044717
8472050149
8472057229
8472063882
8472071023
8472077005
8472081460
8472088540
8472093179
8472100564
8472107156
8472113443
8472119546
8472125039
8472130899
8472136758
8472142678
8472149270
8472155923
8472161965
8472167215
8472173074
8472180154
8472185403
8472193032
8472198342
8472205850
8472209817
8472217019
8472220376
8472228433
8472234231
8472240762
8472248025
8472254556
8472259194
8472263528
8472270425
8472275674
8472280618
8472288674
8472295571
8472300759
8472311867
8472317422
8472323586
8472328713
8472335549
8472340920
8472346718
8472353188
8472359109
8472364663
8472371132
8472377175
8472382851
8472388344
8472393776
8472399148
8472405373
8472411171
8472417641
8472424660
8472432290
8472437661
8472443520
8472450661
8472458290
8472463723
8472471352
8472477028
8472483254
8472488930
8472496132
8472502175
8472508095
8472514015
8472520973
8472525673
8472532570
8472539284
8472545876
8472552651
8472558266
8472566139
8472572548
8472578835
8472585121
8472592201
8472598183
8472603676
8472611671
8472617470
8472623695
8472631874
8472638344
8472643043
8472648964
8472655250
8472661354
8472667396
8472674354
8472683632
8472687477
8472694740
8472700477
8472707313
8472714821
8472720314
8472726722
8472734169
8472739601
8472745460
8472751869
8472758338
8472763465
8472772743
8472778236
8472785255
8472790565
8472796974
8472804786
8472809730
8472816200
8472823341
8472829872
8472836280
8472843238
8472849464
8472857398
8472865638
8472873695
8472879554
8472884620
8472891517
8472896705
8472904212
8472911353
8472917762
8472924049
8472930945
8472937964
8472943519
8472949927
8472957191
8472963782
8472969581
8472975135
8472982703
8472989783
8472996741
8473004065
8473011390
8473018164
8473023658
8473032325
8473039954
8473045264
8473054358
8473059363
8473067542
8473073828
8473080237
8473087012
8473092566
8473099768
8473105811
8473113440
8473119116
8473126135
8473132666
8473139258
8473147070
8473152014
8473158362
8473165076
8473171545
8473177100
8473184729
8473191931
8473198279
8473205603
8473212317
8473219092
8473226355
8473233374
8473241492
8473248633
8473254980
8473264380
8473271155
8473276587
8473283178
8473290686
8473296789
8473306311
8473313391
8473320044
8473326269
8473331396
8473338964
8473347387
8473355749
8473362219
8473369299
8473375280
8473382360
8473388525
8473396459
8473403845
8473411230
8473415930
8473425024
8473431493
8473439062
8473448095
8473457494
8473465124
8473471288
8473480627
8473487341
8473495031
8473503088
8473509435
8473517858
8473524999
8473534154
8473543065
8473549840
8473556127
8473565832
8473573461
8473581640
8473588598
8473596715
8473603612
8473611242
8473617955
8473626928
8473632299
8473642125
8473647802
8473657811
8473664830
8473673925
8473679479
8473689549
8473698216
8473706700
8473713841
8473722936
8473730260
8473737767
8473744115
8473751378
8473758641
8473766698
8473773595
8473782445
8473788731
8473795933
8473802403
8473809483
8473816746
8473826146
8473832982
8473839268
8473848179
8473854710
8473863255
8473868992
8473874852
8473886143
8473892430
8473899876
8473906163
8473914280
8473922886
8473930455
8473936558
8473948948
8473956028
8473962925
8473971592
8473977635
8473986302
8473993565
8474000279
8474010716
8474017124
8474025608
8474034092
8474040501
8474049595
8474056553
8474065342
8474072849
8474079624
8474088108
8474095493
8474102817
8474107639
8474116367
8474124546
8474132908
8474140659
8474148533
8474155491
8474164097
8474170261
8474178623
8474185947
8474194492
8474201267
8474209568
8474216465
8474223606
8474229526
8474238376
8474245639
8474254917
8474262180
8474270114
8474277072
8474285373
8474291904
8474299350
8474306430
8474313999
8474320957
8474328769
8474335239
8474342990
8474351169
8474358493
8474365512
8474374057
8474381015
8474389438
8474398471
8474405002
8474410739
8474420077
8474428012
8474435275
8474442050
8474452914
8474460727
8474467929
8474476046
8474482882
8474491549
8474498935
8474507785
8474516208
8474523104
8474529086
8474537509
8474546969
8474555514
8474562228
8474568942
8474577243
8474584872
8474591403
8474600253
8474607882
8474616549
8474623446
8474630221
8474639071
8474646761
8474653292
8474660616
8474667941
8474675997
8474685152
8474690523
8474698824
8474705904
8474712435
8474720980
8474727877
8474737276
8474743990
8474750460
8474756441
8474765841
8474774874
8474782625
8474788851
8474800509
8474807711
8474814913
8474821627
8474828768
8474835176
8474843721
8474851107
8474858736
8474866609
8474874910
8474882112
8474889742
8474898104
8474904085
8474910005
8474920625
8474930208
8474937410
8474943330
8474951082
8474957735
8474966097
8474971895
8474981050
8474988740
8474995088
8475000764
8475006990
8475012178
8475019990
8475024141
8475031953
8475038667
8475043123
8475049531
8475056367
8475062105
8475070039
8475076326
8475083345
8475088167
8475094941
8475102144
8475108186
8475114961
8475121247
8475128389
8475134126
8475139436
8475144990
8475152436
8475160432
8475166658
8475173432
8475178559
8475185151
8475192109
8475196809
8475204438
8475208772
8475216340
8475220735
8475227754
8475232942
8475238374
8475242768
8475250398
8475256623
8475261384
8475268342
8475273469
8475279755
8475284699
8475290436
8475296967
8475301545
8475307831
8475312714
8475318391
8475325165
8475331330
8475336274
8475342805
8475347443
8475351899
8475358918
8475366852
8475371125
8475377900
8475382599
8475388947
8475393525
8475399811
8475405854
8475412079
8475418549
8475423493
8475430634
8475436066
8475442353
8475450409
8475455048
8475462677
8475466278
8475474152
8475479889
8475486603
8475492645
8475498261
8475505219
8475510956
8475517059
8475523773
8475531159
8475538055
8475545136
8475552155
8475558136
8475564178
8475570404
8475575226
8475583588
8475588959
8475597137
8475603668
8475609711
8475615936
8475622833
8475629364
8475637115
8475644501
8475650238
8475656708
8475663788
8475668792
8475677398
8475683807
8475691009
8475696380
8475704742
8475708648
8475716583
8475724517
8475730865
8475738433
8475743499
8475750701
8475756744
8475763458
8475770294
8475777374
8475783233
8475790740
8475797393
8475803680
8475809600
8475814971
8475823211
8475829315
8475834930
8475842681
8475848296
8475854766
8475862151
8475869231
8475875396
8475880767
8475888641
8475894500
8475901641
8475908782
8475915496
8475921355
8475926787
8475934112
8475940398
8475946563
8475954375
8475959624
8475966948
8475972686
8475978728
8475984527
8475991301
8475999053
8476003997
8476011077
8476016204
8476023101
8476028777
8476035430
8476041655
8476048613
8476054900
8476061553
8476067473
8476074004
8476079680
8476089324
8476096953
8476101225
8476109099
8476115752
8476127165
8476134428
8476140288
8476148405
8476156218
8476164885
8476170866
8476177946
8476184233
8476191679
8476199553
8476208220
8476213591
8476220305
8476226958
8476233549
8476239714
8476247343
8476256071
8476262114
8476270903
8476276152
8476285246
8476290617
8476298430
8476304594
8476314482
8476321257
8476332365
8476340238
8476346952
8476353422
8476360380
8476367826
8476374174
8476381681
8476388029
8476394010
8476402372
8476408476
8476417509
8476423124
8476431181
8476436735
8476445280
8476452116
8476459501
8476466764
8476472745
8476481290
8476486234
8476493864
8476501066
8476510648
8476517240
8476524747
8476532743
8476540555
8476548673
8476554044
8476563321
8476571439
8476579007
8476587125
8476595243
8476601712
8476608182
8476616849
8476622586
8476629422
8476640103
8476647184
8476654508
8476661649
8476669950
8476676358
8476683377
8476689664
8476699552
8476705716
8476713529
8476722196
8476729520
8476735989
8476743314
8476750027
8476758267
8476766934
8476773709
8476779813
8476787259
8476796292
8476804776
8476812100
8476819913
8476828763
8476834439
8476843167
8476849453
8476857510
8476864651
8476871243
8476881253
8476888394
8476895413
8476903775
8476910611
8476916958
8476924038
8476933621
8476941677
8476948757
8476957485
8476965664
8476973477
8476979397
8476987881
8476994656
8477004910
8477011807
8477019924
8477028469
8477034329
8477043911
8477050808
8477061062
8477069302
8477076443
8477084621
8477091885
8477102199
8477107632
8477118740
8477125698
8477135525
8477143398
8477149196
8477157619
8477163418
8477170437
8477178859
8477186794
8477193081
8477201137
8477207058
8477216091
8477222255
8477230434
8477236415
8477247280
8477254421
8477263210
8477269802
8477278591
8477285121
8477294155
8477300746
8477310451
8477316737
8477325160
8477333522
8477339381
8477345363
8477354823
8477361537
8477370265
8477377223
8477387294
8477393153
8477401515
8477407680
8477416041
8477425746
8477432460
8477439357
8477446681
8477453944
8477461818
8477469752
8477476649
8477485133
8477492701
8477499903
8477504481
8477517909
8477526576
8477533045
8477541774
8477549769
8477557643
8477566432
8477572901
8477581141
8477587733
8477596278
8477603480
8477610560
8477616786
8477625575
8477631434
8477638758
8477646082
8477655726
8477663538
8477670740
8477677332
8477684962
8477691798
8477699000
8477706202
8477714197
8477721155
8477729578
8477738794
8477746058
8477754786
8477763819
8477772120
8477777796
8477789087
8477797205
8477803370
8477812159
8477818567
8477829065
8477835840
8477846155
8477850794
8477859583
8477866663
8477874658
8477881555
8477888819
8477896021
8477903284
8477909021
8477916956
8477923303
8477929285
8477935571
8477941614
8477947351
8477954492
8477961694
8477969263
8477975976
8477980493
8477987817
8477993799
8477999902
8478005395
8478012170
8478018030
8478022607
8478030725
8478036523
8478043359
8478050012
8478055200
8478061548
8478066003
8478073327
8478080590
8478085962
8478092065
8478097436
8478104211
8478110070
8478117395
8478123376
8478129357
8478136254
8478141137
8478146691
8478153894
8478159814
8478165185
8478169763
8478176049
8478180871
8478188012
8478194726
8478201379
8478206994
8478211388
8478217553
8478222497
8478228173
8478237328
8478242211
8478248986
8478253503
8478260033
8478265221
8478270776
8478277306
8478282250
8478288354
8478294274
8478298852
8478305443
8478312096
8478319604
8478325402
8478331750
8478338097
8478344811
8478350853
8478356835
8478360802
8478369835
8478376549
8478381249
8478387169
8478394371
8478399193
8478406090
8478411827
8478417626
8478423973
8478430016
8478437279
8478442650
8478449425
8478456566
8478464134
8478469139
8478476463
8478482140
8478487389
8478494469
8478502586
8478508507
8478514855
8478520470
8478525963
8478533165
8478541466
8478547447
8478554588
8478559288
8478565575
8478572044
8478577782
8478583214
8478590721
8478598411
8478604698
8478611717
8478617332
8478623619
8478632042
8478637352
8478643150
8478649559
8478655723
8478660606
8478667381
8478673851
8478680503
8478688133
8478694481
8478701805
8478707542
8478714622
8478721580
8478728172
8478737571
8478746421
8478752769
8478759178
8478766136
8478772361
8478779441
8478786399
8478792564
8478799705
8478806419
8478812217
8478819541
8478825523
8478833518
8478840171
8478846641
8478853965
8478858726
8478866233
8478871421
8478878745
8478886252
8478892844
8478900291
8478905723
8478914817
8478922385
8478929221
8478935203
8478941611
8478948386
8478953757
8478963523
8478969016
8478975180
8478982261
8478987632
8478993247
8479001303
8479008506
8479015952
8479021811
8479027915
8479034018
8479040549
8479047568
8479054770
8479060935
8479067893
8479074179
8479081137
8479087912
8479093894
8479102622
8479110556
8479116415
8479124106
8479129660
8479137473
8479144247
8479150900
8479160910
8479166281
8479174582
8479181113
8479188925
8479195822
8479204672
8479212362
8479219443
8479227316
8479234518
8479241415
8479249228
8479256430
8479263327
8479272421
8479279501
8479286703
8479293478
8479300680
8479306051
8479315145
8479323934
8479332540
8479340109
8479348348
8479355673
8479361349
8479368368
8479377706
8479385092
8479394308
8479401998
8479408041
8479414449
8479422140
8479427938
8479436605
8479446554
8479452718
8479461324
8479467428
8479472860
8479482931
8479489034
8479496725
8479506063
8479512838
8479518880
8479529012
8479534566
8479541707
8479548909
8479557149
8479566549
8479575460
8479581258
8479590718
8479598348
8479605428
8479610677
8479621358
8479630574
8479637227
8479645711
8479653523
8479658834
8479666890
8479674458
8479680440
8479688680
8479696614
8479704671
8479713216
8479719807
8479727498
8479735860
8479742879
8479750874
8479758137
8479764912
8479773152
8479779927
8479786153
8479794575
8479801228
8479810383
8479817036
8479825154
8479830891
8479839070
8479845295
8479852986
8479858906
8479869404
8479878315
8479884419
8479892720
8479899433
8479907124
8479915119
8479921223
8479930012
8479936787
8479944966
8479950764
8479958943
8479966511
8479972614
8479980305
8479988789
8479996845
8480004536
8480010578
8480018024
8480026142
8480032612
8480041462
8480049824
8480056110
8480064472
8480070331
8480078388
8480086811
8480094684
8480101032
8480112751
8480119709
8480127521
8480133503
8480141132
8480149067
8480155536
8480163227
8480171589
8480177753
8480185749
8480193439
8480198932
8480207965
8480215595
8480221393
8480232257
8480239521
8480245990
8480251789
8480260578
8480266315
8480274616
8480280658
8480288654
8480296344
8480301959
8480309528
8480319537
8480328632
8480337665
8480347613
8480357074
8480363483
8480372272
8480378131
8480386676
8480393451
8480401874
8480408587
8480418597
8480426593
8480434466
8480440448
8480448321
8480456256
8480463092
8480469012
8480478473
8480484820
8480493609
8480499713
8480508990
8480515094
8480522540
8480530657
8480538714
8480545489
8480554583
8480562701
8480569964
8480575945
8480584490
8480591570
8480600543
8480608172
8480616961
8480623858
8480631548
8480637896
8480645769
8480653338
8480663470
8480669512
8480679583
8480684710
8480694720
8480701739
8480708025
8480715777
8480724688
8480729265
8480738176
8480758928
8480766680
8480775713
8480783892
8480790850
8480798540
8480804277
8480815935
8480824297
8480833330
8480838091
8480848528
8480854936
8480862444
8480868608
8480874895
8480881548
8480889238
8480894975
8480901384
8480906755
8480911455
8480916826
8480922929
8480929887
8480936113
8480943071
8480947588
8480954668
8480960588
8480964616
8480972978
8480980302
8480986162
8480991350
8480997514
8481002702
8481008623
8481016191
8481023759
8481031877
8481038286
8481043657
8481050798
8481056596
8481062639
8481069352
8481076066
8481083390
8481088212
8481094438
8481101274
8481107011
8481113481
8481119889
8481126176
8481131791
8481136918
8481142900
8481147599
8481154313
8481160417
8481165727
8481171586
8481177262
8481183000
8481188737
8481195084
8481201798
8481209367
8481216386
8481222855
8481229813
8481235917
8481241288
8481248307
8481253190
8481259293
8481265458
8481271744
8481278214
8481284012
8481289811
8481297440
8481301591
8481307999
8481313492
8481321549
8481324906
8481333024
8481339249
8481345292
8481351700
8481357560
8481363175
8481370133
8481375870
8481383133
8481389908
8481395035
8481404435
8481409439
8481417313
8481422928
8481430496
8481437454
8481441849
8481450699
8481456497
8481464310
8481470657
8481477005
8481483353
8481487869
8481496475
8481501907
8481508438
8481514359
8481522476
8481528519
8481535049
8481542129
8481547195
8481554764
8481561844
8481568191
8481575577
8481583328
8481590164
8481596451
8481604019
8481609939
8481616714
8481624771
8481631973
8481639602
8481645767
8481652237
8481656753
8481664016
8481670852
8481675308
8481684463
8481690139
8481696365
8481701736
8481710098
8481716018
8481722488
8481729629
8481734817
8481742019
8481748184
8481754836
8481761917
8481766494
8481774062
8481781020
8481788162
8481793899
8481800613
8481806899
8481813369
8481820998
8481828078
8481835036
8481841262
8481847304
8481851638
8481858657
8481864211
8481872512
8481877456
8481883925
8481889785
8481895034
8481902175
8481908278
8481915603
8481923049
8481927688
8481934890
8481939528
8481946792
8481953017
8481961318
8481967543
8481974379
8481978774
8481987563
8481997084
8482002700
8482011367
8482018996
8482026381
8482034011
8482041213
8482047255
8482055312
8482060744
8482070387
8482077590
8482085524
8482092604
8482099074
8482106093
8482113783
8482121840
8482128004
8482135268
8482141127
8482147414
8482156020
8482163344
8482169203
8482180495
8482187208
8482194349
8482199721
8482207167
8482215101
8482221815
8482229689
8482237501
8482246351
8482253370
8482261000
8482268019
8482275282
8482284376
8482292128
8482298658
8482305738
8482313490
8482319898
8482326612
8482333875
8482340162
8482348341
8482354749
8482362989
8482370435
8482376783
8482383192
8482391248
8482399610
8482409803
8482417677
8482425489
8482431043
8482438612
8482448499
8482456129
8482465711
8482473096
8482480298
8482486768
8482494459
8482500257
8482508314
8482514905
8482525586
8482532728
8482539441
8482545362
8482554639
8482561963
8482570569
8482577954
8482587171
8482593640
8482603772
8482610425
8482618726
8482625623
8482633191
8482640943
8482648877
8482655713
8482663526
8482672437
8482679273
8482685742
8482692700
8482698621
8482710339
8482716809
8482725354
8482731641
8482739575
8482747693
8482754895
8482761548
8482771313
8482780041
8482785901
8482791943
8482801098
8482807141
8482815136
8482821484
8482830090
8482836804
8482844983
8482850842
8482858960
8482867382
8482874646
8482883618
8482891247
8482897412
8482904919
8482913769
8482920971
8482927380
8482937451
8482945141
8482953320
8482960949
8482968945
8482975842
8482984081
8482990917
8483000439
8483006847
8483017467
8483025585
8483032787
8483040234
8483046642
8483054333
8483061840
8483067272
8483078014
8483083874
8483093944
8483100048
8483110241
8483121288
8483128429
8483135265
8483144420
8483151195
8483158031
8483166637
8483173961
8483182689
8483189830
8483198253
8483206005
8483213329
8483221691
8483227184
8483235485
8483243053
8483249095
8483260936
8483268199
8483274364
8483283092
8483290416
8483296520
8483304698
8483311046
8483322459
8483329478
8483336558
8483342723
8483350658
8483358531
8483366466
8483372630
8483382640
8483389049
8483398021
8483404735
8483409984
8483419871
8483427379
8483433299
8483442332
8483450938
8483458751
8483464671
8483472544
8483480601
8483487071
8483495311
8483505198
8483511912
8483520579
8483526560
8483534434
8483540598
8483547679
8483555247
8483564768
8483572825
8483580576
8483588755
8483593455
8483602976
8483607981
8483616526
8483624400
8483631602
8483639963
8483647410
8483656992
8483666209
8483672434
8483681895
8483691294
8483697947
8483706370
8483713328
8483722239
8483729868
8483736277
8483744211
8483753672
8483761972
8483770945
8483776499
8483785593
8483794382
8483802744
8483812387
8483819345
8483827402
8483833261
8483840647
8483845835
8483854563
8483860849
8483867746
8483873483
8483880869
8483886301
8483892343
8483896433
8483904794
8483910959
8483915781
8483922861
8483929575
8483935373
8483939706
8483946115
8483954538
8483960702
8483967050
8483972543
8483979196
8483985055
8483991342
8483998239
8484003244
8484010507
8484015817
8484022470
8484029123
8484035226
8484041147
8484048654
8484054147
8484059579
8484066232
8484071298
8484076913
8484083261
8484088204
8484094613
8484100350
8484105538
8484111764
8484116586
8484126107
8484132028
8484137887
8484143441
8484147286
8484154672
8484160409
8484167428
8484173104
8484178292
8484184884
8484189523
8484195260
8484200814
8484207040
8484213143
8484218758
8484224129
8484229867
8484235787
8484241097
8484247262
8484252755
8484258126
8484265206
8484271737
8484277352
8484284371
8484290902
8484296822
8484302987
8484310189
8484315621
8484322945
8484330574
8484336495
8484343575
8484352425
8484358040
8484364815
8484370003
8484377571
8484383004
8484390328
8484395455
8484401680
8484408455
8484415352
8484421517
8484428414
8484433174
8484440743
8484445503
8484451607
8484457710
8484464180
8484470833
8484476387
8484481880
8484487557
8484493538
8484501839
8484507332
8484515449
8484522102
8484528023
8484536140
8484542732
8484550728
8484556404
8484563118
8484570015
8484576240
8484581184
8484588875
8484595161
8484601875
8484608894
8484616035
8484621284
8484628364
8484635505
8484643257
8484650276
8484656440
8484663887
8484669014
8484674018
8484681526
8484689521
8484695991
8484705024
8484710517
8484719062
8484725349
8484732612
8484740913
8484747871
8484754402
8484760139
8484766425
8484773200
8484780219
8484787544
8484793525
8484798591
8484806464
8484812324
8484819404
8484827094
8484833564
8484840278
8484848762
8484854682
8484861152
8484869514
8484876410
8484882392
8484889045
8484896369
8484903937
8484908820
8484916510
8484922797
8484929633
8484934699
8484941352
8484948798
8484953742
8484961676
8484967658
8484974738
8484981024
8484988593
8484994757
8485001105
8485004889
8485014411
8485023078
8485028876
8485034857
8485042853
8485049017
8485054572
8485062933
8485071051
8485077460
8485084723
8485090216
8485098456
8485105475
8485113470
8485120673
8485127692
8485134283
8485142401
8485149298
8485155096
8485163763
8485172003
8485178900
8485185248
8485193487
8485198187
8485206305
8485212652
8485219732
8485227118
8485233954
8485241766
8485249701
8485256720
8485266607
8485276800
8485284246
8485294927
8485304571
8485311773
8485322454
8485331548
8485340154
8485346075
8485355047
8485361700
8485370245
8485377630
8485383733
8485392339
8485398504
8485407049
8485413030
8485421514
8485429388
8485435186
8485443181
8485451543
8485457403
8485465093
8485471502
8485479375
8485488408
8485494024
8485505498
8485513982
8485521306
8485530217
8485536504
8485546087
8485553472
8485561773
8485568242
8485574834
8485582952
8485590825
8485598699
8485606328
8485613164
8485621465
8485627812
8485634099
8485640813
8485649602
8485656377
8485664678
8485671941
8485679448
8485684575
8485692509
8485700505
8485707524
8485716008
8485722050
8485729253
8485736149
8485743901
8485748601
8485756535
8485765751
8485771672
8485779667
8485786992
8485793217
8485798955
8485805485
8485815007
8485821598
8485827824
8485835759
8485842778
8485848210
8485855778
8485862370
8485874211
8485881230
8485888981
8485895268
8485903630
8485910038
8485919560
8485926701
8485933720
8485940861
8485949162
8485955692
8485964237
8485971378
8485979008
8485986759
8485994999
8486002079
8486011723
8486018375
8486025639
8486032230
8486040470
8486048282
8486056583
8486063724
8486071049
8486077762
8486086490
8486094791
8486101139
8486108829
8486118839
8486124637
8486133976
8486140628
8486148258
8486155033
8486162113
8486169132
8486178592
8486185367
8486192874
8486200015
8486209964
8486216861
8486226077
8486231510
8486241702
8486249820
8486258121
8486266971
8486274661
8486282596
8486289005
8486300418
8486307071
8486315677
8486324405
8486332400
8486338931
8486347476
8486355777
8486362796
8486370242
8486378604
8486387393
8486393496
8486402347
8486408938
8486418643
8486424807
8486432681
8486441043
8486448428
8486454287
8486462710
8486469119
8486478213
8486484744
8486492434
8486498721
8486507510
8486514041
8486521487
8486529666
8486537722
8486546816
8486553835
8486561404
8486568911
8486575076
8486583254
8486589663
8486598696
8486606997
8486616030
8486622073
8486630251
8486637514
8486646181
8486653445
8486662783
8486670229
8486677920
8486685915
8486693117
8486700319
8486707155
8486712343
8486722109
8486729372
8486736696
8486744753
8486753298
8486759340
8486767946
8486777651
8486785036
8486792726
8486797853
8486805727
8486811098
8486816896
8486823732
8486830934
8486834841
8486843141
8486847475
8486853883
8486860780
8486865297
8486873415
8486878236
8486885988
8486892397
8486898561
8486904604
8486911317
8486916688
8486923707
8486929018
8486935976
8486941896
8486949098
8486957399
8486964540
8486971254
8486977296
8486984254
8486990663
8486996644
8487002992
8487009889
8487015321
8487021913
8487029298
8487034913
8487041444
8487046144
8487053407
8487059388
8487065431
8487070680
8487077088
8487083741
8487089540
8487095216
8487101258
8487107423
8487113221
8487119691
8487125977
8487131410
8487138184
8487143372
8487149964
8487155702
8487161744
8487165955
8487173585
8487179261
8487185120
8487191285
8487196595
8487203797
8487211488
8487216492
8487223511
8487228028
8487234132
8487238709
8487245118
8487253785
8487263367
8487270936
8487276307
8487282960
8487289124
8487295960
8487301575
8487308594
8487315552
8487321839
8487327210
8487335816
8487341309
8487349427
8487355530
8487362122
8487367798
8487373902
8487380799
8487386414
8487395508
8487401123
8487408508
8487415589
8487421631
8487427673
8487434631
8487440491
8487446106
8487454651
8487461365
8487468201
8487474976
8487480530
8487488403
8487495056
8487500977
8487507385
8487514709
8487520813
8487527527
8487534973
8487540344
8487547241
8487553955
8487560119
8487565124
8487570984
8487576477
8487586242
8487590881
8487598144
8487604187
8487610168
8487615478
8487621948
8487628296
8487635254
8487641235
8487646484
8487653137
8487658264
8487664489
8487673034
8487679138
8487685607
8487692687
8487698852
8487707031
8487713256
8487720641
8487726562
8487734191
8487740417
8487750304
8487756835
8487764465
8487770507
8487777099
8487783508
8487789184
8487796081
8487803222
8487809447
8487816405
8487822082
8487830871
8487836669
8487843261
8487849120
8487855834
8487862731
8487869811
8487876952
8487881652
8487888671
8487895568
8487902648
8487908507
8487914733
8487921080
8487927123
8487933226
8487939208
8487946105
8487954589
8487960265
8487968016
8487973815
8487980712
8487990050
8487996337
8488004698
8488011046
8488019408
8488026488
8488032469
8488040038
8488046813
8488053282
8488061522
8488069029
8488076415
8488082457
8488089598
8488097777
8488105833
8488112120
8488121153
8488127257
8488135374
8488144346
8488151121
8488158262
8488167235
8488176695
8488182310
8488187864
8488198851
8488205381
8488213621
8488221190
8488228880
8488237852
8488245115
8488250975
8488257994
8488264524
8488272093
8488279051
8488286436
8488293577
8488298765
8488306700
8488315305
8488323118
8488329588
8488336485
8488344480
8488351072
8488360166
8488367918
8488375303
8488380064
8488388975
8488397581
8488405393
8488411008
8488419981
8488429258
8488435667
8488445493
8488454038
8488463376
8488471433
8488478452
8488485776
8488492856
8488500181
8488507932
8488513181
8488522519
8488531125
8488538816
8488546689
8488553342
8488560971
8488568479
8488573789
8488583859
8488592221
8488599057
8488605649
8488612729
8488621335
8488630307
8488638669
8488646481
8488654111
8488661923
8488669370
8488675778
8488683591
8488691769
8488700497
8488707272
8488715878
8488721738
8488729306
8488737240
8488742917
8488752133
8488761288
8488767575
8488775387
8488783627
8488790097
8488797787
8488806088
8488811947
8488821286
8488828244
8488837765
8488844113
8488852719
8488861325
8488868893
8488875363
8488885494
8488894711
8488902340
8488909237
8488916561
8488924862
8488932003
8488939083
8488946835
8488953793
8488963375
8488970821
8488978024
8488986141
8488992611
8489001400
8489011654
8489019466
8489026424
8489034298
8489041134
8489048397
8489054806
8489061886
8489071346
8489076351
8489085506
8489090877
8489103573
8489110286
8489118587
8489126888
8489137508
8489142696
8489150508
8489156978
8489165340
8489172237
8489179805
8489187374
8489197078
8489203853
8489211666
8489218318
8489226924
8489233699
8489241084
8489248470
8489257259
8489264217
8489272517
8489280025
8489286922
8489294124
8489300532
8489307796
8489317439
8489322444
8489330806
8489337398
8489346065
8489353633
8489360774
8489366084
8489376155
8489383052
8489390376
8489397151
8489404902
8489412227
8489420588
8489429133
8489438227
8489445857
8489453852
8489460444
8489468074
8489474848
8489482600
8489489863
8489499018
8489505915
8489513911
8489520747
8489528010
8489534541
8489542109
8489549189
8489558100
8489564997
8489571772
8489578547
8489587092
8489595209
8489604609
8489613215
8489621760
8489627924
8489638239
8489647028
8489653315
8489661249
8489668390
8489678034
8489686823
8489695307
8489701899
8489709650
8489716547
8489724909
8489733576
8489742792
8489750727
8489756281
8489763056
8489770258
8489775141
8489781793
8489789423
8489795954
8489801752
8489808100
8489814691
8489820551
8489826410
8489833063
8489838800
8489846307
8489852289
8489857172
8489864313
8489870050
8489876459
8489883051
8489889886
8489895685
8489901361
8489908441
8489914117
8489919733
8489926507
8489933160
8489939264
8489945428
8489952020
8489956781
8489963250
8489969415
8489975213
8489982782
8489987115
8489993951
8489998590
8490005365
8490011346
8490017328
8490023431
8490029535
8490035333
8490040643
8490046624
8490053338
8490058038
8490066522
8490073113
8490078668
8490083612
8490089288
8490096612
8490103326
8490109124
8490113519
8490119927
8490124871
8490130547
8490137811
8490142510
8490149529
8490155755
8490160882
8490167535
8490173089
8490180413
8490185479
8490193536
8490199456
8490206475
8490212578
8490219353
8490227288
8490232598
8490239861
8490246758
8490252617
8490259331
8490264275
8490271294
8490277337
8490283684
8490291008
8490296807
8490303521
8490309319
8490317253
8490322991
8490329460
8490336602
8490342888
8490348870
8490356133
8490362602
8490369072
8490374932
8490381401
8490387932
8490394707
8490401421
8490408013
8490412651
8490420403
8490426018
8490431999
8490438652
8490446343
8490452263
8490459282
8490464592
8490473137
8490477592
8490484856
8490490532
8490497612
8490503715
8490510857
8490518242
8490524223
8490529716
8490536552
8490543449
8490549125
8490556755
8490562614
8490569145
8490575554
8490581474
8490588554
8490593742
8490600334
8490606620
8490612846
8490617729
8490625236
8490632011
8490638908
8490664848
8490670951
8490677421
8490684562
8490690360
8490699272
8490705375
8490711479
8490718925
8490725944
8490733024
8490738517
8490746207
8490752616
8490761100
8490768058
8490775870
8490783317
8490790092
8490795585
8490801993
8490809989
8490818168
8490824515
8490831779
8490838309
8490843680
8490850516
8490857535
8490865592
8490870597
8490879203
8490885856
8490892447
8490898673
8490904471
8490911307
8490918265
8490924491
8490931449
8490939139
8490946646
8490955374
8490962088
8490969046
8490975760
8490983512
8490989371
8490997794
8491002432
8491010916
8491018363
8491025443
8491032462
8491039603
8491047965
8491053519
8491060294
8491069144
8491076590
8491084158
8491091421
8491097281
8491104483
8491110464
8491118155
8491124502
8491133291
8491140433
8491147391
8491154593
8491161062
8491167776
8491175955
8491184256
8491189932
8491197989
8491204397
8491212637
8491218252
8491225943
8491234487
8491243277
8491249685
8491258840
8491264883
8491272146
8491279836
8491287161
8491293142
8491303396
8491310171
8491315420
8491324819
8491332388
8491338064
8491346792
8491352712
8491363332
8491370290
8491377737
8491386587
8491394765
8491401784
8491409658
8491416982
8491424978
8491432363
8491441884
8491449453
8491455617
8491462331
8491470632
8491481557
8491488515
8491497243
8491505361
8491512868
8491518789
8491529836
8491537831
8491546254
8491553090
8491560475
8491567006
8491574819
8491581410
8491591237
8491597035
8491607594
8491615834
8491622121
8491630360
8491638051
8491646474
8491653554
8491661732
8491669240
8491677235
8491686330
8491692555
8491703175
8491710011
8491721608
8491725636
8491737660
8491746571
8491753468
8491761036
8491768971
8491777699
8491784047
8491794239
8491800587
8491810719
8491817250
8491824513
8491831837
8491838307
8491845143
8491854237
8491863148
8491869557
8491875416
8491883595
8491889515
8491899525
8491905934
8491914356
8491923817
8491931019
8491938038
8491944935
8491952991
8491958790
8491964527
8491974720
8491980884
8491988636
8491994617
8492002308
8492010303
8492016590
8492024463
8492032886
8492040943
8492047413
8492055408
8492063770
8492069751
8492075428
8492084034
8492093860
8492101062
8492109851
8492115711
8492123828
8492129993
8492137195
8492143970
8492152515
8492161060
8492168445
8492174243
8492181873
8492190174
8492195789
8492204822
8492213855
8492222278
8492230335
8492236926
8492245227
8492251025
8492260547
8492267627
8492277209
8492285571
8492292895
8492299853
8492307178
8492314258
8492322253
8492330066
8492339282
8492346545
8492355822
8492362780
8492368823
8492378650
8492389270
8492400988
8492409106
8492416919
8492424548
8492433398
8492440173
8492448535
8492458300
8492466357
8492474352
8492481249
8492487963
8492495287
8492502429
8492511706
8492518847
8492526415
8492534411
8492543383
8492550829
8492557604
8492564501
8492570788
8492577929
8492588305
8492595080
8492601794
8492608446
8492616808
8492624132
8492631457
8492638781
8492645983
8492653490
8492661486
8492667833
8492675524
8492685961
8492693102
8492698473
8492707445
8492715380
8492723375
8492729540
8492735643
8492742540
8492748217
8492754259
8492761949
8492767992
8492774950
8492779222
8492785631
8492792711
8492798509
8492805162
8492811815
8492817491
8492823778
8492830248
8492837633
8492844164
8492850511
8492857042
8492863512
8492868944
8492876268
8492882677
8492888414
8492894212
8492900987
8492908128
8492914293
8492921007
8492927904
8492934434
8492941270
8492947923
8492954698
8492960008
8492966844
8492973680
8492979478
8492985460
8492990464
8492995836
8493001207
8493006700
8493013169
8493019883
8493024644
8493031175
8493037217
8493043382
8493048448
8493054063
8493059739
8493064866
8493071092
8493076890
8493083238
8493088304
8493093797
8493099351
8493104417
8493110459
8493116197
8493121201
8493128281
8493135300
8493140855
8493147385
8493151536
8493158128
8493164719
8493171616
8493178025
8493184128
8493190537
8493194565
8493201218
8493206772
8493212754
8493220383
8493225205
8493232834
8493238816
8493244980
8493251450
8493258225
8493266343
8493271531
8493278244
8493284653
8493289475
8493296067
8493301560
8493310044
8493316391
8493322495
8493329148
8493333420
8493340622
8493347031
8493353623
8493360642
8493368271
8493375107
8493379868
8493387314
8493394211
8493401657
8493407883
8493414291
8493421310
8493426254
8493433701
8493438461
8493447495
8493455368
8493463058
8493469833
8493473617
8493481735
8493488815
8493495834
8493502914
8493509323
8493516769
8493522323
8493529403
8493536606
8493541183
8493550461
8493557235
8493563400
8493568893
8493576706
8493583358
8493588974
8493595382
8493602401
8493608444
8493614914
8493622482
8493627609
8493634811
8493642318
8493648300
8493655685
8493661300
8493668441
8493674423
8493681381
8493687362
8493694564
8493701400
8493706466
8493715438
8493720687
8493726913
8493735275
8493740707
8493747298
8493755050
8493760970
8493766952
8493773116
8493780013
8493787459
8493792953
8493798019
8493805099
8493810775
8493817428
8493824019
8493830489
8493836226
8493842330
8493850081
8493856673
8493864730
8493872847
8493879927
8493887435
8493895552
8493902510
8493908614
8493915938
8493922408
8493931136
8493939376
8493946089
8493953658
8493959456
8493965560
8493973799
8493981673
8493989852
8493998030
8494003584
8494012801
8494019392
8494028670
8494033369
8494041548
8494050642
8494057906
8494065352
8494072371
8494080977
8494090315
8494098677
8494107222
8494115156
8494122542
8494131270
8494139448
8494145064
8494154829
8494162703
8494169294
8494176069
8494184980
8494189436
8494198591
8494204451
8494216352
8494223982
8494231611
8494238264
8494244978
8494252973
8494259565
8494267072
8494274214
8494282209
8494289350
8494296858
8494303632
8494310590
8494318830
8494327009
8494333112
8494340925
8494346479
8494355512
8494363142
8494369367
8494379438
8494386823
8494394758
8494402326
8494410077
8494416303
8494424360
8494432721
8494440046
8494448102
8494455549
8494461469
8494467206
8494476850
8494484479
8494490339
8494500165
8494509504
8494516523
8494522382
8494529462
8494537274
8494545575
8494551862
8494561627
8494567975
8494577558
8494583478
8494590741
8494599713
8494608624
8494615826
8494624188
8494630597
8494640607
8494647443
8494654889
8494662030
8494670453
8494678509
8494688153
8494696515
8494703168
8494710065
8494719403
8494725628
8494732831
8494739789
8494749554
8494755352
8494764019
8494770489
8494777752
8494784893
8494795941
8494802227
8494812908
8494821392
8494827984
8494835308
8494842938
8494849468
8494858502
8494865643
8494875469
8494880718
8494888409
8494895306
8494904766
8494911724
8494918926
8494926312
8494934917
8494941448
8494949322
8494958233
8494965496
8494971355
8494978863
8494985332
8494994610
8495003338
8495009075
8495017010
8495023296
8495031597
8495039104
8495045635
8495055095
8495063823
8495070964
8495077251
8495084636
8495092815
8495098186
8495106365
8495115642
8495124187
8495131633
8495138408
8495146648
8495152568
8495161418
8495167278
8495177837
8495184001
8495191509
8495197368
8495206645
8495212810
8495220805
8495227214
8495236552
8495244853
8495252971
8495260234
8495268108
8495273906
8495281718
8495287700
8495297526
8495304729
8495313945
8495320842
8495328471
8495334819
8495341716
8495347758
8495359782
8495366679
8495373881
8495380412
8495388041
8495394084
8495402629
8495409343
8495419596
8495426676
8495435710
8495443339
8495451274
8495458293
8495467021
8495476603
8495485087
8495490092
8495499735
8495504679
8495516032
8495521952
8495533610
8495541605
8495549235
8495557597
8495565653
8495576273
8495581522
8495590311
8495599467
8495607157
8495615458
8495623575
8495630839
8495640116
8495648356
8495655863
8495663919
8495671549
8495679300
8495684916
8495692850
8495699503
8495705057
8495711710
8495717386
8495724039
8495731363
8495736185
8495741922
8495747049
8495754679
8495761209
8495767374
8495773233
8495779215
8495785318
8495789774
8495798074
8495803934
8495810770
8495815775
8495822000
8495826883
8495833841
8495841837
8495847940
8495853982
8495858255
8495865335
8495870401
8495877969
8495883218
8495892007
8495896097
8495903177
8495908731
8495914895
8495921243
8495927713
8495933755
8495939676
8495945169
8495951577
8495957376
8495963174
8495968728
8495974466
8495980264
8495986184
8495991494
8495997842
8496003091
8496009378
8496015969
8496020791
8496027688
8496033425
8496040628
8496047463
8496053506
8496059548
8496065469
8496070535
8496076760
8496082436
8496089211
8496095498
8496101296
8496108071
8496114846
8496120766
8496127175
8496132912
8496139687
8496146096
8496152383
8496159402
8496167153
8496173073
8496179787
8496186806
8496192238
8496199074
8496205483
8496211892
8496218300
8496226723
8496232827
8496238808
8496244484
8496251015
8496258156
8496264748
8496272255
8496278115
8496284218
8496291542
8496298195
8496304970
8496309548
8496317543
8496323220
8496331337
8496337563
8496343605
8496349770
8496356484
8496363625
8496369972
8496377785
8496384132
8496390724
8496395851
8496402260
8496409523
8496416603
8496423012
8496428810
8496436378
8496441627
8496447853
8496456215
8496463356
8496469887
8496473610
8496481850
8496488441
8496493446
8496500831
8496507484
8496513588
8496518776
8496526527
8496533058
8496539283
8496546730
8496553993
8496559852
8496566993
8496573768
8496580360
8496586280
8496590980
8496599708
8496606178
8496612098
8496617958
8496625160
8496631385
8496637245
8496644752
8496652870
8496659156
8496664344
8496672096
8496678687
8496686256
8496693580
8496699928
8496707435
8496712196
8496720618
8496729224
8496734412
8496743446
8496751624
8496759498
8496766761
8496774207
8496778419
8496787757
8496796302
8496801246
8496810462
8496816199
8496823340
8496829139
8496837134
8496843116
8496850745
8496855384
