7957082474
7957087784
7957092666
7957098526
7957102615
7957109146
7957113723
7957120193
7957125503
7957131241
7957137832
7957142837
7957149063
7957155105
7957161209
7957167251
7957173721
7957181045
7957186477
7957193313
7957199050
7957203628
7957211746
7957218399
7957225051
7957230972
7957238601
7957245742
7957253433
7957261001
7957266006
7957275649
7957282729
7957289077
7957298965
7957308547
7957315383
7957324050
7957331130
7957340530
7957348586
7957356460
7957363845
7957370498
7957381362
7957388381
7957395217
7957403274
7957410720
7957417495
7957422866
7957429702
7957437392
7957443312
7957452346
7957458876
7957465224
7957471633
7957478835
7957485671
7957492018
7957497817
7957506484
7957513198
7957520400
7957526991
7957533278
7957537795
7957546156
7957554640
7957560378
7957567091
7957573988
7957580946
7957586684
7957594740
7957600905
7957610060
7957614638
7957623549
7957630141
7957637892
7957642226
7957653456
7957661024
7957668410
7957674879
7957681593
7957689650
7957694899
7957702284
7957710402
7957719191
7957726210
7957732191
7957737867
7957746717
7957753187
7957761305
7957768995
7957775770
7957784498
7957790174
7957800794
7957807569
7957817640
7957826490
7957834059
7957841566
7957848951
7957854139
7957863111
7957871290
7957878797
7957886305
7957894239
7957901868
7957907362
7957916273
7957922010
7957931776
7957938428
7957948743
7957953260
7957961744
7957968641
7957975965
7957984571
7957992872
7958005079
7958014417
7958023084
7958029676
7958038038
7958047803
7958054090
7958064160
7958070203
7958079541
7958085889
7958093335
7958102246
7958107923
7958117322
7958124158
7958131299
7958139783
7958144299
7958154004
7958161084
7958169385
7958178174
7958183911
7958192273
7958199841
7958210461
7958217908
7958226269
7958236279
7958245190
7958252453
7958258984
7958264660
7958273083
7958279614
7958285840
7958295544
7958302563
7958311108
7958316296
7958323803
7958330761
7958337902
7958343029
7958353405
7958361828
7958370129
7958376232
7958383923
7958390576
7958400219
7958410168
7958416516
7958424938
7958433056
7958440197
7958445812
7958455395
7958461681
7958470043
7958477306
7958483898
7958492992
7958498669
7958505749
7958514111
7958525341
7958531322
7958538525
7958545421
7958553844
7958562572
7958569225
7958578502
7958585277
7958594860
7958603832
7958612072
7958620433
7958627330
7958638500
7958645641
7958653575
7958661998
7958667980
7958676281
7958685558
7958693370
7958701854
7958708202
7958716991
7958726573
7958733104
7958743358
7958755504
7958763866
7958768749
7958779002
7958786510
7958794688
7958806651
7958813853
7958821544
7958829661
7958835826
7958843883
7958850902
7958860484
7958867930
7958875377
7958882518
7958890330
7958897349
7958906443
7958912242
7958919261
7958927256
7958935496
7958942820
7958949961
7958957530
7958966136
7958974192
7958979563
7958987620
7958994212
7959003794
7959013926
7959019969
7959028208
7959034678
7959043101
7959051646
7959058543
7959067820
7959076121
7959083323
7959091685
7959099497
7959106760
7959115794
7959122691
7959130808
7959138010
7959145762
7959153757
7959162119
7959171152
7959179087
7959185923
7959194346
7959201426
7959210154
7959219370
7959227732
7959236460
7959244089
7959250254
7959255442
7959266428
7959274118
7959282602
7959289560
7959296091
7959303171
7959310922
7959319162
7959326242
7959334177
7959340952
7959345834
7959355539
7959366831
7959373483
7959382822
7959390939
7959398996
7959406259
7959413705
7959424997
7959432565
7959439950
7959449106
7959455820
7959462533
7959469858
7959477243
7959483896
7959489999
7959495920
7959502084
7959507394
7959515268
7959522409
7959528207
7959534982
7959539560
7959546884
7959553964
7959560739
7959565927
7959574044
7959580514
7959586373
7959592355
7959596871
7959604867
7959610848
7959618295
7959624825
7959631234
7959635873
7959643746
7959652718
7959658944
7959667123
7959674325
7959679818
7959686715
7959691781
7959700204
7959706185
7959712411
7959718392
7959724374
7959730965
7959738900
7959743233
7959752572
7959760995
7959768624
7959776314
7959784493
7959793282
7959800301
7959808724
7959817818
7959823739
7959830574
7959838753
7959844490
7959851937
7959861519
7959867867
7959874825
7959880928
7959887886
7959895394
7959902230
7959910591
7959917488
7959923958
7959932381
7959939156
7959946053
7959950203
7959958443
7959966194
7959973702
7959978828
7959987984
7959994942
7960002571
7960008980
7960015388
7960021309
7960031624
7960039436
7960048225
7960055061
7960061165
7960068428
7960078254
7960085273
7960092415
7960098518
7960107246
7960113166
7960122261
7960127510
7960137519
7960145881
7960153328
7960160041
7960167549
7960174629
7960183479
7960191596
7960199348
7960207649
7960215705
7960223518
7960230049
7960237739
7960246284
7960254401
7960261298
7960267829
7960275947
7960283637
7960289558
7960297187
7960306525
7960313361
7960319770
7960327766
7960335944
7960342231
7960349616
7960357245
7960365851
7960372992
7960380866
7960386603
7960394660
7960402228
7960410041
7960415839
7960427131
7960433234
7960443183
7960449958
7960457160
7960463202
7960471747
7960477912
7960486273
7960495368
7960501105
7960509345
7960517523
7960527899
7960551581
7960564276
7960576117
7960588812
7960598944
7960608038
7960619269
7960627692
7960634833
7960641485
7960648810
7960654974
7960660895
7960668402
7960674383
7960683478
7960690985
7960698065
7960702826
7960710638
7960715826
7960724432
7960732672
7960739141
7960745794
7960754095
7960761358
7960767706
7960774053
7960782110
7960793585
7960799383
7960807318
7960815618
7960823187
7960827886
7960836858
7960846258
7960853277
7960861150
7960867803
7960874944
7960880926
7960888677
7960895696
7960903204
7960909612
7960916997
7960922918
7960931463
7960937688
7960944585
7960952276
7960960821
7960967351
7960974614
7960980474
7960989080
7960993169
7961003301
7961013005
7961021245
7961028081
7961035711
7961042302
7961049871
7961057683
7961063848
7961072576
7961081487
7961088323
7961095769
7961102666
7961111211
7961118230
7961124516
7961137151
7961145574
7961155339
7961162480
7961170598
7961180486
7961187444
7961197575
7961205510
7961212163
7961218327
7961224675
7961232548
7961240605
7961248112
7961255559
7961263127
7961269108
7961276677
7961283085
7961290715
7961300602
7961306950
7961314396
7961322636
7961330876
7961338749
7961347660
7961354679
7961363163
7961372013
7961379765
7961386540
7961394779
7961402775
7961411381
7961419132
7961426090
7961433292
7961440189
7961448246
7961454838
7961464359
7961473270
7961481449
7961489201
7961497623
7961505070
7961512516
7961522282
7961528995
7961538334
7961545231
7961552921
7961561283
7961567997
7961574161
7961583133
7961589359
7961597965
7961604557
7961613285
7961621769
7961629276
7961636539
7961644535
7961650516
7961657840
7961663944
7961671451
7961679996
7961685794
7961691410
7961702945
7961710758
7961716556
7961724735
7961730899
7961735599
7961745120
7961757632
7961764285
7961771548
7961779727
7961787173
7961795108
7961802859
7961811160
7961820193
7961826602
7961833865
7961841617
7961850650
7961857669
7961866702
7961874576
7961882815
7961890506
7961898318
7961902896
7961912295
7961916934
7961927310
7961933902
7961943057
7961947573
7961957705
7961962832
7961971926
7961976504
7961986270
7961991885
7962002688
7962007571
7962018252
7962024233
7962034976
7962044924
7962052248
7962061465
7962068118
7962074892
7962080386
7962089236
7962094729
7962102663
7962107363
7962115359
7962122378
7962127566
7962134341
7962139651
7962146120
7962153078
7962159914
7962166445
7962171938
7962178652
7962184145
7962191958
7962198793
7962204958
7962212221
7962218203
7962224428
7962229677
7962236513
7962242800
7962248781
7962255800
7962261293
7962267397
7962273683
7962278444
7962286257
7962292238
7962297060
7962301515
7962307863
7962314333
7962320741
7962327028
7962331911
7962338136
7962343630
7962349367
7962354189
7962360841
7962366762
7962372560
7962377504
7962382204
7962387697
7962393983
7962398683
7962406190
7962411561
7962416872
7962422487
7962427553
7962433107
7962439760
7962445924
7962450990
7962457521
7962463014
7962467347
7962474366
7962480287
7962486512
7962492128
7962497560
7962504030
7962510377
7962516481
7962522950
7962530336
7962535035
7962541871
7962547670
7962552430
7962559693
7962566468
7962570985
7962578187
7962583131
7962588990
7962593873
7962600770
7962609437
7962614320
7962622254
7962627015
7962634766
7962639710
7962646607
7962655885
7962662598
7962669862
7962676270
7962681153
7962687318
7962696046
7962701539
7962708375
7962715150
7962721314
7962728394
7962734620
7962741150
7962748353
7962755372
7962760987
7962768921
7962774598
7962781434
7962788392
7962794129
7962801514
7962807557
7962814209
7962820740
7962826294
7962833863
7962838623
7962847534
7962853760
7962860169
7962867432
7962872498
7962880493
7962887085
7962891846
7962898743
7962905152
7962911255
7962916260
7962924072
7962928162
7962936829
7962943054
7962949280
7962955627
7962961121
7962968079
7962974976
7962981873
7962987427
7962994568
7963000793
7963007080
7963013367
7963020691
7963026550
7963034118
7963039062
7963046509
7963052978
7963059143
7963066711
7963073120
7963079529
7963086731
7963092834
7963096557
7963103881
7963112243
7963118469
7963123962
7963131042
7963137085
7963142883
7963149414
7963155944
7963162963
7963170837
7963176330
7963182189
7963188598
7963196044
7963202392
7963208923
7963217529
7963224609
7963231567
7963237731
7963244994
7963254455
7963263244
7963270629
7963277160
7963284179
7963293151
7963299926
7963307067
7963315734
7963324218
7963331298
7963337218
7963344237
7963351745
7963358214
7963367186
7963373107
7963381591
7963389037
7963396605
7963404052
7963410033
7963419188
7963425231
7963433593
7963441466
7963448424
7963454894
7963462950
7963469908
7963479125
7963486571
7963493529
7963500365
7963507323
7963511473
7963520567
7963527220
7963535155
7963543028
7963548766
7963555479
7963562376
7963569762
7963576659
7963584349
7963592161
7963600035
7963607725
7963615904
7963624266
7963631468
7963637816
7963647337
7963655272
7963661802
7963669493
7963676817
7963684446
7963691710
7963697752
7963707212
7963713743
7963721128
7963728758
7963736143
7963741941
7963749998
7963758055
7963765745
7963773802
7963781858
7963787718
7963796324
7963803770
7963811216
7963817014
7963825864
7963833921
7963840452
7963848325
7963853880
7963862669
7963870664
7963876524
7963885435
7963893430
7963899778
7963907835
7963915281
7963921140
7963928892
7963936582
7963944700
7963953550
7963961362
7963967527
7963975705
7963983640
7963991452
7963998349
7964008908
7964015989
7964025571
7964032834
7964039853
7964047910
7964055844
7964064206
7964072629
7964079465
7964089169
7964094296
7964103696
7964110898
7964119626
7964124814
7964134946
7964143552
7964150388
7964156979
7964163510
7964170041
7964178036
7964184994
7964192990
7964199765
7964208859
7964215634
7964222836
7964229550
7964236081
7964243954
7964253537
7964260312
7964268551
7964275143
7964282773
7964289669
7964297421
7964305783
7964315853
7964323666
7964329586
7964336666
7964345883
7964350399
7964359982
7964365963
7964375546
7964382504
7964389828
7964397030
7964405941
7964413754
7964420467
7964427303
7964435238
7964442623
7964449703
7964456112
7964463680
7964470333
7964478451
7964485714
7964494808
7964501888
7964509334
7964516170
7964525204
7964531490
7964539058
7964546139
7964555599
7964560665
7964569698
7964577022
7964583797
7964590572
7964596920
7964604549
7964614986
7964622737
7964629512
7964636592
7964643489
7964653438
7964663631
7964672176
7964678157
7964687251
7964695125
7964702022
7964711177
7964718868
7964728877
7964736263
7964746211
7964752376
7964760127
7964769405
7964776607
7964784297
7964793330
7964801204
7964808528
7964816157
7964823909
7964831233
7964838923
7964844661
7964853572
7964863154
7964870662
7964877131
7964884883
7964894648
7964901545
7964911921
7964918879
7964927119
7964934199
7964941828
7964948420
7964956477
7964963557
7964971858
7964978266
7964984736
7964992732
7964999384
7965005122
7965012019
7965018122
7965025874
7965029719
7965037775
7965043147
7965048823
7965054743
7965061274
7965067438
7965073115
7965079096
7965085932
7965090815
7965095576
7965102167
7965110407
7965114924
7965121027
7965126826
7965132929
7965139094
7965143915
7965150385
7965157526
7965161493
7965168451
7965174677
7965180903
7965187128
7965193110
7965199823
7965205072
7965211054
7965217768
7965222467
7965228998
7965234552
7965241266
7965245539
7965252313
7965257013
7965263239
7965268122
7965274286
7965281366
7965287775
7965293085
7965297724
7965304804
7965310236
7965314996
7965323908
7965328119
7965335016
7965339349
7965346857
7965351312
7965357538
7965364191
7965370355
7965376276
7965382684
7965389398
7965395746
7965401239
7965409051
7965414483
7965421197
7965426385
7965432611
7965439020
7965444269
7965451532
7965456598
7965463983
7965469903
7965475580
7965481012
7965487664
7965494073
7965499688
7965505975
7965511712
7965517694
7965523919
7965532098
7965539056
7965545343
7965552239
7965555780
7965562737
7965569818
7965576287
7965582696
7965588860
7965596063
7965601006
7965608086
7965614007
7965620477
7965627984
7965634881
7965643121
7965648980
7965654900
7965661370
7965667718
7965673943
7965682549
7965690972
7965696953
7965704156
7965711053
7965717339
7965724785
7965731682
7965737176
7965742486
7965749871
7965755852
7965763176
7965771294
7965776116
7965782525
7965789727
7965796318
7965801384
7965808403
7965814812
7965820977
7965827812
7965834221
7965842644
7965848015
7965854912
7965858940
7965871636
7965878716
7965882866
7965890984
7965897759
7965904717
7965911675
7965917839
7965924797
7965931938
7965938652
7965945061
7965951164
7965959709
7965967277
7965973625
7965981499
7965985283
7965994072
7966001457
7966008354
7966014213
7966020134
7966028007
7966034111
7966041252
7966047844
7966052788
7966059929
7966067314
7966073906
7966080375
7966085319
7966093254
7966098503
7966105400
7966112846
7966119010
7966125358
7966130302
7966139030
7966143974
7966152458
7966158927
7966164970
7966170829
7966175712
7966184501
7966190360
7966196952
7966202262
7966210502
7966216056
7966223380
7966230094
7966237113
7966244437
7966251456
7966258109
7966264335
7966271659
7966277824
7966284598
7966292350
7966299430
7966304435
7966311881
7966318473
7966325309
7966333365
7966341361
7966348563
7966354667
7966361686
7966367240
7966375052
7966380301
7966389884
7966397208
7966403861
7966408805
7966416373
7966420645
7966430960
7966438773
7966445914
7966453665
7966459403
7966468131
7966474234
7966482413
7966488211
7966500113
7966506827
7966515555
7966522147
7966530569
7966538443
7966547049
7966554495
7966563650
7966572806
7966580740
7966588858
7966595694
7966605704
7966612234
7966621817
7966629507
7966636465
7966643789
7966650747
7966656851
7966665274
7966670401
7966680410
7966685171
7966694693
7966701284
7966707937
7966713858
7966722708
7966729727
7966738272
7966745108
7966753958
7966760549
7966767996
7966774526
7966783499
7966788687
7966798147
7966804861
7966814443
7966820913
7966828237
7966835317
7966844106
7966852224
7966862112
7966866994
7966876028
7966882741
7966889944
7966897146
7966904836
7966912588
7966920217
7966927907
7966937124
7966943532
7966950307
7966958852
7966966359
7966973500
7966981618
7966988027
7966996206
7967003530
7967012807
7967017629
7967027089
7967036183
7967042226
7967049733
7967056874
7967064137
7967071645
7967079213
7967088002
7967094167
7967103078
7967108632
7967117116
7967121632
7967132008
7967140675
7967148793
7967158498
7967165700
7967173939
7967180287
7967188588
7967196644
7967203480
7967211598
7967219899
7967228505
7967235890
7967241749
7967249440
7967257130
7967265065
7967271107
7967280629
7967287342
7967295582
7967302418
7967311756
7967318104
7967326771
7967334034
7967343312
7967351185
7967360645
7967368214
7967375294
7967382984
7967388722
7967395619
7967403980
7967411366
7967419422
7967424122
7967436146
7967439198
7967451405
7967460804
7967467091
7967476185
7967482471
7967491688
7967497730
7967504383
7967512501
7967520801
7967527027
7967535511
7967541309
7967550098
7967555957
7967563770
7967569812
7967580982
7967587513
7967595386
7967601551
7967609302
7967617298
7967626331
7967632740
7967642078
7967648548
7967656665
7967662891
7967671558
7967677234
7967684802
7967692981
7967700549
7967708545
7967715808
7967721606
7967726123
7967736316
7967744434
7967751575
7967762134
7967768420
7967777148
7967783130
7967790881
7967796618
7967804553
7967812854
7967821338
7967829394
7967836718
7967842578
7967851184
7967857104
7967863696
7967874438
7967884204
7967890612
7967898486
7967904101
7967912707
7967917834
7967925585
7967933398
7967941882
7967947131
7967956835
7967964953
7967975512
7967983874
7967992358
7967999499
7968005969
7968012927
7968018481
7968024950
7968032519
7968039294
7968046130
7968053210
7968059313
7968066210
7968071032
7968079882
7968086779
7968092638
7968098681
7968105089
7968112108
7968116625
7968124376
7968130297
7968136889
7968142626
7968148851
7968154650
7968160814
7968166735
7968173632
7968181932
7968188158
7968193407
7968198839
7968204332
7968210192
7968217272
7968224230
7968229418
7968235948
7968239183
7968247057
7968253160
7968257128
7968264330
7968270250
7968276109
7968281664
7968287035
7968292528
7968298448
7968304979
7968309923
7968317125
7968322984
7968328172
7968333360
7968339525
7968345689
7968351427
7968356798
7968363451
7968369249
7968374376
7968379991
7968387437
7968394273
7968399888
7968405382
7968412340
7968418382
7968423753
7968429490
7968436509
7968442186
7968447801
7968454332
7968460679
7968467271
7968474290
7968481431
7968487718
7968493882
7968498460
7968504686
7968512498
7968520005
7968526597
7968532579
7968536851
7968543443
7968549790
7968556260
7968563218
7968569383
7968577134
7968583177
7968588609
7968594163
7968603013
7968610154
7968617173
7968623460
7968628953
7968636521
7968642808
7968649338
7968656296
7968661607
7968668626
7968673569
7968680039
7968686509
7968693528
7968701218
7968706162
7968713547
7968718369
7968725815
7968731614
7968739548
7968746811
7968752671
7968760239
7968766587
7968772995
7968778733
7968785691
7968794175
7968801377
7968807480
7968813217
7968819748
7968825119
7968832627
7968838242
7968846298
7968852280
7968858200
7968864914
7968869675
7968878098
7968883896
7968890183
7968895615
7968902939
7968908676
7968916306
7968922287
7968928757
7968937119
7968942612
7968949692
7968955246
7968961044
7968967270
7968973190
7968980881
7968985763
7968992782
7968999130
7969004013
7969009628
7969016525
7969023239
7969030685
7969037460
7969044540
7969051193
7969056198
7969063766
7969071090
7969077926
7969085739
7969092575
7969099594
7969106430
7969112350
7969119979
7969127670
7969135116
7969142440
7969149642
7969155685
7969164840
7969172103
7969180099
7969186996
7969195724
7969202255
7969209396
7969215987
7969225021
7969231734
7969241195
7969246566
7969255660
7969259933
7969269332
7969276229
7969281783
7969292647
7969299056
7969306685
7969313704
7969319198
7969326156
7969332808
7969340316
7969348189
7969354476
7969362166
7969367537
7969374678
7969379866
7969388289
7969394210
7969402755
7969410872
7969416609
7969422469
7969432173
7969439253
7969445967
7969452315
7969461409
7969467696
7969475508
7969481307
7969489302
7969497054
7969503645
7969511702
7969520613
7969529402
7969536482
7969544417
7969550764
7969556868
7969565169
7969571089
7969581038
7969586836
7969595808
7969604414
7969610151
7969618452
7969625349
7969634260
7969642500
7969649275
7969655928
7969661848
7969671980
7969678816
7969686506
7969693830
7969703291
7969710920
7969717634
7969724165
7969732099
7969739179
7969746259
7969753462
7969762617
7969770490
7969777876
7969786237
7969794050
7969801984
7969811201
7969820173
7969826459
7969834943
7969841474
7969847089
7969857221
7969863935
7969872236
7969879133
7969889509
7969897443
7969904035
7969912763
7969921491
7969929914
7969938154
7969946759
7969954938
7969963300
7969970441
7969978681
7969984906
7969992841
7969999738
7970010419
7970015546
7970025067
7970030133
7970039227
7970046430
7970052838
7970061688
7970070111
7970078778
7970086408
7970093915
7970099713
7970107648
7970113385
7970125470
7970131451
7970140668
7970147382
7970154034
7970162945
7970170819
7970178143
7970187543
7970193829
7970203290
7970209759
7970217083
7970223797
7970232647
7970237957
7970247052
7970253888
7970260968
7970267437
7970276471
7970283001
7970289776
7970298321
7970306011
7970312847
7970320843
7970327496
7970335430
7970342266
7970350079
7970357769
7970367291
7970374432
7970382732
7970387798
7970396771
7970403545
7970411236
7970418194
7970425152
7970432537
7970440716
7970447735
7970456280
7970463360
7970470257
7970479168
7970487224
7970492229
7970501568
7970508953
7970517132
7970522258
7970531475
7970536846
7970546306
7970551189
7970560955
7970569072
7970575969
7970583416
7970591106
7970599590
7970607830
7970614177
7970623271
7970630901
7970639079
7970647441
7970657939
7970664836
7970672160
7970682475
7970687480
7970697429
7970703166
7970715739
7970722514
7970730144
7970738444
7970744853
7970753581
7970759440
7970767192
7970773173
7970783244
7970789470
7970798686
7970804606
7970812602
7970820353
7970826457
7970834941
7970841838
7970850139
7970856791
7970864604
7970872050
7970879618
7970886149
7970893779
7970902568
7970908305
7970915202
7970922038
7970927592
7970933573
7970938517
7970945170
7970951396
7970957926
7970964335
7970971171
7970977030
7970982584
7970988322
7970993937
7971001810
7971006693
7971012186
7971017435
7971025858
7971031229
7971036906
7971043680
7971050455
7971056193
7971060160
7971067118
7971074808
7971081888
7971087137
7971093058
7971100260
7971106241
7971111490
7971120035
7971126261
7971132425
7971136820
7971143717
7971150492
7971155314
7971161783
7971165384
7971172525
7971178629
7971184305
7971190653
7971195963
7971203592
7971207071
7971213663
7971219705
7971225015
7971231790
7971236002
7971243021
7971248148
7971254801
7971261270
7971266824
7971271829
7971277994
7971285745
7971290994
7971297891
7971302286
7971308633
7971315836
7971320291
7971327920
7971333414
7971339944
7971345315
7971351907
7971357583
7971363992
7971370279
7971376443
7971383462
7971389932
7971393960
7971401651
7971408975
7971415017
7971421060
7971427835
7971433145
7971439309
7971446573
7971453286
7971459268
7971465921
7971473184
7971480874
7971484658
7971492044
7971499612
7971506875
7971514016
7971520364
7971525552
7971530618
7971538003
7971546182
7971551980
7971558938
7971565225
7971571816
7971578835
7971584390
7971592324
7971598550
7971604653
7971611306
7971618203
7971623940
7971629372
7971635903
7971643166
7971649392
7971655373
7971661965
7971666665
7971673684
7971680825
7971688698
7971692666
7971699807
7971705483
7971711831
7971718117
7971724160
7971731728
7971738625
7971744484
7971750893
7971756813
7971761757
7971768532
7971772805
7971781472
7971787758
7971794106
7971800087
7971806252
7971813637
7971821388
7971827492
7971834572
7971841591
7971847939
7971853676
7971863197
7971870644
7971878090
7971884316
7971889504
7971896767
7971904091
7971911720
7971918068
7971925758
7971932777
7971935341
7971946022
7971953651
7971959267
7971966163
7971972450
7971979042
7971986915
7971991737
7971999367
7972005287
7972012550
7972018226
7972024696
7972030128
7972037513
7972043800
7972049781
7972056923
7972064369
7972071510
7972077491
7972084999
7972091346
7972099952
7972108375
7972114906
7972122535
7972129920
7972134254
7972144019
7972148536
7972157813
7972167274
7972172645
7972180946
7972188453
7972195777
7972201942
7972208839
7972215491
7972222816
7972230750
7972237769
7972243690
7972250709
7972256934
7972262549
7972271766
7972279883
7972286902
7972292701
7972299109
7972307105
7972312781
7972321814
7972327308
7972336768
7972341895
7972353064
7972361670
7972367408
7972375952
7972382117
7972393103
7972399512
7972409217
7972413977
7972423071
7972430335
7972437415
7972446082
7972458228
7972466284
7972472327
7972480750
7972487219
7972494971
7972501501
7972512061
7972520544
7972527808
7972536047
7972543433
7972550513
7972557837
7972567480
7972575659
7972582068
7972590613
7972599402
7972606543
7972614538
7972620886
7972630346
7972638403
7972644079
7972653296
7972658667
7972666845
7972675024
7972681250
7972692419
7972701330
7972708776
7972716406
7972722204
7972729833
7972737829
7972744055
7972753759
7972759985
7972767187
7972774816
7972781408
7972789281
7972795629
7972803442
7972813207
7972819372
7972824865
7972834508
7972841222
7972849035
7972855016
7972863439
7972871496
7972879613
7972886815
7972895116
7972901586
7972909154
7972915319
7972921117
7972931127
7972939367
7972945592
7972953405
7972961156
7972967321
7972975255
7972981542
7972992955
7972999730
7973007421
7973014989
7973021947
7973027684
7973032750
7973041844
7973051122
7973058873
7973066747
7973072728
7973081029
7973086827
7973094334
7973100255
7973110692
7973117772
7973126622
7973133702
7973140721
7973146641
7973156224
7973163243
7973170567
7973177464
7973186192
7973192723
7973200413
7973207860
7973215550
7973224705
7973233189
7973241185
7973248631
7973256138
7973264744
7973272129
7973280857
7973288060
7973297032
7973304539
7973311680
7973320164
7973327793
7973335179
7973342014
7973352146
7973358738
7973366856
7973373325
7973381748
7973388279
7973395603
7973402744
7973412754
7973418003
7973427402
7973433689
7973441196
7973448398
7973457615
7973465549
7973472629
7973480259
7973489475
7973496006
7973502781
7973509861
7973519321
7973528049
7973535801
7973544223
7973552951
7973559726
7973567234
7973573520
7973582553
7973588108
7973597934
7973605686
7973613010
7973620822
7973628452
7973634128
7973642307
7973649021
7973658298
7973667331
7973674960
7973680881
7973688571
7973695285
7973703708
7973711459
7973719577
7973726108
7973734103
7973741855
7973749301
7973752109
7973764255
7973772799
7973781405
7973788730
7973794650
7973800082
7973809176
7973816501
7973822238
7973830844
7973837558
7973844821
7973850070
7973856601
7973861605
7973869296
7973876620
7973883334
7973888583
7973895663
7973901889
7973906466
7973913424
7973920321
7973926486
7973932772
7973939669
7973943087
7973952548
7973958224
7973963107
7973972750
7973977877
7973986178
7973989779
7973997347
7974004977
7974011080
7974019076
7974024447
7974031161
7974037081
7974042757
7974048311
7974054537
7974062288
7974067660
7974073397
7974076388
7974084566
7974089815
7974095919
7974102694
7974107454
7974113619
7974119112
7974124788
7974130953
7974135714
7974142427
7974148165
7974153780
7974160189
7974164888
7974171236
7974177095
7974183016
7974189913
7974194246
7974201143
7974206209
7974212190
7974218355
7974224764
7974229830
7974234285
7974241182
7974248079
7974254305
7974260835
7974268465
7974273836
7974279695
7974285188
7974291963
7974297517
7974303743
7974310030
7974317415
7974323152
7974327425
7974334627
7974340364
7974347139
7974353364
7974360078
7974367280
7974372468
7974378694
7974385042
7974392488
7974398774
7974404695
7974412324
7974417512
7974425447
7974432161
7974438997
7974445527
7974451936
7974457978
7974464936
7974471528
7974477693
7974485383
7974492402
7974497651
7974506440
7974513703
7974523164
7974530610
7974536958
7974544221
7974549897
7974555573
7974561738
7974569062
7974576569
7974583344
7974589204
7974594270
7974601105
7974608613
7974613435
7974623566
7974629365
7974636445
7974643098
7974648469
7974655182
7974661530
7974668183
7974675080
7974679596
7974687348
7974695099
7974700287
7974706635
7974715119
7974721283
7974728058
7974733429
7974740693
7974745942
7974753571
7974761505
7974766815
7974771210
7974779084
7974785736
7974790192
7974797760
7974804169
7974811249
7974815216
7974823761
7974830597
7974835968
7974843781
7974851349
7974858978
7974865997
7974870819
7974878326
7974883453
7974891327
7974897064
7974904388
7974910187
7974916962
7974922577
7974930328
7974937713
7974942474
7974950714
7974957733
7974964935
7974972442
7974979645
7974985931
7974992462
7974999481
7975008880
7975015899
7975022186
7975028167
7975036224
7975043060
7975051178
7975059661
7975066619
7975074127
7975080169
7975088592
7975094879
7975103790
7975109161
7975117889
7975122894
7975136260
7975143707
7975152190
7975160674
7975168609
7975177459
7975184844
7975191802
7975198882
7975205901
7975213042
7975222686
7975229522
7975235686
7975244353
7975251800
7975258636
7975266692
7975273284
7975282134
7975289214
7975295073
7975302581
7975309844
7975315459
7975321868
7975328154
7975335357
7975341948
7975350798
7975359465
7975367156
7975374846
7975381499
7975390227
7975397063
7975404814
7975412383
7975420134
7975425993
7975432463
7975440947
7975449431
7975457976
7975464018
7975471770
7975478362
7975487212
7975495268
7975503203
7975514189
7975521391
7975528532
7975536101
7975542570
7975551115
7975559050
7975565336
7975577604
7975584379
7975592131
7975599699
7975602385
7975613066
7975618315
7975627409
7975636564
7975643034
7975648405
7975658171
7975665007
7975672880
7975678434
7975687040
7975697294
7975703825
7975712065
7975717863
7975726652
7975732572
7975738065
7975748869
7975757902
7975763822
7975772184
7975778593
7975786588
7975792387
7975800993
7975807401
7975817777
7975826383
7975833158
7975841093
7975848661
7975854642
7975863981
7975871976
7975878690
7975888089
7975895414
7975901273
7975909696
7975916288
7975925260
7975931363
7975940335
7975946439
7975954740
7975962430
7975968839
7975976712
7975982816
7975990506
7975998746
7976005887
7976014493
7976021573
7976026944
7976035306
7976040372
7976050626
7976059354
7976067654
7976074307
7976081937
7976089932
7976095670
7976103970
7976110989
7976120145
7976126614
7976134793
7976142544
7976149808
7976155606
7976163052
7976172207
7976179593
7976185391
7976193631
7976202420
7976209378
7976214932
7976222927
7976229336
7976238247
7976244595
7976252102
7976258450
7976266323
7976272915
7976280606
7976287808
7976297573
7976302456
7976311855
7976318997
7976325649
7976332790
7976339871
7976350430
7976359646
7976364529
7976373501
7976379787
7976387051
7976393825
7976402370
7976410488
7976417934
7976424404
7976433498
7976441189
7976447475
7976455105
7976463466
7976471340
7976477138
7976487209
7976493557
7976500820
7976509548
7976518215
7976525478
7976532802
7976539882
7976547573
7976555934
7976562282
7976571437
7976578945
7976586208
7976595302
7976600795
7976610072
7976617092
7976625575
7976633205
7976639736
7976648708
7976657314
7976665187
7976672755
7976680629
7976686305
7976693690
7976701808
7976710475
7976717128
7976725734
7976734279
7976739833
7976748195
7976756495
7976763087
7976770045
7976777797
7976783656
7976788783
7976794886
7976799891
7976807826
7976815394
7976821498
7976826808
7976833033
7976838404
7976844447
7976849208
7976854518
7976861354
7976866847
7976874293
7976879603
7976885523
7976890895
7976896754
7976905604
7976910853
7976916834
7976923060
7976927882
7976934046
7976940943
7976947047
7976952601
7976958765
7976964320
7976969019
7976975489
7976983668
7976990137
7976996302
7977000513
7977007654
7977014185
7977019984
7977025477
7977031031
7977037256
7977042689
7977048792
7977053309
7977059839
7977066126
7977071863
7977078333
7977083155
7977090540
7977093653
7977101831
7977106409
7977112452
7977118982
7977123255
7977129908
7977136255
7977142542
7977149134
7977154261
7977160669
7977167688
7977171839
7977179712
7977185022
7977193018
7977198511
7977205774
7977211267
7977216089
7977223108
7977231409
7977237695
7977244043
7977250452
7977255945
7977261865
7977268762
7977275842
7977281946
7977289331
7977294946
7977301233
7977308069
7977313440
7977320886
7977326562
7977333764
7977344629
7977350244
7977357690
7977365075
7977371606
7977378198
7977383142
7977390954
7977397424
7977403955
7977411828
7977416833
7977424096
7977429589
7977435632
7977442102
7977448571
7977453637
7977463647
7977470117
7977476953
7977482568
7977488305
7977496545
7977504785
7977510400
7977517968
7977522912
7977529199
7977537866
7977543298
7977551049
7977557458
7977563683
7977568200
7977572411
7977581139
7977587975
7977593652
7977601342
7977608544
7977614342
7977621483
7977627892
7977633996
7977642052
7977648522
7977654931
7977661278
7977668541
7977674462
7977680077
7977687951
7977694420
7977698754
7977706017
7977713036
7977717736
7977726952
7977732689
7977740319
7977747032
7977752953
7977760094
7977766381
7977773094
7977778588
7977785729
7977791161
7977799217
7977803429
7977812584
7977820274
7977828270
7977835106
7977840111
7977848961
7977854637
7977860985
7977869102
7977875633
7977883079
7977889061
7977896812
7977902855
7977909386
7977914024
7977921654
7977932823
7977938621
7977946556
7977953941
7977961021
7977966881
7977980613
7977988060
7977995079
7978002647
7978010276
7978017112
7978023155
7978032676
7978040916
7978047630
7978055686
7978063133
7978069419
7978076316
7978081748
7978089622
7978098594
7978104514
7978111411
7978118369
7978125205
7978131553
7978142905
7978151878
7978158836
7978166465
7978173423
7978179649
7978188132
7978193687
7978201011
7978207481
7978215964
7978223472
7978230491
7978236716
7978243918
7978250876
7978259604
7978267295
7978275718
7978281882
7978288657
7978297873
7978304648
7978310996
7978318259
7978328086
7978332968
7978342612
7978349265
7978357260
7978364401
7978370932
7978382346
7978389853
7978397482
7978405905
7978414023
7978422080
7978430014
7978437338
7978447409
7978455222
7978463828
7978469809
7978476706
7978482504
7978491659
7978499472
7978509421
7978515036
7978524801
7978533102
7978539267
7978547445
7978553976
7978564352
7978572531
7978579794
7978585653
7978591208
7978600302
7978606039
7978615072
7978623983
7978632711
7978639425
7978647116
7978652609
7978660360
7978665182
7978675985
7978685201
7978693685
7978700155
7978707784
7978713949
7978722006
7978730673
7978736776
7978747213
7978753317
7978760580
7978768697
7978776815
7978782980
7978790670
7978797445
7978807332
7978814352
7978823629
7978830099
7978837972
7978846578
7978854940
7978862996
7978870992
7978877584
7978885579
7978892110
7978900777
7978907552
7978915609
7978922994
7978930318
7978936910
7978946004
7978951436
7978960591
7978968282
7978975423
7978987081
7978995503
7979001180
7979008809
7979018697
7979024739
7979033223
7979039876
7979048299
7979056599
7979064595
7979072652
7979079365
7979085530
7979093098
7979100728
7979108723
7979115742
7979125447
7979130208
7979140217
7979145466
7979154744
7979163960
7979172871
7979181111
7979187092
7979195820
7979201924
7979210713
7979218464
7979226765
7979234577
7979243977
7979251179
7979258686
7979265217
7979273762
7979281697
7979289875
7979297016
7979304951
7979311787
7979319782
7979325276
7979334675
7979342060
7979349567
7979356464
7979364643
7979372211
7979379841
7979386738
7979394306
7979401752
7979411274
7979418110
7979425617
7979432026
7979440449
7979447284
7979454670
7979462055
7979469989
7979476886
7979485126
7979491596
7979498798
7979507770
7979515644
7979523822
7979532550
7979539997
7979547199
7979553119
7979560871
7979569293
7979574542
7979583942
7979592182
7979599079
7979606525
7979612994
7979622272
7979628009
7979635883
7979642352
7979651813
7979658282
7979667987
7979674518
7979684772
7979691791
7979700458
7979707721
7979716510
7979723895
7979731402
7979738055
7979744525
7979750750
7979758502
7979764422
7979769244
7979776812
7979783770
7979788043
7979796466
7979803851
7979809893
7979816180
7979820941
7979827777
7979834124
7979840228
7979845965
7979852984
7979858905
7979866656
7979873065
7979880267
7979886004
7979893389
7979900958
7979907183
7979912798
7979919390
7979926165
7979932024
7979937151
7979945513
7979951800
7979957659
7979965044
7979970049
7979977923
7979985064
7979991167
7979998308
7980002886
7980008745
7980014971
7980019915
7980027056
7980032610
7980037371
7980043291
7980048967
7980054461
7980059099
7980063921
7980071001
7980074297
7980082903
7980089312
7980093584
7980100603
7980106524
7980112017
7980119158
7980123918
7980131243
7980135088
7980141619
7980150713
7980155840
7980162187
7980167375
7980174639
7980181963
7980187395
7980194353
7980198930
7980206560
7980212419
7980218279
7980224748
7980230974
7980237260
7980244524
7980249284
7980256364
7980261369
7980268816
7980276567
7980283220
7980288896
7980294816
7980301103
7980307390
7980314287
7980319597
7980326799
7980333391
7980339189
7980345842
7980352311
7980358110
7980367082
7980373246
7980378495
7980385637
7980393754
7980399614
7980406388
7980413346
7980420243
7980428117
7980433915
7980440934
7980446305
7980453080
7980460893
7980467057
7980473100
7980477555
7980484086
7980490312
7980496842
7980504472
7980510575
7980517106
7980523148
7980529740
7980536149
7980543107
7980551163
7980557816
7980563126
7980569596
7980575944
7980581803
7980589249
7980595170
7980603776
7980610184
7980616044
7980623429
7980628373
7980635819
7980642350
7980648819
7980655472
7980659989
7980666886
7980673172
7980679093
7980684891
7980692154
7980698380
7980704361
7980710770
7980717484
7980725418
7980729691
7980737747
7980745011
7980752152
7980759537
7980764054
7980770889
7980776871
7980786209
7980791580
7980800858
7980807327
7980815079
7980822891
7980828995
7980836319
7980844864
7980851089
7980860245
7980868668
7980875320
7980882400
7980891006
7980898086
7980907730
7980915115
7980922745
7980930069
7980939041
7980946060
7980952591
7980961502
7980968277
7980975845
7980983535
7980989029
7980999649
7981005813
7981013687
7981021438
7981029373
7981036331
7981044204
7981051834
7981061538
7981068801
7981075759
7981082656
7981089858
7981097854
7981103774
7981113662
7981120254
7981127151
7981133071
7981141006
7981148025
7981154311
7981161941
7981168533
7981174453
7981183242
7981187453
7981195510
7981202468
7981209060
7981216506
7981225234
7981229812
7981239333
7981246657
7981254287
7981262526
7981270278
7981277480
7981287734
7981294204
7981302260
7981309462
7981316603
7981324233
7981331435
7981342116
7981350173
7981356154
7981364028
7981372145
7981378066
7981385817
7981393569
7981398879
7981409377
7981415175
7981424635
7981432753
7981438795
7981443373
7981454176
7981460463
7981471144
7981478468
7981484206
7981492811
7981500685
7981505507
7981515150
7981525221
7981531630
7981539015
7981547377
7981554213
7981561781
7981568312
7981574293
7981585402
7981593580
7981599134
7981606825
7981614942
7981620619
7981629713
7981635694
7981644422
7981653334
7981661085
7981668714
7981674269
7981682081
7981690504
7981696851
7981706739
7981713514
7981721388
7981727796
7981736646
7981743055
7981752149
7981761732
7981770826
7981778272
7981787427
7981795362
7981801893
7981808973
7981817212
7981824232
7981831922
7981839490
7981847242
7981851941
7981862012
7981867078
7981878553
7981888562
7981895032
7981903821
7981909619
7981918042
7981923780
7981932141
7981938977
7981948621
7981954907
7981964856
7981971570
7981978833
7981984815
7981996106
7982003003
7982010144
7982017468
7982025647
7982032727
7982040540
7982046887
7982054883
7982061841
7982069470
7982075940
7982086194
7982091077
7982100598
7982108594
7982117566
7982125622
7982134167
7982142468
7982149243
7982157300
7982164135
7982171460
7982178418
7982187756
7982193921
7982202221
7982208386
7982216748
7982222973
7982231213
7982237377
7982246472
7982255200
7982262402
7982270092
7982276867
7982284557
7982291210
7982297863
7982307751
7982315868
7982322399
7982330212
7982336987
7982345104
7982352306
7982360912
7982369640
7982375744
7982383617
7982389721
7982397411
7982405102
7982411632
7982419750
7982426647
7982437084
7982444469
7982450878
7982455333
7982465343
7982470287
7982479259
7982488475
7982496959
7982502941
7982512828
7982518749
7982526256
7982534862
7982543651
7982549877
7982560375
7982567699
7982573802
7982578319
7982589244
7982595775
7982606822
7982613963
7982622020
7982630016
7982635875
7982643321
7982650829
7982659190
7982668162
7982675243
7982682628
7982690257
7982696361
7982701610
7982707774
7982714976
7982723704
7982728343
7982731700
7982740428
7982746470
7982753306
7982759532
7982764476
7982771739
7982778270
7982783824
7982788340
7982794871
7982801585
7982806346
7982814830
7982819651
7982827586
7982831797
7982838816
7982844554
7982851390
7982857981
7982863230
7982870555
7982876048
7982882945
7982888438
7982894907
7982902232
7982909129
7982915476
7982920847
7982926585
7982933848
7982938059
7982945322
7982949961
7982955942
7982962534
7982967539
7982973276
7982979258
7982985239
7982989573
7982997874
7983003245
7983009287
7983015024
7983022043
7983026316
7983032663
7983037119
7983044138
7983048899
7983054758
7983061533
7983067759
7983073801
7983078623
7983084909
7983091257
7983096262
7983104624
7983111399
7983117868
7983123911
7983129343
7983134714
7983141123
7983148142
7983153574
7983161203
7983166635
7983174326
7983181284
7983185617
7983193002
7983200021
7983205515
7983211130
7983217416
7983224069
7983231088
7983237741
7983242990
7983249521
7983254648
7983261850
7983267892
7983274728
7983281808
7983288949
7983296335
7983301462
7983307992
7983313547
7983320382
7983327585
7983333871
7983341073
7983346078
7983353830
7983358346
7983366159
7983371713
7983378122
7983385690
7983391244
7983398812
7983404489
7983410775
7983417733
7983423654
7983431954
7983436959
7983443795
7983447457
7983455148
7983462777
7983469125
7983474069
7983479867
7983485787
7983491769
7983497384
7983505685
7983511666
7983517831
7983525216
7983531930
7983538888
7983545174
7983551156
7983558724
7983563973
7983571419
7983575204
7983584542
7983590829
7983595955
7983604561
7983610604
7983616768
7983623848
7983629830
7983637276
7983643197
7983651986
7983659066
7983665718
7983672188
7983677498
7983685921
7983694222
7983700875
7983707527
7983712776
7983719857
7983726998
7983732796
7983741524
7983749581
7983755989
7983761971
7983769173
7983774788
7983782478
7983789192
7983795601
7983803047
7983808174
7983816658
7983822334
7983829903
7983836983
7983844307
7983848701
7983856514
7983863411
7983870247
7983877144
7983885689
7983893928
7983900276
7983908821
7983916084
7983923042
7983930793
7983937263
7983946602
7983952461
7983960945
7983966377
7983974434
7983979805
7983987739
7983995674
7984002449
7984009590
7984016242
7984023628
7984029975
7984036628
7984044624
7984051948
7984058845
7984065559
7984072700
7984080146
7984085639
7984093391
7984102485
7984109382
7984115791
7984124274
7984130988
7984136298
7984142341
7984151069
7984156989
7984166755
7984170844
7984180732
7984187140
7984195136
7984203620
7984209601
7984221198
7984227607
7984235724
7984243476
7984250739
7984258674
7984265204
7984273322
7984280097
7984288703
7984291266
7984302436
7984309943
7984318122
7984325751
7984332282
7984343207
7984350409
7984358283
7984367072
7984374335
7984383063
7984390265
7984396674
7984405096
7984409735
7984416876
7984424323
7984431525
7984438666
7984445258
7984453192
7984462775
7984469794
7984476019
7984484808
7984491095
7984499335
7984506170
7984513006
7984520636
7984527716
7984536688
7984543219
7984551031
7984558050
7984566046
7984573858
7984580206
7984587042
7984596624
7984602178
7984612188
7984620977
7984630071
7984637274
7984645208
7984652044
7984660345
7984666692
7984674871
7984681341
7984687627
7984698736
7984705572
7984713445
7984719244
7984727361
7984733404
7984743169
7984751348
7984758733
7984765020
7984773504
7984779424
7984787420
7984793218
7984801519
7984810125
7984817571
7984825200
7984832403
7984839299
7984848089
7984854375
7984861333
7984868047
7984876104
7984883123
7984892583
7984897344
7984906377
7984913640
7984922002
7984930669
7984937261
7984945622
7984951665
7984959477
7984967900
7984974858
7984981023
7984992192
7984998296
7985006596
7985014653
7985021672
7985028264
7985035283
7985045476
7985053960
7985061345
7985068425
7985075627
7985084660
7985092351
7985099675
7985108586
7985118474
7985123662
7985133854
7985142765
7985151005
7985159489
7985166325
7985175053
7985182194
7985190007
7985198551
7985206547
7985213932
7985223332
7985228886
7985238957
7985247746
7985256413
7985259525
7985271793
7985276798
7985286198
7985293095
7985304569
7985312016
7985319706
7985326664
7985332523
7985337162
7985346867
7985356083
7985362491
7985367618
7985378483
7985384647
7985392582
7985401249
7985407413
7985417240
7985423832
7985431522
7985437320
7985441837
7985452701
7985458988
7985467655
7985476139
7985482425
7985490482
7985498844
7985506229
7985511844
7985519107
7985527591
7985535587
7985543888
7985552127
7985558414
7985565921
7985574161
7985581851
7985588443
7985598941
7985607059
7985612613
7985620364
7985625858
7985633365
7985638736
7985643741
7985652103
7985656009
7985663211
7985669009
7985675174
7985678592
7985686709
7985694644
7985699344
7985705935
7985710574
7985717288
7985722110
7985728885
7985734866
7985741031
7985747317
7985753115
7985759951
7985766055
7985773318
7985781924
7985788028
7985794253
7985800784
7985807803
7985814028
7985820315
7985827395
7985833743
7985840090
7985844973
7985850894
7985858035
7985863589
7985870303
7985874941
7985881533
7985886599
7985892214
7985899050
7985903750
7985911135
7985915591
7985922976
7985929140
7985934817
7985939638
7985946719
7985952029
7985958437
7985963320
7985970583
7985976748
7985983523
7985989199
7985994204
7986000490
7986006594
7986011721
7986018435
7986022951
7986030214
7986033815
7986041933
7986046938
7986052370
7986059328
7986066774
7986073427
7986081606
7986088564
7986094606
7986102297
7986108644
7986114809
7986120241
7986127687
7986132875
7986139223
7986146303
7986153749
7986160524
7986166383
7986173036
7986177980
7986191591
7986201295
7986209962
7986216676
7986220338
7986229616
7986234560
7986241090
7986248170
7986253725
7986261598
7986268373
7986274293
7986281495
7986288453
7986294862
7986302308
7986313844
7986321718
7986329774
7986338441
7986344484
7986351197
7986358400
7986365846
7986372560
7986378480
7986384645
7986391786
7986399354
7986405702
7986411378
7986418763
7986425294
7986431581
7986437928
7986444581
7986450807
7986456971
7986463868
7986471314
7986475770
7986482118
7986489076
7986495728
7986501099
7986508607
7986515504
7986521424
7986527711
7986534669
7986541688
7986547059
7986554078
7986560181
7986565735
7986570801
7986578614
7986586609
7986593567
7986599244
7986605408
7986611817
7986618409
7986624451
7986633728
7986640076
7986647767
7986654908
7986660340
7986666932
7986674317
7986680909
7986687195
7986693848
7986701050
7986707947
7986714600
7986722107
7986727722
7986735535
7986742615
7986750183
7986754456
7986761963
7986768189
7986775635
7986783508
7986789978
7986797730
7986803711
7986810974
7986817383
7986827026
7986836487
7986842529
7986850464
7986857422
7986864441
7986869873
7986873962
7986884094
7986891601
7986900451
7986906311
7986913818
7986921875
7986928161
7986935974
7986942138
7986951721
7986959228
7986967407
7986973693
7986980773
7986987243
7986995605
7987002075
7987009033
7987015747
7987024475
7987028869
7987038757
7987044677
7987052612
7987060241
7987068725
7987075744
7987080871
7987088866
7987096923
7987103332
7987112853
7987119872
7987126403
7987134338
7987140624
7987147765
7987153808
7987161681
7987169555
7987176574
7987185119
7987191161
7987198546
7987207152
7987213744
7987221984
7987230834
7987236998
7987246154
7987252135
7987259764
7987267455
7987270140
7987281127
7987290770
7987297789
7987306822
7987313170
7987322386
7987329955
7987337645
7987345275
7987353819
7987361144
7987368041
7987374815
7987382018
7987389342
7987395811
7987403624
7987411253
7987418578
7987425658
7987432249
7987439085
7987446593
7987453612
7987461485
7987466978
7987475584
7987482054
7987489622
7987496824
7987503966
7987511107
7987520018
7987527891
7987535460
7987543455
7987550047
7987554686
7987565733
7987576231
7987582457
7987591185
7987597288
7987605528
7987611631
7987617613
7987627256
7987635069
7987644895
7987653013
7987659178
7987667539
7987675535
7987682066
7987690427
7987699705
7987706663
7987715635
7987721738
7987728452
7987736387
7987743528
7987750852
7987758237
7987766904
7987773740
7987780332
7987788633
7987794858
7987802488
7987809141
7987818296
7987825315
7987833921
7987839780
7987846799
7987854734
7987860471
7987869382
7987879453
7987885800
7987893674
7987901975
7987908994
7987914792
7987919309
7987929807
7987940915
7987947385
7987955869
7987964536
7987972958
7987981870
7987991635
7987999570
7988006406
7988015561
7988023679
7988026181
7988037472
7988042355
7988052914
7988059811
7988070126
7988077206
7988085019
7988087704
7988098507
7988103146
7988111874
7988121762
7988128415
7988133603
7988143124
7988147702
7988158505
7988164059
7988171627
7988182736
7988188961
7988193478
7988204403
7988209103
7988219479
7988224667
7988233578
7988244015
7988252255
7988254879
7988266232
7988271542
7988281857
7988289791
7988296749
7988305538
7988312130
7988318111
7988327938
7988335018
7988342647
7988350338
7988357235
7988366085
7988373165
7988382137
7988388241
7988396724
7988403377
7988411373
7988420345
7988429073
7988435604
7988445675
7988451961
7988459713
7988468257
7988474727
7988483577
7988491329
7988500118
7988506587
7988514888
7988520687
7988529048
7988536189
7988543208
7988550166
7988557430
7988565791
7988572139
7988579524
7988585689
7988593440
7988600093
7988607722
7988614680
7988622493
7988629268
7988634517
7988641719
7988649531
7988655574
7988661677
7988668391
7988675288
7988678828
7988687678
7988694819
7988700923
7988707026
7988711787
7988718989
7988725886
7988732051
7988738215
7988743647
7988750727
7988757563
7988762690
7988768000
7988774348
7988780574
7988786738
7988793574
7988798091
7988805232
7988810053
7988815974
7988821467
7988828791
7988834467
7988839655
7988845027
7988851252
7988857600
7988865900
7988870783
7988877314
7988883051
7988888544
7988894648
7988898615
7988906794
7988912287
7988917902
7988923151
7988930048
7988935725
7988941706
7988946833
7988952082
7988959162
7988962153
7988969111
7988975336
7988981013
7988987482
7988992426
7989000116
7989003595
7989013422
7989019159
7989025812
7989033991
7989039972
7989046625
7989052668
7989058161
7989064142
7989070978
7989077692
7989083918
7989089716
7989095453
7989100824
7989106195
7989112909
7989119074
7989124811
7989132257
7989137201
7989143366
7989148370
7989156793
7989163812
7989169916
7989175958
7989180780
7989188104
7989194879
7989200861
7989206659
7989213800
7989219842
7989226923
7989232782
7989238824
7989244989
7989252252
7989260431
7989266961
7989273004
7989278558
7989284540
7989291009
7989296380
7989304315
7989311822
7989317315
7989322564
7989329766
7989334893
7989342401
7989350763
7989355706
7989362664
7989369561
7989375177
7989381768
7989387872
7989393670
7989400872
7989407647
7989413568
7989419976
7989426385
7989433404
7989438226
7989446404
7989453545
7989459771
7989465814
7989473565
7989479729
7989486993
7989493768
7989501275
7989507622
7989514031
7989519219
7989526299
7989535882
7989541497
7989547906
7989554070
7989560479
7989567437
7989574578
7989580681
7989588189
7989595757
7989602044
7989607842
7989614617
7989622185
7989628106
7989635918
7989642144
7989648552
7989654778
7989661370
7989668206
7989673638
7989681389
7989686272
7989693657
7989701409
7989706719
7989714653
7989723320
7989730278
7989736260
7989742607
7989748894
7989753960
7989761345
7989768486
7989775261
7989780388
7989787529
7989795219
7989802483
7989810051
7989816154
7989825249
7989830925
7989838432
7989843925
7989851799
7989859733
7989866325
7989873222
7989881706
7989886589
7989894767
7989900627
7989907951
7989914055
7989921440
7989929680
7989937675
7989945182
7989952140
7989960624
7989968132
7989976127
7989983573
7989992179
7989997001
7990007682
7990012992
7990021232
7990028251
7990035148
7990044914
7990053275
7990059440
7990067863
7990074210
7990080070
7990088676
7990095756
7990104362
7990113761
7990121024
7990127006
7990135551
7990141898
7990150199
7990156669
7990165153
7990172049
7990179679
7990187308
7990195426
7990201590
7990208487
7990217887
7990226493
7990234916
7990243460
7990249381
7990257804
7990266776
7990273307
7990282584
7990289725
7990298392
7990306143
7990312857
7990320548
7990327078
7990336356
7990345755
7990352164
7990357047
7990367545
7990373099
7990381583
7990390921
7990397452
7990407645
7990414053
7990422171
7990428152
7990435965
7990443899
7990450857
7990457449
7990467703
7990476736
7990483877
7990490164
7990498953
7990505056
7990513418
7990520437
7990529776
7990535940
7990543631
7990551382
7990559622
7990566824
7990574697
7990582266
7990590933
7990597097
7990605581
7990612051
7990620657
7990626516
7990635488
7990641775
7990650686
7990658498
7990665212
7990673025
7990679556
7990687307
7990694326
7990700307
7990710073
7990719106
7990726003
7990734243
7990741018
7990748891
7990754568
7990763235
7990772085
7990777944
7990782461
7990793203
7990797963
7990808095
7990813161
7990822561
7990827443
7990836782
7990843740
7990851308
7990857778
7990866628
7990875112
7990882741
7990891347
7990898122
7990905995
7990913564
7990918202
7990927236
7990933888
7990942311
7990948293
7990956593
7990963124
7990971547
7990978078
7990986745
7990993947
7991002248
7991009206
7991018239
7991026234
7991035023
7991043629
7991050709
7991060231
7991067921
7991078480
7991085438
7991092946
7991101552
7991109059
7991115284
7991122609
7991129567
7991137623
7991144520
7991151966
7991157826
7991166798
7991173268
7991180958
7991187184
7991197193
7991204029
7991211170
7991217091
7991226002
7991232472
7991239613
7991246693
7991256519
7991262928
7991272205
7991278553
7991285999
7991294178
7991300404
7991306995
7991316334
7991325062
7991332203
7991338184
7991345753
7991353870
7991361011
7991368335
7991379261
7991385364
7991392444
7991400379
7991406971
7991415393
7991424060
7991430652
7991440052
7991446399
7991454456
7991460437
7991468189
7991477466
7991484668
7991491321
7991501758
7991508655
7991515796
7991524158
7991530811
7991536792
7991544483
7991551074
7991558704
7991565479
7991572742
7991578906
7991585010
7991591052
7991596118
7991605701
7991610767
7991617419
7991622180
7991628528
7991633716
7991641589
7991646655
7991653003
7991659595
7991665576
7991670642
7991676928
7991683886
7991690112
7991696887
7991704089
7991709033
7991717212
7991723864
7991730456
7991737536
7991743701
7991750109
7991756823
7991763171
7991769335
7991776477
7991783923
7991789904
7991796374
7991802416
7991808459
7991815539
7991822497
7991828356
7991833178
7991839892
7991845385
7991850451
7991857409
7991862597
7991868639
7991875048
7991880907
7991886217
7991893725
7991899889
7991906237
7991912157
7991917406
7991922289
7991928332
7991934984
7991941393
7991947252
7991952013
7991958666
7991965258
7991970995
7991976793
7991983751
7991990099
7991995836
7992001391
7992008654
7992014757
7992019823
7992026476
7992032518
7992038988
7992044908
7992050951
7992055590
7992063036
7992070055
7992075609
7992083238
7992089586
7992094957
7992100023
7992107652
7992114305
7992121568
7992126207
7992132860
7992140367
7992147142
7992152757
7992160143
7992167284
7992172533
7992180467
7992186876
7992192918
7992199510
7992207017
7992212205
7992219163
7992226366
7992232957
7992239122
7992246141
7992251695
7992260179
7992265733
7992272020
7992277940
7992285569
7992291917
7992299058
7992307664
7992312608
7992320237
7992325914
7992332688
7992340745
7992347215
7992353685
7992360643
7992366258
7992372056
7992378160
7992384324
7992391465
7992399583
7992406785
7992412766
7992418199
7992425340
7992430467
7992437608
7992445359
7992452378
7992458848
7992463609
7992471116
7992476182
7992482774
7992488511
7992496629
7992502976
7992507920
7992516160
7992522751
7992528062
7992536301
7992542100
7992548813
7992554734
7992560776
7992567246
7992574692
7992580857
7992587510
7992595322
7992601609
7992607895
7992614914
7992622300
7992629502
7992637131
7992644455
