8711619116
8711624670
8711630347
8711635474
8711641150
8711646887
8711652258
8711658606
8711664648
8711670019
8711676123
8711681494
8711688086
8711694677
8711700171
8711706579
8711711828
8711720495
8711727758
8711733252
8711741064
8711748449
8711756750
8711764746
8711775427
8711784094
8711790075
8711796667
8711805029
8711813452
8711819433
8711829382
8711836828
8711844396
8711850439
8711858129
8711864599
8711871496
8711879614
8711884679
8711892309
8711898901
8711906347
8711911840
8711921545
8711924963
8711934301
8711941259
8711948949
8711955602
8711961523
8711968358
8711977758
8711982763
8711990819
8711998266
8712005163
8712012914
8712020360
8712028661
8712032262
8712043004
8712046483
8712056554
8712062719
8712071569
8712078282
8712086644
8712093724
8712101903
8712107213
8712115331
8712123754
8712132237
8712139928
8712148045
8712155248
8712161473
8712169164
8712174840
8712187230
8712194127
8712202550
8712210057
8712217320
8712224095
8712231358
8712238072
8712245701
8712253514
8712259068
8712268651
8712275731
8712283604
8712289830
8712298008
8712305882
8712312901
8712320836
8712326390
8712335789
8712339451
8712350499
8712356907
8712365147
8712372837
8712380101
8712386448
8712393772
8712401890
8712411106
8712420262
8712434117
8712446385
8712458836
8712470188
8712479771
8712489903
8712498692
8712508579
8712517002
8712523960
8712532322
8712538364
8712546238
8712553318
8712559421
8712567051
8712574375
8712583652
8712589084
8712596836
8712603733
8712610080
8712615390
8712623447
8712632236
8712639133
8712646946
8712653537
8712658664
8712666782
8712672824
8712683689
8712692234
8712699375
8712706272
8712713291
8712719394
8712727512
8712735202
8712740756
8712750827
8712757541
8712764194
8712772067
8712778476
8712786166
8712797092
8712804111
8712812961
8712819736
8712826816
8712833774
8712840793
8712848422
8712855624
8712863376
8712872104
8712878268
8712884372
8712892917
8712900180
8712906405
8712914401
8712922702
8712930697
8712937777
8712944552
8712949862
8712958773
8712966037
8712975863
8712979647
8712989657
8712995333
8713002047
8713010043
8713016757
8713023898
8713032809
8713039095
8713047274
8713053744
8713060397
8713068087
8713076876
8713084383
8713093417
8713098910
8713108981
8713120516
8713127901
8713136812
8713149996
8713158968
8713169466
8713175265
8713183626
8713192965
8713200350
8713206331
8713216402
8713224337
8713232393
8713238802
8713247164
8713256136
8713263582
8713270906
8713276461
8713285066
8713292452
8713300386
8713306490
8713314424
8713321565
8713329439
8713334749
8713342745
8713348055
8713357088
8713362764
8713372530
8713378755
8713387605
8713393526
8713401949
8713405489
8713415437
8713423311
8713431489
8713437898
8713446077
8713451631
8713459627
8713466463
8713474580
8713483980
8713489412
8713499543
8713507661
8713514131
8713520601
8713530549
8713539216
8713548310
8713554170
8713562532
8713570588
8713578401
8713585969
8713594331
8713603669
8713609529
8713616609
8713624055
8713631135
8713638581
8713646638
8713655244
8713661775
8713669709
8713676911
8713684785
8713691438
8713701508
8713709626
8713716889
8713724335
8713731721
8713739045
8713746430
8713754365
8713762421
8713769745
8713776887
8713783967
8713791779
8713798981
8713805878
8713815705
8713822541
8713832550
8713845856
8713853974
8713861420
8713869904
8713879242
8713886505
8713896881
8713903473
8713914581
8713923309
8713931244
8713938385
8713946198
8713954437
8713961823
8713969696
8713976288
8713984283
8713992462
8714001129
8714009674
8714016998
8714025604
8714032806
8714041046
8714050323
8714056244
8714061798
8714069305
8714075104
8714082000
8714087799
8714095428
8714101959
8714108429
8714115326
8714120391
8714126739
8714133392
8714139373
8714144683
8714153656
8714160064
8714165924
8714172821
8714178558
8714185943
8714192291
8714199615
8714206146
8714212615
8714217925
8714226470
8714231658
8714238921
8714245940
8714252105
8714258758
8714263274
8714271453
8714278716
8714285674
8714292510
8714298186
8714305450
8714311370
8714318206
8714325164
8714331206
8714339568
8714346770
8714352019
8714357574
8714365081
8714374114
8714381377
8714387481
8714393340
8714401580
8714410003
8714417571
8714423552
8714432097
8714440825
8714447844
8714455291
8714462981
8714471526
8714478423
8714487578
8714496367
8714504851
8714517363
8714527800
8714533965
8714544951
8714551604
8714559416
8714566313
8714572112
8714579070
8714586455
8714591521
8714598296
8714607329
8714612395
8714618681
8714623808
8714629423
8714636748
8714643522
8714650053
8714656218
8714662871
8714669890
8714677702
8714683928
8714694731
8714702543
8714709745
8714715971
8714724699
8714732145
8714738798
8714746366
8714752714
8714759977
8714766081
8714773100
8714779325
8714783171
8714792204
8714800077
8714808256
8714813444
8714821317
8714829374
8714837553
8714845915
8714850614
8714861662
8714868375
8714875394
8714884550
8714890470
8714900236
8714909086
8714916288
8714922758
8714932279
8714940702
8714947721
8714953763
8714962736
8714969327
8714978422
8714985013
8714993924
8715000272
8715008756
8715016752
8715022062
8715030973
8715039090
8715047757
8715056607
8715062894
8715071500
8715080472
8715087735
8715094876
8715101834
8715109525
8715120206
8715129605
8715139188
8715148038
8715154874
8715164822
8715173428
8715179715
8715188565
8715197781
8715203641
8715211453
8715219388
8715226102
8715234524
8715242520
8715248623
8715254910
8715263516
8715269314
8715277981
8715283963
8715292813
8715298123
8715307644
8715311734
8715321438
8715327725
8715337185
8715343106
8715350613
8715358731
8715364163
8715372219
8715379421
8715387173
8715394741
8715400540
8715408657
8715416470
8715421047
8715430081
8715436733
8715445217
8715451077
8715460110
8715468655
8715475491
8715479397
8715491238
8715498196
8715504909
8715511928
8715519253
8715525051
8715533779
8715539699
8715549099
8715555630
8715564174
8715570095
8715578762
8715584743
8715592739
8715600490
8715605800
8715615566
8715621730
8715631191
8715637416
8715647060
8715654750
8715662014
8715666530
8715676052
8715686428
8715694423
8715700832
8715708400
8715717006
8715723903
8715732265
8715738002
8715747646
8715754970
8715762294
8715770656
8715778041
8715785731
8715793971
8715800380
8715808070
8715816676
8715824977
8715831203
8715840236
8715846644
8715855006
8715862452
8715866725
8715876613
8715883571
8715893092
8715899501
8715908839
8715917140
8715924525
8715931849
8715939296
8715949794
8715957789
8715965968
8715973963
8715983424
8715990748
8716000086
8716006068
8716015406
8716024317
8716030238
8716038050
8716046839
8716052210
8716060999
8716065882
8716075343
8716079249
8716088404
8716094324
8716104212
8716110255
8716119044
8716124842
8716132532
8716140833
8716149195
8716156885
8716163904
8716171778
8716178553
8716184412
8716191797
8716200647
8716209559
8716215418
8716221155
8716230188
8716236048
8716244837
8716252344
8716259363
8716266809
8716273401
8716281580
8716288965
8716296472
8716304529
8716311121
8716318323
8716326807
8716335535
8716342065
8716349268
8716356714
8716365137
8716372583
8716379114
8716387353
8716396387
8716404504
8716411096
8716419885
8716426294
8716435693
8716442224
8716449914
8716457605
8716466333
8716473779
8716480432
8716490869
8716498010
8716506006
8716512414
8716520776
8716527734
8716537194
8716545678
8716550927
8716560693
8716568566
8716576196
8716583642
8716593102
8716602319
8716609704
8716617577
8716625268
8716632348
8716640466
8716646752
8716655663
8716664269
8716671471
8716679894
8716685204
8716694726
8716701928
8716709313
8716717797
8716725243
8716729943
8716740990
8716744958
8716755883
8716762108
8716771508
8716774926
8716785180
8716792565
8716798424
8716804955
8716812035
8716818138
8716823510
8716831688
8716837303
8716843041
8716849938
8716856713
8716862938
8716867760
8716874718
8716879967
8716887047
8716891930
8716898827
8716903282
8716910179
8716915856
8716922814
8716929649
8716935936
8716940575
8716947655
8716952538
8716959557
8716964745
8716971153
8716978050
8716985802
8716991112
8716995384
8717002403
8717009056
8717014061
8717020408
8717025413
8717031761
8717038048
8717042991
8717049278
8717054466
8717060753
8717065880
8717072471
8717078514
8717084556
8717091392
8717095970
8717101768
8717107444
8717114036
8717119896
8717125328
8717129783
8717137718
8717142540
8717149375
8717152488
8717161827
8717167442
8717173850
8717178367
8717184715
8717191001
8717197105
8717202842
8717208885
8717215110
8717219871
8717228477
8717233299
8717240318
8717245445
8717251121
8717255759
8717263877
8717269675
8717276450
8717282310
8717287498
8717293601
8717300559
8717306418
8717312522
8717318809
8717325889
8717331870
8717337363
8717345786
8717354087
8717362021
8717367698
8717376304
8717382651
8717390097
8717396933
8717403769
8717411155
8717417929
8717423850
8717430320
8717436728
8717443137
8717450400
8717455222
8717462973
8717467795
8717474936
8717481345
8717487815
8717494345
8717501120
8717506369
8717513449
8717519858
8717526999
8717531821
8717539206
8717544028
8717551596
8717558676
8717565085
8717571616
8717577719
8717584433
8717590781
8717597616
8717603842
8717611288
8717618551
8717624472
8717631857
8717637778
8717645468
8717650900
8717658102
8717664511
8717670920
8717675192
8717682394
8717689413
8717696005
8717700338
8717707724
8717713766
8717721090
8717727865
8717734457
8717740683
8717747152
8717753561
8717760275
8717766622
8717773031
8717779196
8717785604
8717790609
8717797018
8717804159
8717810873
8717817159
8717823690
8717828878
8717835409
8717842062
8717848409
8717854086
8717861105
8717869711
8717874532
8717881551
8717888326
8717894552
8717901388
8717907552
8717912618
8717919576
8717926534
8717932760
8717940084
8717946615
8717951558
8717958639
8717967855
8717974935
8717987813
8717998983
8718006429
8718014119
8718021199
8718029378
8718036702
8718044210
8718049642
8718056905
8718065389
8718071736
8718077046
8718083455
8718089681
8718096028
8718103841
8718108724
8718115621
8718123433
8718129659
8718134480
8718142964
8718149129
8718154622
8718175557
8718181538
8718188252
8718195759
8718200947
8718208089
8718213887
8718221150
8718227620
8718233723
8718240254
8718246846
8718253743
8718258626
8718265278
8718271748
8718278401
8718284871
8718291523
8718299519
8718306477
8718312214
8718320454
8718327168
8718336567
8718342305
8718351399
8718357197
8718365193
8718370991
8718378620
8718387165
8718394612
8718400532
8718408833
8718417072
8718424458
8718431110
8718438496
8718448322
8718455097
8718461262
8718470173
8718476582
8718482929
8718490192
8718497028
8718506061
8718513813
8718520771
8718529011
8718536762
8718544330
8718550617
8718558307
8718566425
8718572040
8718579487
8718584919
8718592731
8718600299
8718607441
8718613788
8718624103
8718630390
8718636371
8718645221
8718651691
8718658466
8718667499
8718676349
8718687152
8718695270
8718704059
8718711688
8718725055
8718730731
8718738788
8718744769
8718753986
8718762225
8718770038
8718776996
8718784259
8718790240
8718799090
8718804950
8718814593
8718822772
8718828326
8718836139
8718842792
8718850604
8718857013
8718865374
8718873797
8718881427
8718888202
8718895831
8718902911
8718910662
8718915118
8718924517
8718930987
8718939715
8718947161
8718953875
8718960467
8718967791
8718973773
8718982501
8718988726
8718999285
8719005450
8719012774
8719018877
8719026568
8719034258
8719041827
8719049578
8719056719
8719062579
8719068682
8719077349
8719083453
8719092242
8719098284
8719107134
8719112566
8719122149
8719126665
8719136309
8719142962
8719151812
8719158220
8719167559
8719177019
8719185015
8719191484
8719198076
8719207537
8719214739
8719222246
8719230120
8719237566
8719245745
8719253923
8719260393
8719268755
8719277300
8719282732
8719292314
8719297868
8719307756
8719315141
8719324785
8719331865
8719339311
8719346513
8719354753
8719361040
8719370866
8719377397
8719386735
8719393327
8719402360
8719411577
8719417070
8719426530
8719433732
8719441301
8719449296
8719456682
8719464677
8719474260
8719481523
8719491838
8719498307
8719506852
8719516923
8719526384
8719534745
8719541703
8719550553
8719558061
8719564836
8719573136
8719579057
8719587663
8719593583
8719602860
8719608842
8719617936
8719623673
8719630753
8719639115
8719646622
8719654740
8719661454
8719669266
8719674882
8719683671
8719690262
8719697220
8719705826
8719712662
8719720353
8719727128
8719734574
8719741349
8719747330
8719754899
8719763077
8719770401
8719776261
8719785477
8719791459
8719798233
8719806046
8719813370
8719821060
8719827957
8719835526
8719840897
8719848770
8719854386
8719861588
8719867020
8719875015
8719880814
8719887650
8719892166
8719899185
8719904739
8719911575
8719917984
8719924698
8719930801
8719937149
8719943314
8719949600
8719955582
8719961868
8719967728
8719974014
8719980789
8719986954
8719992203
8719997940
8720004165
8720008438
8720014969
8720019424
8720026932
8720033340
8720040786
8720046890
8720056289
8720061844
8720067154
8720074051
8720078933
8720085098
8720090774
8720096389
8720103408
8720108291
8720115249
8720121719
8720126663
8720132278
8720138381
8720144912
8720151260
8720157730
8720164260
8720171768
8720176834
8720185439
8720191604
8720196548
8720205764
8720210281
8720218276
8720224136
8720229629
8720235732
8720241286
8720245864
8720253738
8720258315
8720265151
8720271438
8720276626
8720282546
8720289260
8720296096
8720301955
8720306289
8720312819
8720318862
8720324782
8720331313
8720338027
8720344802
8720350722
8720356398
8720362563
8720368178
8720372573
8720380263
8720385146
8720392287
8720398940
8720404250
8720410048
8720416762
8720422988
8720428664
8720434828
8720441970
8720448195
8720455336
8720460890
8720468031
8720474440
8720480910
8720485365
8720492568
8720498427
8720505629
8720512038
8720518752
8720523451
8720531447
8720538222
8720545424
8720550978
8720558302
8720564894
8720571303
8720575819
8720583266
8720588698
8720595839
8720602064
8720608656
8720615004
8720621535
8720627699
8720634352
8720642042
8720646864
8720653029
8720659498
8720665602
8720671949
8720678785
8720685621
8720692945
8720697828
8720705458
8720711744
8720717909
8720723280
8720730909
8720737318
8720744337
8720750013
8720758192
8720764356
8720772047
8720776930
8720785291
8720791639
8720799879
8720805372
8720812635
8720819105
8720828260
8720836012
8720843458
8720850233
8720856641
8720863233
8720869825
8720875989
8720882459
8720888563
8720894056
8720902418
8720907606
8720914319
8720920789
8720927076
8720933545
8720939405
8720946058
8720952894
8720959363
8720965467
8720972364
8720978711
8720983716
8720994336
8721002393
8721008069
8721015027
8721020581
8721027051
8721034192
8721039624
8721046948
8721052503
8721059827
8721066785
8721072766
8721079236
8721086804
8721093396
8721101514
8721109692
8721115002
8721121838
8721130078
8721136365
8721142529
8721150464
8721156873
8721165356
8721171521
8721177624
8721185681
8721191846
8721197949
8721205823
8721212109
8721218701
8721225415
8721233593
8721240185
8721246533
8721253857
8721262280
8721267895
8721275708
8721284253
8721289868
8721298779
8721304821
8721314160
8721320446
8721328259
8721336743
8721344738
8721349804
8721355297
8721363293
8721369396
8721377392
8721381909
8721390942
8721398937
8721407543
8721415539
8721420910
8721429028
8721436962
8721442211
8721453686
8721466076
8721473705
8721482738
8721491222
8721499096
8721508251
8721515209
8721521496
8721528087
8721537304
8721541332
8721551037
8721556713
8721565441
8721572277
8721578380
8721583690
8721592418
8721595958
8721606151
8721612133
8721619213
8721625316
8721634654
8721642833
8721650157
8721656139
8721663219
8721670909
8721677562
8721685680
8721691600
8721700328
8721705699
8721714427
8721720653
8721729259
8721735912
8721743175
8721754283
8721760936
8721770030
8721776927
8721784312
8721790965
8721798350
8721805736
8721812022
8721821300
8721827281
8721835460
8721841197
8721849315
8721857127
8721863108
8721871043
8721876292
8721884959
8721891978
8721898753
8721906321
8721913218
8721922312
8721928904
8721936412
8721944956
8721951609
8721960154
8721967234
8721973887
8721979929
8721987559
8721994334
8722004832
8722011485
8722019114
8722025401
8722033396
8722039561
8722048838
8722058787
8722065745
8722071909
8722079661
8722088083
8722095713
8722101511
8722108957
8722120737
8722128183
8722136606
8722145701
8722152292
8722159250
8722166025
8722173594
8722182688
8722191050
8722197397
8722207407
8722214548
8722223642
8722232126
8722238046
8722246530
8722258493
8722262583
8722273874
8722280649
8722288095
8722294687
8722302988
8722309457
8722318063
8722323923
8722332346
8722340036
8722346506
8722354440
8722361887
8722367807
8722375802
8722384408
8722390207
8722398996
8722406076
8722412851
8722420419
8722427316
8722433542
8722442758
8722449044
8722456613
8722462655
8722470468
8722478280
8722485665
8722491769
8722499459
8722507211
8722514718
8722522348
8722527291
8722535958
8722542489
8722549508
8722556527
8722565255
8722572823
8722579659
8722583505
8722594674
8722602853
8722609017
8722618844
8722624764
8722633187
8722641061
8722647713
8722655526
8722663155
8722672555
8722680489
8722689950
8722697518
8722705880
8722713265
8722720040
8722728341
8722735299
8722744820
8722751534
8722760750
8722769234
8722775826
8722784554
8722789803
8722799568
8722806893
8722814400
8722824715
8722832100
8722839302
8722846810
8722854256
8722862068
8722868904
8722876778
8722884346
8722892525
8722899910
8722910164
8722914131
8722923958
8722932198
8722939766
8722948677
8722955086
8722960396
8722968635
8722973823
8722980903
8722985542
8722995247
8723001289
8723011909
8723019478
8723024910
8723032478
8723043403
8723049202
8723056099
8723061348
8723068122
8723075630
8723080879
8723088264
8723094917
8723101326
8723107734
8723112312
8723119392
8723124092
8723131294
8723136238
8723144538
8723150886
8723158454
8723163581
8723170173
8723175117
8723182014
8723188850
8723195075
8723200813
8723206672
8723213142
8723217597
8723224494
8723230659
8723235847
8723242255
8723248054
8723254340
8723259894
8723265510
8723271491
8723278022
8723285407
8723289557
8723297126
8723301887
8723307868
8723314155
8723320685
8723326911
8723332038
8723337409
8723344001
8723349799
8723356269
8723362983
8723367560
8723374396
8723380988
8723386542
8723392096
8723398871
8723405280
8723411505
8723415900
8723423468
8723429267
8723435797
8723442999
8723447333
8723454840
8723460028
8723467108
8723472846
8723480414
8723486273
8723493170
8723498969
8723506110
8723513251
8723518866
8723525336
8723531927
8723537909
8723545416
8723551398
8723558966
8723565069
8723572882
8723580572
8723587836
8723595038
8723599920
8723607977
8723613714
8723622992
8723628668
8723635687
8723642645
8723649054
8723655584
8723662970
8723670843
8723677679
8723685858
8723691595
8723698004
8723705633
8723713140
8723720648
8723726690
8723733648
8723740850
8723747015
8723752996
8723760259
8723768316
8723774786
8723781072
8723786382
8723794622
8723801031
8723806402
8723813970
8723820257
8723825994
8723832525
8723839544
8723847295
8723852239
8723858709
8723867254
8723872747
8723879766
8723886297
8723893316
8723899419
8723906377
8723913884
8723920598
8723927007
8723933721
8723940862
8723948552
8723953862
8723962529
8723968755
8723975469
8723982793
8723987493
8723995916
8724000859
8724008123
8724015203
8724022405
8724030583
8724036260
8724043950
8724049321
8724057012
8724065190
8724070622
8724077275
8724083318
8724093266
8724099736
8724106938
8724112920
8724121037
8724128239
8724134953
8724146123
8724153996
8724159856
8724169072
8724177189
8724184758
8724192509
8724199772
8724206608
8724215336
8724222844
8724229985
8724236638
8724242070
8724249211
8724256535
8724263920
8724269780
8724278263
8724284794
8724293034
8724299748
8724306523
8724315312
8724321903
8724328984
8724336003
8724345768
8724354252
8724360478
8724367619
8724375492
8724383976
8724389774
8724398563
8724406864
8724414310
8724420963
8724429264
8724436466
8724444645
8724451420
8724459843
8724467899
8724475040
8724482242
8724489994
8724496158
8724503544
8724512394
8724519291
8724526005
8724534244
8724541202
8724549686
8724558231
8724566715
8724575260
8724581790
8724589359
8724597354
8724603702
8724613346
8724619571
8724627750
8724633243
8724642642
8724650333
8724657901
8724665897
8724672427
8724682071
8724689212
8724699161
8724706058
8724713565
8724721927
8724731265
8724738406
8724746951
8724754825
8724758731
8724770145
8724776919
8724783572
8724794131
8724801578
8724810183
8724817202
8724826053
8724832888
8724840640
8724850589
8724862857
8724870669
8724879275
8724887515
8724893557
8724902407
8724910220
8724918826
8724926394
8724934268
8724942202
8724949709
8724955447
8724964419
8724970828
8724980105
8724987978
8724995058
8725002810
8725009585
8725017458
8725022280
8725031557
8725039065
8725047671
8725053042
8725061831
8725068972
8725075747
8725083254
8725090151
8725097719
8725105166
8725112917
8725120607
8725126406
8725134829
8725140810
8725148134
8725155886
8725164247
8725170107
8725178591
8725186525
8725193178
8725201601
8725209658
8725216310
8725224062
8725231386
8725239198
8725246706
8725253725
8725261781
8725271120
8725277162
8725286440
8725293092
8725301759
8725307741
8725317384
8725323244
8725333070
8725340272
8725347658
8725357240
8725364931
8725371339
8725379457
8725386049
8725394288
8725403077
8725408815
8725420411
8725427491
8725436097
8725441652
8725451417
8725457093
8725466554
8725474244
8725481813
8725488832
8725496827
8725503175
8725512513
8725518922
8725528810
8725535401
8725544740
8725551331
8725560426
8725566956
8725575501
8725582948
8725591370
8725599061
8725603455
8725613587
8725620789
8725631226
8725641236
8725650147
8725656983
8725665528
8725674073
8725681519
8725689515
8725696778
8725704590
8725712647
8725719117
8725726197
8725734925
8725740235
8725749024
8725756348
8725765137
8725772156
8725778870
8725786988
8725793701
8725800354
8725807740
8725813660
8725824463
8725828369
8725837403
8725843323
8725853150
8725859192
8725867615
8725873718
8725881226
8725888916
8725896545
8725904968
8725911743
8725919250
8725923523
8725935059
8725942017
8725948852
8725956787
8725962463
8725968567
8725975281
8725979919
8725988952
8725996155
8726001648
8726004944
8726014709
8726020324
8726027221
8726033081
8726038513
8726044860
8726051757
8726056945
8726063842
8726068969
8726075866
8726081543
8726088806
8726095031
8726101684
8726108215
8726114623
8726118652
8726125732
8726131469
8726138610
8726146301
8726151000
8726157531
8726163635
8726169555
8726174255
8726182433
8726188720
8726195373
8726202026
8726208068
8726214049
8726219970
8726226134
8726233520
8726238463
8726244811
8726251037
8726256530
8726261962
8726267638
8726274047
8726280761
8726286376
8726292785
8726298522
8726305663
8726311156
8726318419
8726332702
8726339537
8726345763
8726351561
8726356139
8726363524
8726370848
8726376769
8726382201
8726386412
8726393187
8726397826
8726406249
8726411315
8726418517
8726423461
8726430663
8726435362
8726442442
8726447264
8726454649
8726460814
8726467467
8726473021
8726479796
8726486205
8726492186
8726498351
8726504820
8726511900
8726516417
8726524046
8726530333
8726536131
8726540831
8726548094
8726555357
8726560789
8726567991
8726573607
8726579649
8726586851
8726591490
8726599486
8726605528
8726612791
8726618528
8726625914
8726632383
8726638182
8726644590
8726652098
8726658995
8726665464
8726670286
8726677549
8726685301
8726689878
8726698118
8726703733
8726711973
8726718321
8726725462
8726731199
8726737974
8726743955
8726750608
8726758115
8726763120
8726770078
8726776243
8726782224
8726788694
8726796079
8726802976
8726808591
8726814085
8726821348
8726828489
8726834714
8726841428
8726846799
8726855649
8726860471
8726867368
8726872190
8726881467
8726887327
8726894590
8726900876
8726913938
8726921201
8726926511
8726934262
8726940427
8726948362
8726954160
8726961240
8726967954
8726975156
8726982541
8726989011
8726995175
8727002317
8727008359
8727014890
8727021054
8727027585
8727033689
8727038510
8727046384
8727053830
8727059934
8727064755
8727072202
8727077084
8727085873
8727091000
8727100644
8727106076
8727113278
8727118039
8727125241
8727131100
8727138303
8727143735
8727151608
8727158078
8727166012
8727172238
8727179806
8727186947
8727194088
8727198910
8727206967
8727212826
8727220700
8727228573
8727234005
8727240048
8727247921
8727254574
8727262936
8727270443
8727275753
8727281918
8727290036
8727296688
8727302853
8727310665
8727317196
8727323788
8727333248
8727340572
8727347653
8727353573
8727361263
8727369137
8727376705
8727382626
8727391720
8727397579
8727406246
8727414181
8727421566
8727427730
8727436214
8727442867
8727450191
8727458858
8727463985
8727471920
8727477108
8727485714
8727489315
8727498165
8727507137
8727513729
8727519466
8727528194
8727534298
8727541072
8727546566
8727553463
8727561946
8727569942
8727576046
8727585994
8727589839
8727602962
8727610897
8727618099
8727630489
8727636531
8727646297
8727654414
8727661617
8727669368
8727676692
8727683345
8727692867
8727701717
8727709102
8727715083
8727721980
8727730220
8727737544
8727745479
8727751460
8727760798
8727766353
8727774226
8727782893
8727788325
8727797542
8727806392
8727814326
8727821833
8727826838
8727834102
8727841121
8727848140
8727854121
8727862361
8727870845
8727876521
8727883418
8727890742
8727898371
8727903803
8727910029
8727918452
8727926447
8727933955
8727939326
8727947321
8727952937
8727959345
8727966731
8727973139
8727982172
8727988947
8727992548
8728002680
8728006281
8728016230
8728021906
8728028803
8728038080
8728045649
8728053217
8728060785
8728067377
8728076960
8728085627
8728091242
8728100885
8728106806
8728116877
8728124506
8728131769
8728135798
8728145624
8728153192
8728163507
8728170954
8728178034
8728185785
8728193292
8728200250
8728207514
8728213983
8728222894
8728231012
8728237055
8728245477
8728253839
8728260919
8728270441
8728278253
8728283868
8728293024
8728303278
8728309808
8728318719
8728326654
8728333246
8728343744
8728356317
8728364068
8728372918
8728380731
8728388604
8728398553
8728405816
8728412713
8728419549
8728427545
8728434015
8728443902
8728449945
8728457940
8728466851
8728475885
8728483453
8728490228
8728496575
8728506158
8728510125
8728518548
8728528558
8728537591
8728543755
8728554070
8728558099
8728567315
8728574578
8728580743
8728588616
8728596978
8728602776
8728611382
8728617181
8728624261
8728631524
8728638360
8728644280
8728653130
8728659173
8728665459
8728673455
8728678277
8728686455
8728692620
8728701104
8728708733
8728715630
8728723626
8728730400
8728737908
8728746575
8728753472
8728762078
8728770195
8728775994
8728782952
8728791802
8728800591
8728806206
8728817681
8728827385
8728834282
8728842522
8728849602
8728854057
8728864922
8728875114
8728883476
8728888298
8728899467
8728907036
8728915581
8728922844
8728930717
8728939445
8728946525
8728953544
8728963676
8728967888
8728978813
8728983024
8728993339
8729001640
8729008720
8729017692
8729024650
8729029106
8729040275
8729046745
8729052604
8729058830
8729066032
8729071342
8729078544
8729084648
8729090873
8729096916
8729104057
8729111625
8729117240
8729125724
8729132682
8729138908
8729144218
8729151176
8729157523
8729169303
8729175101
8729181632
8729188651
8729193351
8729200553
8729206962
8729212150
8729218619
8729226249
8729231010
8729237601
8729243705
8729250297
8729256949
8729263053
8729270438
8729275992
8729281547
8729288688
8729293021
8729299979
8729305106
8729311515
8729317679
8729323478
8729328238
8729334952
8729342582
8729346854
8729353446
8729359366
8729365531
8729369803
8729377494
8729383719
8729388724
8729393668
8729400260
8729406058
8729412406
8729418631
8729424429
8729430594
8729436331
8729441824
8729449149
8729454459
8729458792
8729466849
8729471304
8729478201
8729483633
8729490530
8729495291
8729502005
8729507986
8729514700
8729520193
8729526663
8729531912
8729538687
8729544485
8729550345
8729556570
8729562552
8729569327
8729577627
8729583365
8729589956
8729597342
8729604544
8729610098
8729617300
8729623037
8729630301
8729637686
8729643606
8729649221
8729655142
8729662344
8729667776
8729674978
8729681692
8729688223
8729693533
8729701956
8729708242
8729716238
8729727346
8729734609
8729741323
8729747488
8729754690
8729760488
8729768240
8729773977
8729781179
8729787527
8729794424
8729800954
8729807485
8729813711
8729820302
8729826528
8729832998
8729839406
8729846303
8729855581
8729860647
8729868520
8729874868
8729880544
8729886098
8729893911
8729901845
8729908315
8729913503
8729920827
8729926198
8729933400
8729939992
8729946828
8729951345
8729958486
8729965810
8729972219
8729976735
8729983937
8729989308
8729998586
8730005361
8730010365
8730016957
8730023549
8730029836
8730036427
8730043446
8730048879
8730055959
8730062306
8730069630
8730074452
8730081166
8730087514
8730093678
8730101002
8730108632
8730114552
8730121693
8730126271
8730133107
8730140492
8730148427
8730154469
8730161610
8730167836
8730174672
8730181263
8730186085
8730194020
8730198842
8730207875
8730213246
8730221119
8730224598
8730234059
8730237843
8730246632
8730252552
8730262684
8730269093
8730276112
8730281422
8730290028
8730295399
8730302906
8730310719
8730317616
8730323048
8730330433
8730335804
8730344288
8730352100
8730360584
8730366688
8730375050
8730382557
8730390919
8730396656
8730404774
8730411854
8730418079
8730426075
8730432361
8730440601
8730448231
8730455311
8730460010
8730467945
8730475879
8730482959
8730490528
8730497608
8730503345
8730510730
8730515918
8730523853
8730531482
8730536975
8730545703
8730551013
8730557422
8730565601
8730570850
8730578723
8730585620
8730593555
8730600818
8730606128
8730612415
8730621082
8730629016
8730635852
8730639697
8730650073
8730657520
8730664844
8730672839
8730678394
8730686145
8730693652
8730701465
8730707202
8730715320
8730723559
8730731555
8730738513
8730746570
8730751330
8730760058
8730766772
8730775378
8730781604
8730790271
8730796008
8730804614
8730811267
8730817981
8730826587
8730833300
8730840319
8730849597
8730855395
8730862963
8730869067
8730878588
8730884326
8730892748
8730898852
8730907519
8730913195
8730921130
8730928820
8730933642
8730942309
8730950304
8730961352
8730970629
8730976427
8730984057
8730990954
8730997973
8731006518
8731011828
8731019396
8731029772
8731036303
8731043566
8731050219
8731056688
8731065478
8731073229
8731080492
8731095141
8731102831
8731111742
8731118517
8731128649
8731135424
8731145006
8731151598
8731160570
8731166307
8731174608
8731183153
8731192247
8731199571
8731206957
8731213793
8731223253
8731230089
8731237413
8731243211
8731251146
8731259081
8731266283
8731274828
8731282396
8731288377
8731296495
8731304246
8731309190
8731317796
8731323411
8731332078
8731338792
8731347459
8731353624
8731360582
8731367967
8731375474
8731381212
8731389756
8731398057
8731405565
8731411607
8731419969
8731425767
8731434373
8731442552
8731450120
8731455979
8731462693
8731471482
8731477464
8731486192
8731491624
8731500474
8731506700
8731515428
8731521348
8731530625
8731534531
8731543382
8731551316
8731558823
8731565110
8731574326
8731580918
8731589646
8731595994
8731602708
8731612412
8731618455
8731628037
8731635972
8731643418
8731652878
8731660203
8731666855
8731675034
8731681565
8731690110
8731698899
8731704880
8731713364
8731722153
8731728684
8731736069
8731743637
8731751877
8731759262
8731767868
8731777451
8731784287
8731793869
8731801621
8731809250
8731817062
8731825424
8731831772
8731841049
8731847763
8731856979
8731865585
8731874435
8731881088
8731889389
8731899582
8731906601
8731916061
8731929367
8731937179
8731945297
8731952865
8731960373
8731968246
8731975937
8731983078
8731993210
8731997482
8732007248
8732016098
8732021652
8732029647
8732038192
8732044479
8732053146
8732061080
8732067672
8732075607
8732083236
8732091171
8732096481
8732105575
8732111739
8732120590
8732126998
8732136031
8732142501
8732151290
8732157272
8732165816
8732173690
8732180221
8732184737
8732192367
8732199142
8732206466
8732210616
8732219710
8732226363
8732232711
8732238875
8732245101
8732250655
8732256942
8732263289
8732269698
8732276046
8732282699
8732288802
8732293563
8732300521
8732305220
8732312789
8732319442
8732326827
8732332503
8732339034
8732343795
8732350386
8732356368
8732363814
8732370711
8732375411
8732382979
8732387740
8732395003
8732401534
8732406783
8732413680
8732420882
8732426131
8732433028
8732438033
8732443526
8732450240
8732455244
8732464278
8732467818
8732478743
8732485396
8732493941
8732501692
8732508467
8732515242
8732521040
8732527510
8732532576
8732538862
8732545271
8732552229
8732561506
8732567549
8732574629
8732580610
8732587202
8732593855
8732599165
8732605940
8732610884
8732617048
8732624433
8732630476
8732635664
8732643232
8732649580
8732656965
8732662702
8732669477
8732675154
8732681745
8732686445
8732693525
8732700910
8732707075
8732712568
8732718610
8732725202
8732729841
8732736677
8732743086
8732751325
8732754255
8732763288
8732769147
8732776411
8732782026
8732789472
8732795026
8732802289
8732808698
8732815961
8732820661
8732827924
8732833417
8732842450
8732848127
8732854596
8732859418
8732866559
8732873456
8732879865
8732884809
8732892377
8732900007
8732904828
8732911786
8732918439
8732925397
8732931989
8732936261
8732943585
8732950421
8732956952
8732963239
8732969831
8732976605
8732983014
8732989667
8732994611
8733001935
8733008771
8733014996
8733021893
8733028119
8733033124
8733040631
8733047406
8733055035
8733060834
8733066388
8733073346
8733080243
8733086896
8733094342
8733099408
8733106915
8733113019
8733119427
8733126385
8733132855
8733139264
8733146344
8733152264
8733158673
8733164898
8733171429
8733178631
8733184552
8733192486
8733200299
8733207440
8733212872
8733222332
8733228192
8733236309
8733241192
8733248944
8733254376
8733262738
8733270977
8733276653
8733283673
8733289288
8733296734
8733302410
8733308758
8733315960
8733322491
8733328350
8733334026
8733341229
8733347271
8733354656
8733361309
8733368572
8733372845
8733380047
8733385784
8733392925
8733398418
8733407329
8733413189
8733419781
8733426861
8733434002
8733440532
8733447613
8733453838
8733460918
8733465923
8733473919
8733481487
8733488567
8733493084
8733501201
8733507183
8733515911
8733525127
8733530620
8733538799
8733544231
8733550701
8733558757
8733564983
8733573039
8733578044
8733585979
8733593425
8733599590
8733605754
8733613811
8733619975
8733628642
8733634807
8733641582
8733649944
8733656841
8733662761
8733670085
8733677837
8733685283
8733691325
8733700664
8733706523
8733714458
8733722392
8733729228
8733737163
8733744975
8733751445
8733758647
8733767070
8733772502
8733780619
8733785563
8733794169
8733797953
8733807719
8733811686
8733822489
8733826091
8733835856
8733841899
8733848857
8733854411
8733862162
8733868693
8733877177
8733887675
8733896281
8733903300
8733913920
8733922770
8733931620
8733939066
8733944559
8733954325
8733961161
8733971659
8733979410
8733988688
8733996317
8734005228
8734011576
8734020182
8734026102
8734032816
8734040384
8734047159
8734054911
8734062296
8734068094
8734077433
8734083353
8734091837
8734097635
8734106241
8734112345
8734120279
8734127970
8734133097
8734141886
8734150247
8734156168
8734163736
8734170511
8734178018
8734186502
8734191202
8734200540
8734204691
8734215189
8734219034
8734228006
8734235941
8734243387
8734249368
8734258035
8734263834
8734272867
8734278909
8734287637
8734296548
8734303567
8734309915
8734318582
8734326028
8734330240
8734340188
8734346780
8734355203
8734361673
8734372842
8734379373
8734387674
8734396341
8734401956
8734411416
8734416726
8734426370
8734434915
8734442178
8734446633
8734456826
8734463296
8734472390
8734480935
8734486550
8734496255
8734502786
8734512307
8734518777
8734526162
8734535195
8734542580
8734549050
8734557534
8734567483
8734575661
8734582192
8734591836
8734598366
8734605630
8734614358
8734620156
8734630410
8734639199
8734645669
8734654885
8734661538
8734669411
8734677407
8734690285
8734701332
8734716896
8734727944
8734738869
8734747963
8734755837
8734764199
8734773476
8734780617
8734791725
8734799538
8734808327
8734816506
8734823158
8734831276
8734838600
8734844704
8734852455
8734861305
8734867042
8734875954
8734881874
8734890724
8734897621
8734904457
8734911781
8734919288
8734925697
8734936683
8734943336
8734951515
8734958168
8734966407
8734975197
8734984535
8734990882
8734997108
8735006752
8735014259
8735021644
8735030067
8735038185
8735045082
8735053138
8735061927
8735070350
8735076881
8735085731
8735092201
8735099525
8735109168
8735115577
8735123023
8735131019
8735138465
8735148231
8735155860
8735163551
8735169715
8735178809
8735186256
8735194800
8735200538
8735210242
8735216102
8735225745
8735234229
8735242225
8735249061
8735257300
8735263953
8735272742
8735282019
8735288123
8735296851
8735303870
8735312781
8735320594
8735329077
8735335303
8735344458
8735349951
8735358374
8735364966
8735372901
8735379004
8735386572
8735392127
8735399451
8735405737
8735411353
8735417944
8735423682
8735432410
8735438696
8735444800
8735451270
8735456824
8735463232
8735468848
8735475561
8735484228
8735492224
8735499609
8735510473
8735517492
8735527380
8735534277
8735540442
8735546179
8735554724
8735560949
8735568213
8735573034
8735579931
8735586462
8735590796
8735597631
8735604284
8735611303
8735614538
8735622778
8735629064
8735635534
8735640661
8735647131
8735656347
8735662267
8735671545
8735675878
8735682531
8735688696
8735693456
8735698950
8735705236
8735711523
8735717870
8735723852
8735730688
8735737341
8735743261
8735748388
8735755041
8735760168
8735765722
8735771764
8735775976
8735781896
8735786962
8735793432
8735799657
8735805944
8735811803
8735817480
8735823278
8735829687
8735834936
8735839818
8735847448
8735852514
8735859227
8735864599
8735870702
8735875768
8735882360
8735888524
8735894384
8735900060
8735905797
8735911229
8735917211
8735923680
8735928563
8735936254
8735941320
8735947362
8735953343
8735959142
8735965123
8735971776
8735976781
8735984899
8735991795
8735997899
8736002538
8736009984
8736014439
8736021642
8736030125
8736035558
8736040501
8736047887
8736053624
8736058934
8736065770
8736073704
8736082921
8736090001
8736096348
8736101292
8736109898
8736114476
8736120640
8736128148
8736135838
8736142796
8736148289
8736154210
8736162754
8736168370
8736173253
8736180821
8736188084
8736193943
8736200047
8736205845
8736210545
8736217503
8736226414
8736232151
8736238072
8736244908
8736250828
8736256077
8736262181
8736269688
8736275913
8736283177
8736287937
8736294529
8736300633
8736306553
8736311253
8736318211
8736324131
8736331272
8736337254
8736343174
8736349949
8736354282
8736361851
8736366550
8736375034
8736378330
8736386631
8736392979
8736398228
8736402866
8736410801
8736417331
8736424412
8736428989
8736435642
8736442051
8736448765
8736454929
8736459934
8736468967
8736475071
8736479770
8736486240
8736492954
8736499546
8736505771
8736512668
8736520420
8736525608
8736532321
8736538852
8736546176
8736552768
8736558689
8736566135
8736572605
8736579746
8736588107
8736593295
8736601047
8736606174
8736612949
8736620761
8736627536
8736635471
8736643344
8736651401
8736658969
8736665927
8736674594
8736683139
8736690707
8736698031
8736704745
8736717624
8736728427
8736738986
8736744845
8736751803
8736758639
8736767367
8736774020
8736782504
8736789950
8736795932
8736801730
8736808871
8736813571
8736820712
8736827548
8736834567
8736841525
8736847323
8736855013
8736860507
8736867465
8736874423
8736881014
8736888705
8736896883
8736904818
8736912020
8736917818
8736926546
8736933871
8736943697
8736951693
8736960299
8736966891
8736972750
8736980623
8736987704
8736996309
8737003267
8737011324
8737020052
8737026278
8737034823
8737041781
8737048372
8737057039
8737065584
8737073458
8737079378
8737087435
8737093050
8737101595
8737108004
8737117525
8737124239
8737134065
8737141146
8737147310
8737155855
8737161653
8737172029
8737179109
8737187776
8737193514
8737202852
8737210848
8737219270
8737228120
8737235628
8737244722
8737253389
8737261262
8737267183
8737275239
8737281709
8737291963
8737298555
8737303926
8737312776
8737320649
8737332368
8737339876
8737347322
8737357332
8737365144
8737373323
8737383271
8737389314
8737398835
8737406587
8737415193
8737427888
8737436555
8737444123
8737452485
8737460053
8737467317
8737476106
8737485566
8737493806
8737500825
8737508576
8737516267
8737523286
8737532197
8737538972
8737546418
8737554658
8737562104
8737570466
8737577180
8737584199
8737593537
8737600190
8737608674
8737616852
8737624543
8737631684
8737637543
8737646210
8737655060
8737661774
8737669465
8737678498
8737685700
8737692170
8737698822
8737707489
8737715363
8737723908
8737730805
8737737885
8737744904
8737753937
8737763458
8737771698
8737776642
8737788788
8737796967
8737804291
8737813812
8737820587
8737829376
8737835358
8737845245
8737851837
8737860748
8737869537
8737876984
8737886017
8737894806
8737903168
8737911163
8737917267
8737925506
8737932892
8737942779
8737950836
8737959320
8737967865
8737974578
8737981964
8737991119
8738000030
8738008575
8738015472
8738024810
8738031463
8738038848
8738044952
8738054839
8738063262
8738071746
8738080047
8738087554
8738094329
8738100005
8738110320
8738116668
8738125518
8738132049
8738143462
8738150970
8738160003
8738165008
8738174407
8738184905
8738195891
8738204009
8738210723
8738217742
8738225615
8738233367
8738242827
8738249358
8738256011
8738264190
8738272857
8738280059
8738286162
8738292754
8738301360
8738309966
8738315947
8738322600
8738331450
8738337065
8738345366
8738350859
8738359526
8738366728
8738372832
8738378935
8738386015
8738392119
8738397490
8738404326
8738411589
8738417876
8738423308
8738429350
8738436247
8738441496
8738448454
8738452971
8738460234
8738465727
8738472685
8738477629
8738484709
8738490446
8738497465
8738502287
8738509306
8738515410
8738522368
8738526945
8738533964
8738539641
8738546598
8738551848
8738558989
8738565458
8738571745
8738578764
8738583586
8738589872
8738595976
8738602629
8738607878
8738615263
8738621794
8738628691
8738632658
8738638822
8738645963
8738650907
8738658476
8738662931
8738670622
8738676115
8738680998
8738686735
8738693021
8738699369
8738704923
8738711210
8738716886
8738722196
8738726957
8738733854
8738741972
8738747526
8738752775
8738757535
8738764921
8738769437
8738777799
8738783170
8738790677
8738797391
8738803495
8738811063
8738817045
8738824430
8738830655
8738837491
8738843656
8738851102
8738857206
8738863004
8738869962
8738876065
8738883023
8738889188
8738896390
8738902555
8738907865
8738913968
8738920316
8738926908
8738934354
8738939176
8738948148
8738953153
8738961026
8738964566
8738973660
8738980496
8738986722
8738991727
8738999722
8739004727
8739012906
8739016202
8739025601
8739031705
8739037869
8739042691
8739050503
8739055325
8739063016
8739070462
8739076260
8739083645
8739090726
8739096280
8739103482
8739108914
8739115994
8739122525
8739128750
8739135220
8739142544
8739148892
8739154690
8739161831
8739167569
8739173611
8739183926
8739189907
8739196804
8739204495
8739209561
8739216641
8739223110
8739230618
8739236904
8739244473
8739250820
8739258328
8739265347
8739271755
8739277493
8739284084
8739291714
8739296658
8739302883
8739308926
8739315151
8739319668
8739327663
8739332546
8739339809
8739347378
8739354275
8739361843
8739366848
8739374355
8739380459
8739390285
8739394802
8739403652
8739410061
8739418300
8739424526
8739432522
8739442714
8739449306
8739456997
8739460231
8739469997
8739473598
8739482326
8739490200
8739496120
8739502773
8739509975
8739516628
8739522304
8739528346
8739535793
8739541713
8739548976
8739554469
8739561733
8739567165
8739574428
8739579860
8739587734
8739595058
8739602199
8739606532
8739614528
8739620753
8739628810
8739634975
8739643031
8739649867
8739656154
8739663539
8739671657
8739677699
8739684047
8739690150
8739698939
8739706874
8739713160
8739719325
8739727870
8739734767
8739741053
8739746669
8739754847
8739760279
8739770289
8739776210
8739783595
8739791957
8739797755
8739805384
8739813929
8739819789
8739828944
8739834681
8739842738
8739850489
8739857813
8739865748
8739872767
8739878687
8739885645
8739894312
8739901087
8739909998
8739915614
8739924525
8739929407
8739938868
8739948023
8739954737
8739963343
8739969996
8739977259
8739984156
8739990076
8739998011
8740003870
8740014551
8740018519
8740027674
8740035486
8740042261
8740049952
8740057215
8740065393
8740072473
8740080469
8740086389
8740095056
8740101770
8740108301
8740117884
8740124658
8740140344
8740147974
8740156152
8740162988
8740173547
8740177759
8740189294
8740196741
8740203638
8740211755
8740220666
8740227563
8740234033
8740237695
8740246789
8740255090
8740261499
8740268518
8740276208
8740282068
8740290246
8740296045
8740305139
8740311181
8740320031
8740327783
8740334558
8740342492
8740347741
8740356408
8740362817
8740372033
8740378747
8740387475
8740393151
8740401879
8740409082
8740415856
8740422631
8740429528
8740436730
8740446008
8740452233
8740459863
8740465844
8740473718
8740479699
8740488305
8740496606
8740505029
8740510888
8740518883
8740524865
8740531762
8740540551
8740546166
8740554894
8740561608
8740570458
8740577477
8740584252
8740592797
8740599572
8740606347
8740613488
8740624169
8740631432
8740638634
8740646752
8740653344
8740662255
8740668785
8740677025
8740686669
8740695092
8740701622
8740709130
8740718834
8740725060
8740735619
8740742333
8740749779
8740757469
8740766991
8740772789
8740783348
8740789940
8740797997
8740804344
8740813560
8740820763
8740829063
8740835655
8740845116
8740851524
8740860252
8740866539
8740877037
8740883385
8740894005
8740900474
8740909263
8740918358
8740925865
8740935508
8740944481
8740950950
8740963829
8740970237
8740980064
8740986717
8740994346
8741001121
8741009727
8741016502
8741025413
8741031577
8741040183
8741047996
8741055564
8741063682
8741070640
8741078574
8741086387
8741094321
8741101279
8741109153
8741116355
8741122520
8741129356
8741138267
8741145286
8741152061
8741160972
8741167930
8741175681
8741182578
8741190696
8741197593
8741205283
8741213035
8741219260
8741228232
8741234214
8741243491
8741249411
8741258078
8741266928
8741274497
8741280417
8741288413
8741297019
8741304221
8741312766
8741317893
8741327658
8741335044
8741342795
8741351035
8741358542
8741365073
8741373251
8741383139
8741389243
8741397910
8741406638
8741413168
8741422201
8741428854
8741436301
8741443991
8741453085
8741460592
8741469259
8741476767
8741481100
8741491659
8741498068
8741507834
8741514181
8741520651
8741528952
8741535177
8741543722
8741549765
8741557699
8741563375
8741570517
8741576498
8741583456
8741590170
8741596395
8741602804
8741607748
8741613485
8741620565
8741627706
8741634237
8741640829
8741645651
8741652609
8741657247
8741664205
8741669515
8741678732
8741688375
8741694662
8741702413
8741707479
8741714620
8741719625
8741727193
8741731954
8741742330
8741749410
8741756551
8741762533
8741768880
8741775106
8741781453
8741789266
8741795064
8741801839
8741806844
8741813619
8741819417
8741825216
8741832113
8741838582
8741844075
8741848592
8741856221
8741861776
8741868673
8741873433
8741880269
8741886129
8741892537
8741896627
8741903035
8741909810
8741915730
8741921651
8741927510
8741932698
8741938558
8741945516
8741951741
8741957173
8741963948
8741969380
8741973592
8741980367
8741985738
8741993001
8741995992
8742004353
8742010884
8742017598
8742023335
8742030720
8742036214
8742042195
8742047810
8742055501
8742060689
8742066243
8742072529
8742078389
8742084248
8742091694
8742097127
8742105427
8742110737
8742118184
8742124043
8742131062
8742136067
8742145527
8742152302
8742157124
8742166157
8742169331
8742177327
8742184040
8742191242
8742197956
8742204548
8742210407
8742216999
8742222737
8742229084
8742236653
8742244099
8742250019
8742257282
8742263386
8742269062
8742277546
8742284382
8742295124
8742302143
8742309650
8742317036
8742321918
8742329121
8742335956
8742341755
8742349018
8742359577
8742364155
8742371357
8742376911
8742384052
8742390339
8742397602
8742403583
8742410907
8742415912
8742423114
8742428608
8742435871
8742442035
8742449298
8742456134
8742462604
8742466999
8742474201
8742481098
8742487445
8742493671
8742500385
8742507221
8742513629
8742518634
8742525104
8742531879
8742538532
8742545184
8742552326
8742559406
8742564166
8742573200
8742578204
8742585529
8742592609
8742598773
8742603656
8742612323
8742617572
8742623859
8742630450
8742636737
8742641681
8742651202
8742658099
8742665301
8742670978
8742678302
8742684344
8742689959
8742696368
8742703509
8742709308
8742716388
8742722247
8742728412
8742734637
8742742694
8742750262
8742756488
8742764727
8742770953
8742774615
8742785052
8742788836
8742798419
8742805682
8742812029
8742818438
8742826983
8742833575
8742841815
8742848467
8742854754
8742862627
8742868792
8742875628
8742883868
8742891070
8742897845
8742904314
8742911700
8742917620
8742926653
8742933672
8742946673
8742955767
8742964434
8742971880
8742979326
8742985796
8742993303
8743000933
8743008257
8743016497
8743022661
8743030840
8743036272
8743044268
8743051714
8743059404
8743064714
8743073320
8743078874
8743086626
8743092058
8743099138
8743106340
8743113970
8743120989
8743127886
8743133562
8743140032
8743148637
8743154314
8743163103
8743172197
8743177873
8743185747
8743192644
8743200517
8743208086
8743214983
8743224748
8743232439
8743239152
8743245134
8743253007
8743258989
8743267900
8743273698
8743282487
8743290788
8743298234
8743304033
8743313188
8743319047
8743326127
8743333940
8743342179
8743349931
8743357743
8743363542
8743371720
8743379533
8743386247
8743394181
8743401811
8743407731
8743416947
8743424760
8743429887
8743438676
8743445451
8743452348
8743458695
8743467973
8743474503
8743481828
8743490250
8743497147
8743503007
8743510575
8743518693
8743526261
8743532609
8743540970
8743547501
8743556229
8743564469
8743572037
8743580094
8743586686
8743595414
8743603714
8743610184
8743618912
8743627457
8743633377
8743642838
8743647721
8743658219
8743662796
8743675247
8743682877
8743690689
8743698807
8743707291
8743714371
8743724320
8743731522
8743741776
8743750565
8743756973
8743764969
8743772476
8743778580
8743786026
8743795792
8743803238
8743810196
8743817215
8743824112
8743830459
8743839920
8743845962
8743853470
8743862015
8743867935
8743876785
8743885391
8743891311
8743899368
8743907242
8743912185
8743921280
8743929336
8743937210
8743942642
8743951431
8743957778
8743966690
8743972366
8743981216
8743986404
8743995742
8743999771
8744010513
8744014724
8744024124
8744029922
8744039443
8744046096
8744054214
8744062087
8744069412
8744075698
8744084548
8744091140
8744099990
8744109756
8744118667
8744125259
8744133376
8744140883
8744147597
8744155715
8744162124
8744171279
8744177932
8744188430
8744194716
8744203017
8744211501
8744218276
8744227126
8744232802
8744242751
8744252639
8744261367
8744269728
8744276137
8744283278
8744293776
8744300917
8744308547
8744316420
8744324599
8744331130
8744340529
8744346755
8744356276
8744363234
8744373732
8744383009
8744389052
8744396681
8744403273
8744412062
8744417250
8744426527
8744430617
8744439589
8744449537
8744456862
8744463392
8744470839
8744476759
8744484999
8744490858
8744499464
8744507765
8744519362
8744527784
8744537001
8744546339
8744553114
8744562635
8744570936
8744578749
8744586744
8744594618
8744600965
8744610426
8744616346
8744622083
8744631178
8744637769
8744646619
8744654188
8744660902
8744668165
8744674574
8744678114
8744688001
8744694532
8744700025
8744705579
8744713148
8744716321
8744725660
8744731458
8744738538
8744746778
8744752942
8744758558
8744764844
8744769483
8744776502
8744783338
8744789808
8744795911
8744801832
8744806958
8744812635
8744818799
8744824598
8744831067
8744836133
8744844617
8744847730
8744856397
8744860913
8744867993
8744873059
8744878552
8744885877
8744891370
8744897412
8744903943
8744909436
8744914441
8744920789
8744926038
8744934522
8744940198
8744945569
8744949475
8744956189
8744961682
8744966809
8744973096
8744979810
8744984631
8744992078
8744998120
8745005444
8745010510
8745016247
8745022839
8745029431
8745035351
8745040539
8745044873
8745052319
8745057751
8745063916
8745069897
8745075390
8745081494
8745086987
8745092358
8745099255
8745104809
8745110302
8745117138
8745123303
8745130505
8745138073
8745144970
8745155163
8745161267
8745167431
8745172924
8745179028
8745186779
8745193188
8745199413
8745203930
8745211865
8745216503
8745223705
8745228222
8745236157
8745241772
8745249584
8745254833
8745261059
8745265881
8745274792
8745280956
8745286571
8745293713
8745299267
8745306774
8745312511
8745319530
8745325146
8745332714
8745338451
8745345165
8745352489
8745358227
8745365551
8745370983
8745379039
8745384411
8745391796
8745398754
8745406078
8745411815
8745419201
8745425975
8745432567
8745439342
8745446056
8745450634
8745457958
8745465038
8745471569
8745478649
8745485179
8745491039
8745497997
8745505443
8745510265
8745517284
8745523753
8745530711
8745535655
8745542491
8745549144
8745556957
8745561839
8745569286
8745575816
8745582225
8745589061
8745595225
8745600291
8745608653
8745614757
8745620433
8745627696
8745633433
8745639842
8745647166
8745654368
8745660960
8745666575
8745672984
8745680125
8745687632
8745694224
8745699351
8745707103
8745711924
8745719493
8745726085
8745732493
8745738353
8745746409
8745750132
8745760630
8745766185
8745774668
8745781504
8745787608
8745793894
8745802439
8745807627
8745815440
8745821299
8745829234
8745833872
8745842051
8745848032
8745855357
8745861399
8745868601
8745874705
8745881968
8745886668
8745893931
8745899729
8745906992
8745914072
8745921030
8745925547
8745933604
8745940012
8745947886
8745954355
8745960764
8745969248
8745975474
8745981577
8745989512
8745995676
8746003550
8746009653
8746015879
8746020090
8746030649
8746038095
8746044443
8746049997
8746058542
8746064707
8746071665
8746077829
8746086862
8746092661
8746101084
8746107065
8746115854
8746123666
8746129953
8746138010
8746145517
8746151376
8746157846
8746166635
8746173715
8746180673
8746186838
8746196481
8746200510
8746209726
8746215768
8746224863
8746230905
8746239267
8746245126
8746253915
8746260263
8746268442
8746276315
8746283700
8746291452
8746298410
8746304208
8746311471
8746320443
8746328561
8746334787
8746343820
8746349679
8746357675
8746364389
8746371163
8746382211
8746387643
8746396310
8746403085
8746411813
8746418954
8746426339
8746430734
8746440499
8746449471
8746457650
8746464303
8746471932
8746480538
8746490243
8746495736
8746502511
8746515328
8746522408
8746530465
8746535714
8746544747
8746550484
8746559212
8746565011
8746574898
8746581978
8746591011
8746597298
8746606148
8746611397
8746620247
8746627083
8746633919
8746640877
8746648201
8746654061
8746663826
8746667977
8746677071
8746684761
8746692513
8746698799
8746708199
8746714119
8746720345
8746729073
8746734016
8746742928
8746749641
8746758369
8746765205
8746771797
8746778389
8746785835
8746791878
8746800728
8746809151
8746815071
8746823921
8746832954
8746838753
8746847420
8746853584
8746860908
8746869270
8746876777
8746885383
8746890571
8746899849
8746906807
8746913704
8746917610
8746927070
8746932991
8746942512
8746949165
8746956794
8746966865
8746975532
8746982917
8746991218
8746997993
8747008735
8747013252
8747024543
8747031562
8747039924
8747046088
8747054572
8747061103
8747071235
8747075568
8747087592
8747095588
8747103461
8747107795
8747117866
8747124763
8747132880
8747139289
8747152595
8747156928
8747171210
8747179572
8747187446
8747192389
8747202582
8747209174
8747218329
8747224982
8747235114
8747241645
8747249640
8747258185
8747265937
8747281745
8747288336
8747301642
8747311774
8747322028
8747330084
8747337225
8747346381
8747354620
8747362128
8747369391
8747374823
