8040684860
8040690048
8040694625
8040700179
8040706100
8040711105
8040715438
8040721298
8040727279
8040733077
8040737533
8040743270
8040748824
8040754928
8040760787
8040766585
8040772445
8040777999
8040783126
8040789596
8040794845
8040801681
8040806930
8040812545
8040818892
8040825240
8040830794
8040840804
8040849044
8040855819
8040863448
8040872603
8040881270
8040888533
8040895247
8040901595
8040907515
8040917891
8040923384
8040934920
8040942549
8040949935
8040956160
8040964522
8040969893
8040979109
8040986128
8040993453
8041000838
8041009017
8041015730
8041024214
8041032149
8041038496
8041046004
8041052779
8041061018
8041068953
8041076155
8041083235
8041090010
8041096602
8041104719
8041111860
8041120161
8041126692
8041132979
8041139448
8041146345
8041154829
8041160933
8041169294
8041175093
8041183332
8041190290
8041197981
8041206892
8041214338
8041222883
8041229475
8041236799
8041243269
8041250593
8041260115
8041266096
8041275923
8041284162
8041292280
8041299665
8041307722
8041316389
8041322492
8041330610
8041341047
8041347700
8041355695
8041364973
8041372663
8041379926
8041389204
8041396833
8041405988
8041414411
8041420392
8041429609
8041438215
8041445661
8041455854
8041469465
8041476789
8041489911
8041499738
8041508405
8041516828
8041525617
8041530988
8041540143
8041546552
8041555951
8041563153
8041570539
8041575543
8041586713
8041595197
8041603864
8041611310
8041618024
8041626630
8041632794
8041641949
8041651166
8041657330
8041665265
8041673505
8041681500
8041687848
8041699933
8041707562
8041713910
8041723675
8041731915
8041740277
8041750287
8041756695
8041764447
8041772992
8041780255
8041789959
8041798687
8041806866
8041814495
8041823162
8041831707
8041840313
8041847393
8041855633
8041863690
8041871441
8041880230
8041884564
8041896282
8041903912
8041909893
8041919903
8041924175
8041935040
8041943462
8041949627
8041960003
8041966778
8041974285
8041982342
8041988384
8041998028
8042005840
8042014995
8042023601
8042029278
8042040386
8042049053
8042055462
8042066265
8042075237
8042082805
8042092083
8042097942
8042107830
8042116497
8042125225
8042133525
8042139751
8042148967
8042158855
8042166057
8042175762
8042185100
8042191570
8042200481
8042209514
8042217448
8042224468
8042232219
8042239787
8042247966
8042254985
8042263835
8042271098
8042279155
8042286906
8042292888
8042302409
8042309733
8042317119
8042321452
8042330790
8042337565
8042344767
8042352458
8042359965
8042367595
8042374736
8042382365
8042389750
8042396769
8042403788
8042413127
8042420939
8042426737
8042434611
8042441691
8042447734
8042456828
8042462931
8042472087
8042476420
8042485331
8042491374
8042500834
8042507670
8042516947
8042525065
8042534708
8042539713
8042549418
8042556315
8042566447
8042571207
8042580363
8042590250
8042597819
8042604960
8042611368
8042619608
8042626810
8042634623
8042641703
8042650614
8042656962
8042664530
8042672648
8042679911
8042687723
8042694620
8042703226
8042711222
8042718119
8042725565
8042734293
8042741495
8042749796
8042757181
8042766397
8042773477
8042781412
8042788858
8042794962
8042803751
8042811502
8042820047
8042829019
8042834451
8042841775
8042848367
8042858987
8042866800
8042879007
8042886331
8042895853
8042904336
8042912820
8042920083
8042930642
8042935037
8042944314
8042952981
8042961160
8042969095
8042977334
8042986489
8042994668
8043001687
8043009256
8043016030
8043023416
8043033303
8043041970
8043050942
8043056558
8043065408
8043072366
8043078774
8043085244
8043091653
8043098672
8043103494
8043112100
8043117043
8043123940
8043131265
8043137673
8043142495
8043151528
8043157021
8043165566
8043171731
8043178200
8043184121
8043190468
8043196938
8043205300
8043210915
8043216775
8043224221
8043229592
8043235573
8043241982
8043250527
8043254311
8043262001
8043267006
8043274270
8043277932
8043286293
8043292458
8043299172
8043306435
8043312966
8043318703
8043324501
8043329384
8043335243
8043343117
8043350685
8043356972
8043363503
8043369179
8043375893
8043381142
8043387612
8043393959
8043399757
8043406899
8043413673
8043420631
8043427467
8043434914
8043437721
8043449074
8043454201
8043463112
8043467567
8043476478
8043480690
8043489235
8043493202
8043504127
8043511085
8043518226
8043527748
8043534523
8043546180
8043554298
8043563759
8043571327
8043578346
8043585914
8043591346
8043598365
8043605323
8043611244
8043618629
8043626380
8043633338
8043639381
8043646949
8043653785
8043660865
8043667640
8043673744
8043680580
8043687476
8043692664
8043701881
8043707191
8043714515
8043719947
8043727515
8043735694
8043741431
8043746192
8043756202
8043766212
8043772010
8043781043
8043787269
8043796485
8043803382
8043810645
8043821204
8043828650
8043836402
8043844397
8043852149
8043857764
8043865088
8043873755
8043880591
8043890296
8043898963
8043905310
8043912696
8043921546
8043928443
8043934851
8043944251
8043952429
8043960303
8043967932
8043975928
8043982459
8043990637
8043995154
8044005286
8044010046
8044020483
8044025122
8044035010
8044039587
8044048743
8044055151
8044062475
8044071020
8044078223
8044084814
8044092932
8044098608
8044107092
8044115332
8044122534
8044128332
8044136938
8044142920
8044151037
8044158911
8044166113
8044173925
8044180273
8044188024
8044196875
8044203405
8044212011
8044218603
8044228002
8044239050
8044247106
8044254064
8044261938
8044269689
8044277319
8044285925
8044295629
8044303869
8044311559
8044317602
8044326269
8044342565
8044349706
8044359838
8044366369
8044375829
8044380468
8044388952
8044395605
8044404271
8044410680
8044419713
8044426244
8044434850
8044441503
8044448705
8044454747
8044462865
8044470617
8044478368
8044486303
8044497411
8044503575
8044512853
8044519994
8044527501
8044534520
8044543920
8044550450
8044558995
8044564305
8044572057
8044579869
8044585973
8044591527
8044599950
8044607335
8044615147
8044620457
8044627904
8044635167
8044642491
8044647801
8044656590
8044664159
8044669835
8044677037
8044684056
8044691319
8044698277
8044703648
8044707799
8044718724
8044726658
8044734288
8044738987
8044748082
8044754796
8044762486
8044768895
8044778843
8044786045
8044792942
8044798680
8044807713
8044813511
8044821507
8044827549
8044837437
8044845799
8044852146
8044860264
8044869053
8044877476
8044886448
8044892979
8044901890
8044908848
8044917942
8044926670
8044932468
8044939121
8044947422
8044954258
8044965732
8044970920
8044980747
8044985935
8044995640
8045003269
8045012241
8045020420
8045028660
8045038303
8045044956
8045054660
8045062290
8045068149
8045075656
8045083469
8045093051
8045103305
8045110813
8045117710
8045126255
8045132297
8045140781
8045146701
8045155795
8045163852
8045170444
8045178928
8045186191
8045192233
8045201022
8045207065
8045215549
8045221286
8045229404
8045237216
8045243808
8045251742
8045258273
8045265964
8045270480
8045279941
8045287204
8045295627
8045300387
8045309237
8045315707
8045323092
8045331454
8045338717
8045345309
8045352511
8045361056
8045367343
8045373751
8045382602
8045391085
8045400424
8045406954
8045411898
8045423129
8045431491
8045437899
8045446749
8045453158
8045464327
8045470919
8045479586
8045485995
8045493380
8045501315
8045510470
8045516512
8045525851
8045531893
8045540499
8045549532
8045556795
8045565645
8045572970
8045581881
8045588534
8045595675
8045606600
8045611666
8045620333
8045627413
8045635958
8045642611
8045651217
8045659639
8045669039
8045675447
8045684175
8045692720
8045699129
8045707186
8045712801
8045720247
8045728914
8045735872
8045743196
8045747835
8045754183
8045760408
8045766756
8045773042
8045779512
8045787996
8045796236
8045800508
8045809969
8045813631
8045821992
8045827791
8045837617
8045842927
8045849275
8045855867
8045862459
8045868867
8045875825
8045882722
8045887666
8045895296
8045900239
8045907625
8045912813
8045919099
8045924409
8045933625
8045938752
8045944795
8045951082
8045956819
8045962800
8045968599
8045974641
8045980928
8045985871
8045992097
8045997529
8046003755
8046010224
8046015168
8046021943
8046027375
8046033662
8046037019
8046044770
8046051667
8046057466
8046062226
8046068391
8046075349
8046079560
8046085725
8046091889
8046098237
8046103242
8046109406
8046113679
8046120881
8046127778
8046133393
8046138032
8046143708
8046151765
8046157990
8046163361
8046169648
8046175385
8046180390
8046187348
8046192292
8046199494
8046205903
8046211457
8046218415
8046224762
8046232087
8046238862
8046244721
8046251557
8046257477
8046262360
8046268219
8046273957
8046279938
8046286469
8046289948
8046298432
8046301544
8046308930
8046315216
8046321137
8046324616
8046335236
8046340302
8046346344
8046356598
8046362946
8046370331
8046376129
8046385162
8046393463
8046398773
8046408112
8046416046
8046423065
8046430145
8046438446
8046444611
8046452240
8046459076
8046465240
8046471649
8046478302
8046485016
8046491363
8046496979
8046504608
8046510101
8046517059
8046522430
8046530670
8046535919
8046543731
8046550018
8046558075
8046566131
8046571075
8046578582
8046585052
8046591033
8046597503
8046602020
8046610809
8046616851
8046623199
8046629302
8046635772
8046642242
8046648773
8046655242
8046661712
8046669219
8046674163
8046681670
8046688445
8046694305
8046701263
8046707671
8046713165
8046721282
8046726836
8046734710
8046740935
8046747466
8046751494
8046759612
8046765044
8046772429
8046778045
8046787627
8046793914
8046800506
8046807219
8046813750
8046818877
8046825286
8046833037
8046839690
8046846831
8046851531
8046859465
8046865264
8046873198
8046880156
8046887358
8046891753
8046900908
8046906706
8046913787
8046920012
8046928069
8046935637
8046942717
8046949370
8046956389
8046963347
8046970488
8046976164
8046983244
8046990447
8046997893
8047006194
8047014677
8047021269
8047029448
8047036528
8047042631
8047051787
8047059721
8047066252
8047071501
8047079436
8047087431
8047093596
8047101286
8047108732
8047116728
8047123442
8047128813
8047136564
8047144377
8047151640
8047157682
8047165129
8047170561
8047178556
8047186308
8047192533
8047198027
8047206755
8047212248
8047221037
8047226469
8047233793
8047240812
8047248075
8047253446
8047261991
8047267790
8047275114
8047283109
8047291105
8047298795
8047306425
8047312223
8047320768
8047326688
8047334135
8047342863
8047347623
8047357572
8047362089
8047371305
8047377775
8047386869
8047393339
8047401151
8047407682
8047415494
8047423856
8047431241
8047437650
8047444669
8047450589
8047460660
8047466520
8047474271
8047482144
8047488553
8047496427
8047502957
8047510526
8047519010
8047524991
8047534268
8047540311
8047544827
8047554898
8047563260
8047569241
8047575772
8047585538
8047590176
8047599210
8047605862
8047614102
8047620450
8047630154
8047636807
8047645718
8047652005
8047660367
8047669095
8047675564
8047684048
8047689053
8047698636
8047706021
8047715847
8047723050
8047731167
8047738186
8047746548
8047756497
8047765225
8047773342
8047781582
8047790921
8047796902
8047803616
8047813748
8047820523
8047828945
8047837063
8047845303
8047853848
8047861477
8047867397
8047877407
8047883877
8047891933
8047897854
8047906643
8047914577
8047922878
8047928860
8047937405
8047943569
8047952114
8047959987
8047965725
8047975063
8047979641
8047988918
8047996303
8048004665
8048009243
8048018215
8048024990
8048035061
8048041591
8048049282
8048055935
8048063991
8048070095
8048078517
8048084621
8048094264
8048100429
8048108730
8048117397
8048123256
8048131069
8048138515
8048146327
8048153041
8048160854
8048167323
8048175197
8048182643
8048188747
8048198390
8048206020
8048214015
8048222011
8048228175
8048236293
8048245021
8048253932
8048260768
8048266871
8048277064
8048282619
8048291591
8048299647
8048306361
8048313014
8048324061
8048330897
8048338343
8048349452
8048355555
8048364283
8048368556
8048378321
8048385707
8048393763
8048403224
8048411402
8048418360
8048425685
8048434229
8048442164
8048450038
8048460413
8048467188
8048480433
8048488367
8048495387
8048498011
8048512049
8048521021
8048531031
8048538477
8048545496
8048554590
8048564295
8048572596
8048580103
8048587183
8048594935
8048599817
8048606775
8048613489
8048621912
8048629786
8048636316
8048643335
8048651331
8048655542
8048663721
8048670008
8048679041
8048683924
8048692896
8048697046
8048705042
8048711023
8048719812
8048723963
8048733423
8048738367
8048748132
8048752283
8048761499
8048766260
8048775049
8048779138
8048788171
8048792505
8048800684
8048807886
8048812280
8048818628
8048824731
8048832117
8048836877
8048844018
8048850671
8048856348
8048863428
8048867700
8048874231
8048880884
8048887658
8048891137
8048898950
8048905969
8048912011
8048918969
8048925439
8048931115
8048937341
8048943933
8048949975
8048954675
8048962304
8048965966
8048972619
8048979333
8048985437
8048990991
8048996423
8049003198
8049007836
8049014062
8049019372
8049024438
8049029626
8049034936
8049042565
8049046838
8049054345
8049059533
8049065087
8049071252
8049075524
8049083459
8049087121
8049094140
8049100671
8049107079
8049112328
8049118127
8049125390
8049131127
8049137109
8049143212
8049148949
8049154076
8049160180
8049165368
8049171776
8049176537
8049183678
8049188195
8049195580
8049201989
8049207909
8049214135
8049220665
8049225975
8049232567
8049238182
8049246239
8049250878
8049258934
8049264366
8049269982
8049276451
8049281578
8049290123
8049296532
8049302147
8049306969
8049312401
8049318077
8049324364
8049332054
8049338890
8049344872
8049351341
8049357689
8049363487
8049369530
8049377647
8049383202
8049391197
8049397240
8049403343
8049410301
8049416588
8049423729
8049430748
8049437767
8049442100
8049449913
8049455772
8049462303
8049468956
8049475670
8049481895
8049489769
8049495933
8049502220
8049508873
8049515037
8049521568
8049527610
8049534080
8049540550
8049548179
8049551658
8049560081
8049566673
8049572593
8049580101
8049585227
8049592918
8049596763
8049606651
8049610557
8049618369
8049625205
8049631553
8049637779
8049642845
8049650169
8049656699
8049663780
8049671836
8049677695
8049685142
8049692161
8049699302
8049706077
8049711936
8049718772
8049725425
8049731284
8049736289
8049745017
8049751975
8049758567
8049765220
8049769797
8049778342
8049783347
8049791282
8049797629
8049805381
8049811728
8049816794
8049823203
8049829978
8049838340
8049845237
8049851401
8049856589
8049862509
8049868613
8049874533
8049882651
8049887717
8049895529
8049899192
8049908713
8049914939
8049919699
8049928488
8049935629
8049943137
8049949484
8049956686
8049964011
8049971152
8049977499
8049984824
8049992758
8049998068
8050005270
8050012289
8050018393
8050025412
8050034506
8050042135
8050049216
8050056418
8050063559
8050067526
8050077780
8050081808
8050092856
8050100424
8050107504
8050114645
8050122458
8050129049
8050135092
8050144430
8050151815
8050158102
8050163900
8050171652
8050176290
8050184835
8050190695
8050199545
8050206991
8050214437
8050221334
8050228414
8050236654
8050243246
8050250692
8050257833
8050267110
8050272237
8050281393
8050291341
8050300008
8050310201
8050316976
8050325643
8050332540
8050341573
8050347921
8050355794
8050361837
8050369832
8050376424
8050385152
8050392354
8050398580
8050403280
8050413350
8050417806
8050428304
8050436666
8050444234
8050450948
8050457601
8050466207
8050472005
8050480367
8050487935
8050493794
8050501424
8050509542
8050515218
8050523946
8050531697
8050539632
8050547994
8050554219
8050561726
8050566182
8050576497
8050584187
8050591512
8050599568
8050607991
8050615498
8050623250
8050629109
8050636861
8050644795
8050666401
8050672871
8050683613
8050691365
8050698872
8050706501
8050712483
8050722432
8050729023
8050739399
8050743977
8050751911
8050758259
8050769306
8050774372
8050784565
8050789692
8050799885
8050809101
8050815388
8050820454
8050831257
8050840107
8050848408
8050855854
8050863728
8050870808
8050879597
8050887714
8050894367
8050903095
8050909199
8050918781
8050925800
8050933918
8050940266
8050949055
8050959247
8050967975
8050974567
8050982441
8050989643
8050997516
8051003742
8051012592
8051020404
8051028949
8051037311
8051046161
8051053485
8051062519
8051068805
8051075519
8051086139
8051093158
8051102680
8051110309
8051117999
8051125568
8051134418
8051142169
8051150653
8051158710
8051167011
8051174396
8051180438
8051189593
8051195148
8051203632
8051212299
8051219806
8051226276
8051233783
8051240191
8051248492
8051254962
8051264056
8051269916
8051279620
8051286700
8051295550
8051302935
8051311175
8051315936
8051325702
8051334002
8051341815
8051346514
8051355365
8051359881
8051369586
8051377093
8051387042
8051392474
8051403033
8051410540
8051416461
8051422747
8051431292
8051438006
8051447833
8051452776
8051462176
8051466814
8051476336
8051481036
8051490313
8051496661
8051505938
8051513811
8051521746
8051526446
8051534563
8051541460
8051549944
8051556902
8051567400
8051572588
8051582110
8051587237
8051596819
8051603350
8051610369
8051617266
8051627275
8051634111
8051643267
8051648088
8051657732
8051662737
8051672869
8051682817
8051690325
8051697893
8051704057
8051712602
8051717668
8051725237
8051730180
8051736894
8051743486
8051749834
8051753191
8051760942
8051769487
8051775468
8051782976
8051788225
8051795061
8051802507
8051808794
8051814836
8051821428
8051828325
8051834611
8051840288
8051847795
8051854814
8051861162
8051865373
8051874345
8051881486
8051887529
8051893510
8051898820
8051905107
8051910356
8051917680
8051923417
8051928788
8051932328
8051939531
8051945024
8051951005
8051958696
8051964189
8051969377
8051974259
8051979508
8051985002
8051992021
8051997819
8052002152
8052008988
8052015519
8052021195
8052027421
8052031815
8052040604
8052046037
8052051591
8052056901
8052061601
8052068314
8052071305
8052081071
8052086930
8052092484
8052096757
8052102433
8052108475
8052112199
8052120194
8052125809
8052131425
8052137223
8052143143
8052148514
8052154862
8052161698
8052168168
8052173844
8052179337
8052184891
8052190567
8052196549
8052202408
8052209916
8052214249
8052221207
8052228409
8052233780
8052241837
8052248368
8052255753
8052262223
8052268265
8052273331
8052280472
8052285843
8052293717
8052298783
8052308426
8052315628
8052320450
8052328262
8052333511
8052341751
8052348221
8052354996
8052360367
8052366348
8052372513
8052379715
8052385941
8052391556
8052399490
8052405960
8052411880
8052417496
8052423416
8052429703
8052438370
8052444107
8052449112
8052456070
8052461075
8052468155
8052474807
8052482925
8052489639
8052494278
8052501175
8052507583
8052513931
8052519180
8052527237
8052531326
8052539260
8052545974
8052551895
8052557998
8052563125
8052571975
8052577774
8052585037
8052593215
8052597793
8052605117
8052610122
8052617019
8052622024
8052630874
8052636977
8052643325
8052649490
8052654433
8052663589
8052670425
8052676406
8052682693
8052689101
8052696242
8052702834
8052710647
8052717849
8052723952
8052730056
8052735976
8052741775
8052748549
8052755019
8052762038
8052767959
8052773940
8052781875
8052787429
8052794387
8052802504
8052809768
8052816481
8052823073
8052828383
8052835280
8052842543
8052850356
8052858535
8052864943
8052870925
8052879958
8052888869
8052895949
8052904921
8052913039
8052920973
8052926650
8052934767
8052940871
8052949660
8052955275
8052964369
8052971938
8052978773
8052984999
8052993422
8052998061
8053009169
8053015028
8053022047
8053029799
8053037489
8053043715
8053051344
8053059706
8053063978
8053074293
8053081678
8053089491
8053095472
8053102430
8053109266
8053116285
8053122450
8053130323
8053138807
8053144239
8053151625
8053158522
8053165113
8053171339
8053181654
8053190565
8053196180
8053203993
8053211012
8053219740
8053227369
8053233900
8053244581
8053251600
8053259473
8053266676
8053276563
8053285291
8053293897
8053298902
8053309705
8053314649
8053324842
8053329297
8053340162
8053344861
8053354139
8053358594
8053368848
8053373975
8053384595
8053389356
8053398999
8053406751
8053412854
8053419080
8053430249
8053435865
8053444165
8053450574
8053458753
8053465406
8053472852
8053479932
8053488660
8053495862
8053504102
8053510999
8053518933
8053525891
8053533582
8053540967
8053549939
8053558057
8053565686
8053573132
8053581616
8053589856
8053596387
8053605237
8053613965
8053622265
8053629162
8053639111
8053644604
8053656018
8053661084
8053673352
8053681408
8053687573
8053696850
8053702893
8053707592
8053718212
8053726879
8053735363
8053744213
8053752636
8053760266
8053768200
8053774182
8053782177
8053789440
8053797497
8053804455
8053812390
8053818493
8053826183
8053833508
8053840893
8053848156
8053856457
8053865490
8053871899
8053881054
8053887340
8053896007
8053902050
8053911266
8053917492
8053927685
8053934826
8053943126
8053950207
8053960888
8053965282
8053977001
8053982128
8053992504
8054000377
8054006969
8054011486
8054022228
8054027233
8054038646
8054047191
8054053478
8054061656
8054067821
8054076732
8054084728
8054090953
8054098949
8054107372
8054115123
8054121898
8054129588
8054136241
8054144237
8054146861
8054159007
8054168529
8054174388
8054182078
8054190379
8054196788
8054204478
8054210460
8054220531
8054226878
8054235179
8054241527
8054249217
8054253917
8054263560
8054272166
8054280284
8054288463
8054295848
8054303904
8054310252
8054317393
8054325511
8054332957
8054341380
8054349681
8054358775
8054366465
8054373667
8054384043
8054389231
8054402598
8054408579
8054416758
8054423411
8054433115
8054438425
8054448557
8054455820
8054465220
8054471201
8054479380
8054486094
8054494700
8054501536
8054510020
8054516733
8054525217
8054532175
8054539683
8054546274
8054555246
8054562204
8054569346
8054576181
8054586741
8054595224
8054601450
8054608469
8054617563
8054622385
8054630381
8054636728
8054647104
8054652353
8054661142
8054667124
8054674997
8054679270
8054686960
8054692758
8054702768
8054709421
8054715097
8054720834
8054726511
8054731210
8054737619
8054744516
8054750681
8054757272
8054762582
8054768747
8054772226
8054781930
8054788827
8054795663
8054801584
8054807565
8054814157
8054819772
8054824533
8054832223
8054837900
8054843759
8054851144
8054856332
8054862008
8054868234
8054875131
8054881356
8054886972
8054890878
8054898446
8054905343
8054910775
8054917428
8054922006
8054928048
8054933236
8054939401
8054944528
8054949960
8054956491
8054962411
8054968148
8054974801
8054979989
8054986398
8054992745
8055000253
8055006844
8055013375
8055019051
8055023507
8055030221
8055036385
8055043710
8055049386
8055054208
8055062020
8055066659
8055072396
8055081307
8055087960
8055093697
8055100472
8055106393
8055112984
8055116158
8055125741
8055131539
8055137337
8055143502
8055148324
8055154427
8055159981
8055169320
8055175423
8055181282
8055188118
8055193734
8055199715
8055206307
8055212716
8055220101
8055226265
8055232064
8055238045
8055244026
8055252022
8055257271
8055264595
8055271614
8055277718
8055284126
8055288582
8055296517
8055303291
8055309212
8055317085
8055323006
8055330330
8055336800
8055344856
8055351997
8055358406
8055364693
8055370613
8055377449
8055381966
8055390999
8055396553
8055403511
8055409431
8055415169
8055421516
8055427864
8055433296
8055439399
8055446785
8055453438
8055459358
8055464302
8055471443
8055475532
8055484749
8055491890
8055498298
8055505134
8055511360
8055518623
8055522712
8055531440
8055537727
8055543769
8055550849
8055557624
8055564216
8055572456
8055579902
8055586738
8055593818
8055599861
8055605659
8055613654
8055621650
8055627570
8055633674
8055640632
8055646857
8055652106
8055660102
8055663520
8055672187
8055679572
8055685493
8055691108
8055697394
8055703132
8055707831
8055716804
8055723029
8055730597
8055736701
8055742682
8055748481
8055754340
8055762397
8055768805
8055775946
8055781623
8055788947
8055794806
8055801337
8055809027
8055814399
8055821051
8055826483
8055833930
8055839484
8055847113
8055853339
8055863104
8055870062
8055877204
8055884528
8055890387
8055898200
8055905463
8055913702
8055921271
8055928290
8055935309
8055941107
8055948065
8055954962
8055960394
8055969488
8055977850
8055984076
8055989996
8055998968
8056006903
8056014227
8056020148
8056029181
8056032232
8056042730
8056049933
8056056707
8056063299
8056069220
8056078985
8056085333
8056093084
8056099615
8056109625
8056114386
8056124090
8056133673
8056141607
8056147528
8056155157
8056163763
8056170538
8056179144
8056185613
8056195928
8056203253
8056211309
8056218450
8056227422
8056232183
8056241460
8056248724
8056256414
8056263067
8056271978
8056280096
8056288824
8056296941
8056302556
8056313604
8056320867
8056329900
8056337224
8056344488
8056353399
8056361638
8056370366
8056377080
8056386602
8056393071
8056400762
8056408086
8056416143
8056423284
8056433904
8056442082
8056449773
8056458623
8056464971
8056473027
8056481450
8056489812
8056497807
8056505376
8056511296
8056519292
8056526860
8056533452
8056541386
8056551091
8056557500
8056565495
8056572575
8056582951
8056588322
8056598210
8056605412
8056613347
8056621708
8056629399
8056636418
8056644047
8056647099
8056658268
8056665837
8056673710
8056681157
8056687077
8056691533
8056702336
8056710453
8056716801
8056721318
8056734989
8056741642
8056749394
8056756718
8056762516
8056770512
8056776676
8056783940
8056793217
8056798222
8056808415
8056813114
8056822331
8056827824
8056838017
8056842716
8056853886
8056859806
8056869572
8056874393
8056883854
8056888798
8056898746
8056903202
8056913639
8056922306
8056928104
8056935428
8056943485
8056948612
8056959232
8056967655
8056976566
8056983707
8056991886
8057000125
8057006290
8057014469
8057023441
8057031742
8057039798
8057046146
8057053836
8057061344
8057069095
8057075504
8057083988
8057092471
8057100833
8057103824
8057114749
8057122928
8057128787
8057133365
8057143863
8057152652
8057160525
8057167544
8057175601
8057183475
8057189456
8057196963
8057204715
8057211246
8057219363
8057227481
8057233645
8057241946
8057249820
8057256534
8057263980
8057271060
8057279483
8057287967
8057293887
8057301333
8057309085
8057316470
8057322940
8057332034
8057341189
8057347842
8057355776
8057363406
8057369814
8057377688
8057385745
8057392214
8057400820
8057408755
8057416689
8057424258
8057430239
8057438174
8057446230
8057450930
8057461001
8057466006
8057475405
8057483401
8057489504
8057496279
8057503664
8057510195
8057520571
8057528383
8057534243
8057540957
8057549746
8057557741
8057563723
8057568178
8057580141
8057584902
8057595034
8057602846
8057610659
8057616335
8057622499
8057631166
8057638185
8057644716
8057649965
8057657656
8057663576
8057669618
8057676515
8057681703
8057689455
8057695497
8057702211
8057706239
8057714479
8057721803
8057727235
8057734743
8057741396
8057747133
8057752931
8057759584
8057767946
8057775148
8057781496
8057784791
8057791994
8057798280
8057803956
8057810243
8057815858
8057823121
8057827943
8057835756
8057841798
8057846742
8057853334
8057859254
8057866151
8057871583
8057878236
8057883424
8057889100
8057894899
8057900636
8057906129
8057912233
8057917787
8057923158
8057927796
8057935304
8057940797
8057945924
8057952210
8057957704
8057964295
8057971436
8057976685
8057982484
8057989137
8057994752
8058000001
8058005189
8058012452
8058016969
8058023621
8058030396
8058036256
8058042603
8058047120
8058054383
8058060792
8058067872
8058073914
8058079041
8058085511
8058093079
8058098817
8058104981
8058109559
8058117371
8058123169
8058128602
8058135621
8058141175
8058149353
8058156739
8058162720
8058169129
8058175415
8058184388
8058190796
8058198059
8058204468
8058209107
8058216614
8058222534
8058229737
8058234986
8058244629
8058251099
8058256531
8058264649
8058270203
8058277954
8058284119
8058291138
8058298157
8058302795
8058310608
8058315430
8058323669
8058329956
8058335937
8058341614
8058347534
8058351135
8058360351
8058367432
8058372070
8058379883
8058385010
8058392029
8058399048
8058406006
8058414001
8058419006
8058426636
8058432068
8058439331
8058445923
8058451904
8058458496
8058464904
8058471740
8058477478
8058485046
8058489013
8058499450
8058506103
8058511901
8058520629
8058527465
8058533386
8058538879
8058545532
8058555114
8058561889
8058567809
8058573425
8058579406
8058585754
8058592162
8058599853
8058605956
8058613097
8058620605
8058626952
8058634216
8058641051
8058649108
8058655212
8058661681
8058667968
8058673949
8058681151
8058686278
8058695739
8058703124
8058709533
8058713500
8058721862
8058728515
8058734862
8058742675
8058749267
8058756957
8058762572
8058770385
8058775817
8058783812
8058789183
8058798278
8058806639
8058813781
8058820922
8058830016
8058835021
8058844054
8058850707
8058859801
8058865111
8058874571
8058881773
8058889342
8058897032
8058902525
8058910704
8058918272
8058925963
8058932310
8058940184
8058947081
8058954100
8058963194
8058970640
8058977476
8058985106
8058991759
8058997252
8059005430
8059011107
8059021177
8059027647
8059034422
8059040342
8059047545
8059055174
8059062620
8059070433
8059078856
8059083738
8059092771
8059099852
8059106810
8059114073
8059119322
8059127867
8059136106
8059139219
8059150205
8059155332
8059165342
8059169981
8059180052
8059184507
8059197385
8059204405
8059212217
8059219968
8059228086
8059235166
8059243223
8059251524
8059257932
8059267576
8059274534
8059282163
8059288816
8059297117
8059303892
8059314695
8059320554
8059329404
8059333982
8059343869
8059348386
8059357908
8059364377
8059375180
8059383664
8059390134
8059396787
8059404477
8059410947
8059419370
8059426389
8059434873
8059442502
8059449216
8059455502
8059463620
8059470761
8059478452
8059484921
8059495358
8059503781
8059509824
8059516232
8059523495
8059530209
8059539731
8059545285
8059555600
8059563290
8059573605
8059579831
8059587765
8059592831
8059603024
8059608212
8059619381
8059626339
8059633786
8059642514
8059649228
8059656308
8059664730
8059672970
8059681637
8059690792
8059698056
8059705868
8059714779
8059723568
8059728817
8059739437
8059744198
8059753903
8059762509
8059769283
8059778500
8059785030
8059794857
8059803524
8059811153
8059819088
8059826900
8059835506
8059844295
8059850826
8059860592
8059867489
8059876461
8059881466
8059890926
8059895687
8059905636
8059910152
8059921810
8059930050
8059935970
8059944759
8059952999
8059960994
8059966671
8059971675
8059982540
8059991390
8059997798
8060006771
8060012752
8060017330
8060026668
8060033260
8060043636
8060048702
8060058956
8060066768
8060073055
8060080074
8060087032
8060094234
8060105159
8060110347
8060119991
8060125362
8060134822
8060141475
8060148433
8060155025
8060166621
8060171931
8060180965
8060187434
8060195186
8060201533
8060211726
8060218806
8060227229
8060235103
8060241084
8060247371
8060256770
8060265559
8060272761
8060280818
8060291621
8060329096
8060334284
8060345515
8060356562
8060362727
8060372309
8060378596
8060390681
8060398249
8060407771
8060413264
8060423762
8060428828
8060439631
8060449580
8060457636
8060464594
8060472834
8060481013
8060486872
8060494806
8060502375
8060510065
8060517939
8060525385
8060532953
8060539301
8060546503
8060553278
8060558405
8060566645
8060572992
8060580255
8060585382
8060592768
8060598322
8060604669
8060612116
8060618463
8060624567
8060631403
8060637079
8060642999
8060649957
8060656732
8060661737
8060670587
8060676386
8060681085
8060688837
8060693170
8060700861
8060706720
8060713739
8060719476
8060724908
8060731134
8060737054
8060744806
8060749506
8060756708
8060761529
8060770624
8060775323
8060780084
8060787774
8060793451
8060799371
8060805169
8060810418
8060815667
8060820978
8060827203
8060832574
8060838922
8060843255
8060849969
8060855462
8060860650
8060867730
8060873346
8060879388
8060883966
8060891473
8060897149
8060903131
8060911248
8060917413
8060923394
8060929009
8060935113
8060941155
8060948602
8060954339
8060960809
8060966912
8060975457
8060982110
8060988397
8060996514
8061001885
8061008965
8061014458
8061020440
8061025872
8061031487
8061038384
8061044915
8061051507
8061057793
8061063286
8061068841
8061074212
8061081292
8061087395
8061094475
8061101372
8061108208
8061114861
8061121087
8061126885
8061133599
8061139519
8061146782
8061152092
8061159356
8061163445
8061174248
8061179863
8061186394
8061193047
8061199395
8061206353
8061211418
8061220574
8061225640
8061232231
8061239678
8061245232
8061253044
8061258293
8061265984
8061272575
8061278923
8061285576
8061292107
8061298821
8061303825
8061312737
8061318962
8061325615
8061331108
8061337517
8061343620
8061351555
8061358024
8061364067
8061370048
8061377006
8061383537
8061390007
8061394035
8061403007
8061410759
8061417412
8061422722
8061429496
8061436882
8061440849
8061450370
8061456474
8061462822
8061469780
8061476371
8061483757
8061492118
8061498405
8061505546
8061510856
8061517814
8061522880
8061531791
8061536857
8061542716
8061550529
8061556449
8061565727
8061571586
8061577628
8061587028
8061592521
8061600517
8061607230
8061613151
8061619987
8061626395
8061634208
8061640678
8061646476
8061653373
8061659720
8061666373
8061671378
8061680961
8061686637
8061693229
8061699515
8061706046
8061711966
8061720023
8061726066
8061732962
8061739371
8061747489
8061753653
8061762931
8061768546
8061777762
8061783805
8061792777
8061800711
8061806937
8061815604
8061822379
8061829947
8061837332
8061844534
8061852103
8061857779
8061865408
8061873343
8061879813
8061888968
8061896170
8061903983
8061911063
8061918082
8061924124
8061931509
8061939444
8061946524
8061953787
8061962088
8061968985
8061974966
8061984244
8061989126
8061999746
8062007864
8062015738
8062023611
8062029776
8062038565
8062044485
8062049978
8062062918
8062070852
8062076956
8062085257
8062093374
8062100088
8062107839
8062111074
8062124502
8062131765
8062139639
8062148550
8062155813
8062166006
8062173391
8062182668
8062188100
8062197988
8062202688
8062213003
8062218557
8062229055
8062234487
8062244863
8062253835
8062259634
8062268117
8062277028
8062284292
8062290212
8062299795
8062307119
8062316213
8062323354
8062331411
8062337941
8062345205
8062351613
8062362172
8062370778
8062377065
8062383840
8062392873
8062397573
8062406728
8062413442
8062422292
8062429128
8062436391
8062442800
8062450429
8062458730
8062465138
8062473927
8062480641
8062487477
8062496510
8062503285
8062510365
8062516957
8062526234
8062532948
8062542226
8062549184
8062558156
8062565724
8062574391
8062579030
8062589284
8062600209
8062608082
8062615773
8062624135
8062630604
8062637135
8062646168
8062651722
8062661427
8062668202
8062678273
8062685047
8062692982
8062700184
8062710682
8062715748
8062726185
8062733204
8062740894
8062745411
8062756275
8062762989
8062770985
8062773670
8062786732
8062795094
8062802723
8062809132
8062817188
8062825550
8062831898
8062839466
8062847401
8062855335
8062864063
8062871326
8062880054
8062888599
8062896351
8062906910
8062912037
8062921802
8062930774
8062937305
8062943958
8062952015
8062958850
8062967212
8062974231
8062982776
8062990772
8062997608
8063004810
8063013904
8063023181
8063030689
8063038928
8063044971
8063053760
8063062183
8063069690
8063076343
8063084522
8063091907
8063099719
8063106311
8063114978
8063123157
8063129382
8063136279
8063146960
8063155627
8063161975
8063170947
8063176929
8063181506
8063191638
8063196094
8063208484
8063213977
8063224170
8063226855
8063237719
8063242602
8063251513
8063258471
8063269885
8063276477
8063284106
8063291552
8063298083
8063303149
8063313647
8063318591
8063329028
8063336474
8063344592
8063352648
8063358691
8063366503
8063374133
8063383410
8063391344
8063399889
8063406359
8063413805
8063420214
8063428698
8063435046
8063444018
8063450487
8063458361
8063467272
8063473620
8063479601
8063488939
8063495226
8063504809
8063509691
8063518175
8063524218
8063531359
8063535509
8063543810
8063550035
8063558336
8063563036
8063569078
8063574999
8063580187
8063587389
8063592699
8063601000
8063609117
8063613939
8063621630
8063627794
8063633898
8063641161
8063648058
8063654649
8063661119
8063666795
8063674486
8063679552
8063686815
8063692186
8063700243
8063706590
8063711107
8063717454
8063723131
8063730089
8063735216
8063741258
8063747667
8063753404
8063759263
8063764696
8063771715
8063777025
8063784593
8063788865
8063796312
8063803697
8063808641
8063816392
8063822435
8063827989
8063834092
8063838365
8063845445
8063849778
8063859361
8063864549
8063869737
8063875291
8063880723
8063886582
8063891831
8063899766
8063904832
8063911729
8063916734
8063922166
8063928636
8063933091
8063940965
8063947801
8063953172
8063959458
8063964280
8063971360
8063976121
8063983384
8063990159
8063996506
8064003587
8064009080
8064015000
8064021348
8064027207
8064033555
8064038865
8064045518
8064051255
8064057236
8064065232
8064071396
8064078354
8064084702
8064091599
8064098313
8064104050
8064110520
8064116623
8064123337
8064129990
8064136094
8064142868
8064148484
8064156357
8064162705
8064170090
8064176926
8064183579
8064188706
8064197434
8064202927
8064208786
8064216965
8064221665
8064230026
8064235031
8064241074
8064246994
8064254685
8064261704
8064267502
8064274338
8064280746
8064286972
8064292038
8064301743
8064307846
8064314194
8064320480
8064325546
8064333115
8064336777
8064346603
8064352585
8064359299
8064366867
8064371322
8064377853
8064384567
8064391281
8064397751
8064403976
8064409897
8064415817
8064422836
8064428878
8064434372
8064440902
8064448104
8064452011
8064461410
8064468185
8064472885
8064481674
8064489059
8064495162
8064501449
8064507553
8064513656
8064519637
8064526779
8064531844
8064539474
8064545577
8064553207
8064559615
8064566207
8064574020
8064580062
8064586105
8064593368
8064599227
8064605514
8064610458
8064619002
8064624251
8064631942
8064638106
8064644393
8064650374
8064657210
8064664901
8064672469
8064680648
8064685348
8064694381
8064702498
8064710250
8064719100
8064725753
8064735213
8064741744
8064749862
8064755355
8064764571
8064771651
8064780623
8064785201
8064793990
8064802291
8064809493
8064816023
8064823775
8064831160
8064841170
8064847334
8064854170
8064861495
8064867415
8064875288
8064882918
8064889876
8064897749
8064904219
8064911909
8064918623
8064925459
8064934370
8064938521
8064949141
8064957564
8064965071
8064971663
8064979353
8064986799
8064993879
8065001570
8065007429
8065017134
8065023542
8065033613
8065040144
8065047773
8065055220
8065065473
8065073408
8065079695
8065086592
8065094465
8065100935
8065109419
8065116438
8065123945
8065131025
8065137922
8065144819
8065152754
8065159589
8065169233
8065173994
8065185407
8065191206
8065200849
8065209211
8065215559
8065223493
8065231061
8065236371
8065246686
8065252302
8065262922
8065271345
8065277936
8065285627
8065293378
8065299299
8065310712
8065317426
8065324933
8065331586
8065339704
8065345502
8065352826
8065361920
8065370832
8065378522
8065386457
8065393354
8065400922
8065409040
8065415082
8065423261
8065430829
8065438825
8065447186
8065455060
8065462445
8065472333
8065477460
8065490643
8065495831
8065504987
8065511822
8065521222
8065526105
8065535992
8065540448
8065553509
8065560406
8065568219
8065575726
8065584027
8065588788
8065598370
8065603314
8065614178
8065622479
8065628277
8065636456
8065644390
8065651226
8065657513
8065662091
8065674542
8065679547
8065689495
8065697369
8065703533
8065711651
8065719952
8065725079
8065734722
8065743450
8065751080
8065757305
8065766094
8065773174
8065781109
8065788067
8065796917
8065805462
8065813396
8065819561
8065827251
8065833721
8065842144
8065849468
8065857525
8065865764
8065871868
8065879802
8065885845
8065893657
8065901775
8065909404
8065919048
8065928020
8065934490
8065943157
8065949260
8065957073
8065964763
8065967449
8065979045
8065987224
8065994853
8066000957
8066009319
8066017681
8066023357
8066031474
8066039531
8066048076
8066054118
8066062053
8066068584
8066076884
8066084880
8066091655
8066100078
8066108195
8066115825
8066122661
8066130839
8066137370
8066145427
8066150493
8066161052
8066168437
8066174235
8066183024
8066189067
8066193889
8066203715
8066212138
8066218913
8066229472
8066236369
8066245402
8066251872
8066259074
8066267863
8066276713
8066285441
8066292704
8066299723
8066308634
8066313456
8066322856
8066329752
8066340006
8066348612
8066354533
8066362345
8066370341
8066375529
8066383707
8066390543
8066399760
8066407206
8066415629
8066423929
8066431254
8066437174
8066444376
8066452677
8066460612
8066467875
8066473063
8066481180
8066486979
8066492594
8066497477
8066505411
8066512125
8066516703
8066523783
8066528055
8066534769
8066539774
8066548258
8066552469
8066559732
8066566019
8066571939
8066577433
8066583048
8066590006
8066596353
8066602701
8066606790
8066615152
8066620157
8066626016
8066633646
8066639078
8066645670
8066651224
8066656900
8066663858
8066669717
8066676187
8066682046
8066687601
8066693338
8066699258
8066704507
8066710855
8066717081
8066721414
8066727823
8066732400
8066739297
8066745157
8066750284
8066758035
8066764444
8066769632
8066775003
8066780252
8066786538
8066791116
8066798257
8066805032
8066810586
8066815774
8066823220
8066828836
8066836831
8066842202
8066848550
8066853677
8066860452
8066867166
8066872537
8066879190
8066885171
8066891641
8066897439
8066903970
8066911172
8066915750
8066924233
8066929849
8066935830
8066942483
8066947122
8066954141
8066959145
8066967812
8066973916
8066979531
8066985390
8066991250
8066997353
8067002236
8067011208
8067017617
8067023598
8067030617
8067036965
8067042824
8067047951
8067056008
8067062722
8067070168
8067076455
8067082863
8067088723
8067093850
8067101418
8067108071
8067116005
8067122109
8067128945
8067136025
8067140969
8067147805
8067155678
8067162514
8067168618
8067173622
8067181496
8067188088
8067195290
8067201332
8067208718
8067215126
8067220070
8067228371
8067233315
8067240517
8067244423
8067254005
8067260719
8067265358
8067272560
8067280067
8067287941
8067295021
8067300941
8067307045
8067313393
8067320228
8067325172
8067332680
8067340370
8067346229
8067352394
8067358864
8067364479
8067372902
8067379432
8067385963
8067392677
8067401039
8067407142
8067413917
8067421119
8067427101
8067435035
8067439979
8067447242
8067452247
8067460975
8067466957
8067474281
8067481117
8067488075
8067495948
8067501563
8067509010
8067516822
8067523719
8067530311
8067536842
8067543617
8067550391
8067557472
8067562782
8067570594
8067578040
8067585975
8067592261
8067597816
8067606055
8067611365
8067620826
8067627357
8067634620
8067640540
8067648841
8067654029
8067663611
8067670081
8067678809
8067684546
8067693763
8067698157
8067706275
8067712561
8067721289
8067725379
8067737525
8067744422
8067751990
8067758826
8067766394
8067774085
8067780005
8067788794
8067796729
8067803687
8067809973
8067817297
8067823035
8067831824
8067838904
8067849097
8067853735
8067862097
8067867896
8067875586
8067882178
8067890173
8067896582
8067907202
8067912390
8067921362
8067928015
8067938269
8067943091
8067951697
8067958166
8067968481
8067975988
8067983252
8067989599
8067997839
8068004675
8068012609
8068019812
8068029089
8068035803
8068043737
8068050695
8068058996
8068068457
8068075109
8068083227
8068093420
8068100744
8068108801
8068116613
8068124975
8068131689
8068139379
8068146825
8068154699
8068162695
8068168737
8068178197
8068187414
8068195287
8068202489
8068212743
8068218236
8068227453
8068232213
8068242284
8068247045
8068255529
8068262243
8068272313
8068281041
8068288671
8068296544
8068304967
8068313939
8068320348
8068330663
8068338536
8068345922
8068352391
8068359655
8068367894
8068374486
8068380284
8068390050
8068396398
8068405736
8068412328
8068419713
8068426549
8068434483
8068441502
8068451695
8068459813
8068465611
8068473729
8068480016
8068486241
8068494176
8068501500
8068511876
8068517308
8068526768
8068533665
8068540562
8068548070
8068557530
8068564244
8068572484
8068581273
8068587254
8068596592
8068602513
8068610936
8068616917
8068627354
8068634434
8068643345
8068649998
8068656956
8068664341
8068671787
8068681126
8068690281
8068697361
8068704746
8068711826
8068720799
8068727085
8068734531
8068741551
8068750217
8068758640
8068767185
8068774204
8068782261
8068789280
8068796787
8068805698
8068814243
8068821262
8068829624
8068837620
8068844639
8068853733
8068862156
8068868625
8068876621
8068885959
8068891880
8068900669
8068907261
8068916843
8068922580
8068934055
8068939060
8068949131
8068957920
8068964572
8068973239
8068978855
8068989292
8068996311
8069006564
8069011325
8069020725
8069027927
8069036289
8069043308
8069052219
8069057773
8069067111
8069073581
8069081271
8069088229
8069098300
8069103305
8069114291
8069123202
8069129306
8069135837
8069145541
8069150485
8069160312
8069165011
8069175082
8069183749
8069191623
8069196383
8069204562
8069211520
8069221591
8069226474
8069237460
8069245333
8069252902
8069259005
8069267245
8069272738
8069281466
8069285922
8069296847
8069305880
8069311801
8069318331
8069327670
8069332858
8069342501
8069351962
8069360323
8069368807
8069376925
8069383150
8069390780
8069397738
8069405550
8069412020
8069419527
8069426363
8069432772
8069439791
8069444796
8069452181
8069459322
8069466097
8069473604
8069479525
8069484774
8069491121
8069498323
8069503511
8069512728
8069517000
8069525606
8069531465
8069535799
8069544466
8069550020
8069557955
8069564241
8069570650
8069577303
8069584383
8069590425
8069595308
8069604280
8069610872
8069617281
8069623567
8069630708
8069636995
8069641634
8069650606
8069656404
8069662569
8069669038
8069673433
8069681001
8069686616
8069693574
8069699068
8069704927
8069711641
8069716279
8069722383
8069729280
8069734651
8069741670
8069746126
8069752595
8069758027
8069763154
8069771028
8069775972
8069782502
8069788789
8069794465
8069800752
8069805818
8069812043
8069818147
8069823640
8069830171
8069834626
8069841279
8069846955
8069852571
8069859040
8069864533
8069871858
8069876435
8069884614
8069889985
8069895356
8069903413
8069907990
8069914704
8069921967
8069928376
8069935578
8069941254
8069948823
8069957001
8069963349
8069969575
8069974763
8069983552
8069989777
8069996491
8070003022
8070009553
8070016816
8070021821
8070029328
8070037140
8070043000
8070050446
8070055146
8070063447
8070068757
8070075837
8070083222
8070090058
8070098114
8070103180
8070109955
8070115082
8070124054
8070131440
8070137787
8070143769
8070150299
8070157257
8070164337
8070170624
8070176911
8070183258
8070190277
8070195282
8070202667
8070209076
8070216583
8070222809
8070229462
8070235809
8070242218
8070248566
8070254486
8070262238
8070267609
8070274872
8070282867
8070289032
8070294464
8070301239
8070308197
8070313873
8070321136
8070328277
8070334503
8070342132
8070347259
8070354706
8070360138
8070367157
8070373199
8070378875
8070386200
8070392181
8070399871
8070405120
8070412445
8070419403
8070425384
8070433319
8070438568
8070447235
8070453155
8070460845
8070465362
8070474029
8070480621
8070486663
8070495025
8070501495
8070508636
8070514129
8070522674
8070526702
8070536346
8070543792
8070550201
8070558501
8070564178
8070571380
8070578155
8070585662
8070593658
8070602447
8070609588
8070616607
8070621306
8070630401
8070637420
8070644195
8070649505
8070660369
8070668914
8070675506
8070683135
8070689360
8070698882
8070703826
8070714385
8070721038
8070728362
8070736296
8070743743
8070749480
8070756682
8070765044
8070773223
8070781401
8070788054
8070795256
8070801665
8070810149
8070818266
8070825163
8070832426
8070838469
8070847014
8070852690
8070861601
8070867949
8070876372
8070883635
8070891814
8070897978
8070904570
8070910551
8070918120
8070923979
8070933256
8070940703
8070947783
8070952177
8070960966
8070969084
8070975309
8070983549
8070991667
8070999418
8071005217
8071014250
8071020170
8071027861
8071035551
8071041166
8071051298
8071059294
8071066862
8071073637
8071081693
8071089262
8071096647
8071103056
8071111234
8071119108
8071126676
8071133024
8071140653
8071148222
8071154447
8071158903
8071171903
8071178251
8071185880
8071193204
8071199186
8071204008
8071215116
8071220365
8071229825
8071238309
8071245939
8071251371
8071259855
8071266385
8071275113
8071279630
8071290616
8071296354
8071306119
8071310941
8071319974
8071326566
8071334561
8071341825
8071350614
8071356229
8071366788
8071371488
8071381009
8071388638
8071396451
8071401578
8071412320
8071417935
8071428555
8071436185
8071444302
8071450101
8071458157
8071468472
8071474820
8071484585
8071493313
8071500760
8071507352
8071516629
8071524991
8071533780
8071539151
8071549588
8071557278
8071564969
8071570340
8071580777
8071585843
8071596218
8071604519
8071612210
8071618374
8071627652
8071633999
8071641751
8071649197
8071657498
8071664089
8071671719
8071678066
8071685513
8071693203
8071701199
8071709622
8071718166
8071726467
8071732937
8071740994
8071749050
8071755276
8071763210
8071769558
8071778164
8071786281
8071793972
8071800503
8071807949
8071813442
8071820888
8071831264
8071837673
8071845241
8071853115
8071861904
8071868374
8071877163
8071881923
8071893154
8071898525
8071909145
8071917690
8071925685
8071933742
8071939662
8071944911
8071956752
8071964687
8071972804
8071980495
8071986659
8071991542
8072001247
8072011073
8072019740
8072027553
8072033962
8072041530
8072049220
8072056361
8072064418
8072071681
8072080287
8072088161
8072096583
8072103419
8072111842
8072119227
8072125819
8072135951
8072141810
8072151393
8072157863
8072166530
8072171351
8072179835
8072186488
8072196925
8072205104
8072212855
8072219813
8072228053
8072234950
8072243556
8072253443
8072262110
8072269618
8072275538
8072284022
8072290125
8072299159
8072305140
8072315272
8072321986
8072330653
8072337183
8072344447
8072351099
8072358851
8072365198
8072375269
8072383387
8072390406
8072396021
8072402979
8072409815
8072415858
8072422144
8072428980
8072435389
8072440333
8072446680
8072451563
8072458948
8072462610
8072472132
8072478968
8072485315
8072490992
8072496057
8072503199
8072510279
8072516626
8072522852
8072529016
8072535059
8072540003
8072547205
8072552393
8072559534
8072566004
8072572168
8072578333
8072582544
8072589075
8072596094
8072604212
8072608057
8072615137
8072621545
8072627588
8072633875
8072640100
8072645837
8072650781
8072658044
8072662805
8072667688
8072674097
8072678491
8072687402
8072692773
8072698327
8072703576
8072709863
8072716333
8072720239
8072729516
8072735559
8072740136
8072746301
8072750818
8072758020
8072765039
8072769494
8072778161
8072784082
8072790612
8072796838
8072802575
8072809655
8072817163
8072823022
8072829736
8072834497
8072842187
8072845971
8072853173
8072861474
8072866052
8072872888
8072879479
8072884973
8072893395
8072899194
8072907128
8072913842
8072920495
8072925744
8072932214
8072940392
8072944421
8072953637
8072959862
8072965844
8072972008
8072977990
8072984460
8072990746
8072996728
8073002221
8073009240
8073014977
8073022423
8073028649
8073034447
8073038537
8073046593
8073054039
8073060082
8073066369
8073070824
8073080223
8073086205
8073093651
8073099083
8073106774
8073113060
8073119469
8073126793
8073133324
8073139611
8073147362
8073153465
8073159691
8073166039
8073171593
8073177757
8073186302
8073191856
8073199730
8073206627
8073212914
8073220787
8073226036
8073234825
8073239647
8073247215
8073252525
8073258934
8073267113
8073273765
8073280968
8073288048
8073294090
8073300865
8073307640
8073315025
8073321129
8073328026
8073333091
8073340233
8073346824
8073353294
8073360313
8073367149
8073374290
8073380638
8073388450
8073394126
8073401146
8073408836
8073414329
8073423545
8073427879
8073435996
8073440086
8073449974
8073458213
8073463706
8073472251
8073476280
8073485008
8073492576
8073499351
8073507041
8073513084
8073520408
8073526878
8073535178
8073543052
8073549766
8073558494
8073566856
8073572715
8073580344
8073587180
8073593101
8073599570
8073607749
8073615378
8073620383
8073628928
8073636374
8073644431
8073651816
8073657798
8073662131
8073673362
8073678122
8073687278
8073695212
8073702414
8073710105
8073715659
8073725974
8073732993
8073739890
8073745810
8073754050
8073760031
8073767050
8073772971
8073782065
8073788901
8073797995
8073802817
8073811667
8073819785
8073825827
8073833578
8073843954
8073848837
8073857931
8073865561
8073871481
8073878012
8073886923
8073894369
8073903036
8073907980
8073918844
8073924215
8073933798
8073938498
8073948385
8073953695
8073964193
8073969687
8073979452
8073988180
8073994345
8074002645
8074008383
8074017294
8074025289
8074031881
8074040060
8074048849
8074055074
8074062460
8074070272
8074078695
8074084860
8074095663
8074102682
8074110128
8074117880
8074127584
8074132833
8074143331
8074148641
8074159139
8074166341
8074174093
8074180929
8074186910
8074194295
8074203573
8074213460
8074219320
8074228231
8074235006
8074242208
8074251607
8074260762
8074268514
8074274068
8074280965
8074290731
8074297383
8074304708
8074311421
8074320516
8074327474
8074335652
8074342305
8074349629
8074358113
8074363606
8074372029
8074382039
8074389546
8074397237
8074403890
8074410786
8074416524
8074426534
8074432332
8074443562
8074450398
8074457295
8074463887
8074472981
8074479573
8074487141
8074493733
8074503255
8074511067
8074518696
8074525227
8074532673
8074539631
8074546650
8074553181
8074563618
8074570698
8074579182
8074585774
8074594929
8074601887
8074608601
8074615620
8074625996
8074633259
8074643269
8074648335
8074657795
8074664875
8074672810
8074677876
8074688862
8074697834
8074705402
8074711994
8074719624
8074724384
8074733662
8074738850
8074749592
8074754597
8074763996
8074772175
8074778095
8074785480
8074794330
8074803364
8074812214
8074820087
8074826801
8074834736
8074842487
8074853717
8074859516
8074870868
8074880573
8074886676
8074894489
8074902790
8074910846
8074918720
8074926532
8074935565
8074943256
8074949970
8074965167
8074972675
8074981891
8074990558
8074999957
8075007709
8075016437
8075023822
8075031329
8075040790
8075048419
8075058002
8075066180
8075075763
8075081317
8075091022
8075096271
8075106219
8075111773
8075122271
8075128192
8075137774
8075145770
8075151629
8075158343
8075165423
8075172686
8075183123
8075189898
8075198748
8075204119
8075213519
8075220050
8075227740
8075234881
8075244280
8075249224
8075259234
8075263873
8075273089
8075277728
8075287493
8075292498
8075302813
8075307879
8075317889
8075322771
8075332720
8075340411
8075347979
8075353106
8075364031
8075370013
8075376665
8075383562
8075389666
8075395037
8075401323
8075408831
8075414202
8075421404
8075424761
8075432329
8075437883
8075444109
8075451555
8075457109
8075464739
8075468645
8075475969
8075481829
8075487261
8075494036
8075500017
8075505693
8075513506
8075519365
8075525591
8075532305
8075539263
8075544939
8075552873
8075556535
8075565386
8075572527
8075578752
8075584428
8075590105
8075597612
8075603716
8075608720
8075615373
8075621049
8075628740
8075634294
8075639421
8075646379
8075650651
8075657487
8075663164
8075669694
8075675981
8075681779
8075687150
8075691606
8075698564
8075705400
8075710771
8075716447
8075720781
8075727800
8075733781
8075739702
8075745439
8075750261
8075757341
8075762712
8075769548
8075774736
8075779130
8075786882
8075793718
8075799089
8075805497
8075811601
8075817826
8075822770
8075831254
8075836747
8075843156
8075849748
8075855607
8075861222
8075869157
8075876542
8075882096
8075889970
8075895951
8075901872
8075907914
8075914872
8075920304
8075927445
8075933182
8075939713
8075946183
8075952103
8075957474
8075965226
8075971146
8075977494
8075983842
8075990800
8075996171
8076001603
8076011307
8076017777
8076023758
8076030594
8076036515
8076041520
8076048783
8076058060
8076064652
8076072525
8076077774
8076084793
8076092057
8076098648
8076105301
8076111893
8076117935
8076123001
8076132645
8076138748
8076145401
8076152970
8076158646
8076165909
8076171402
8076177994
8076184342
8076189896
8076198196
8076202286
8076211014
8076217239
8076223343
8076230850
8076235306
8076244156
8076249832
8076256973
8076262894
8076268936
8076272598
8076281936
8076289383
8076293899
8076302261
8076307998
8076315384
8076323257
8076327835
8076336868
8076340591
8076350296
8076355423
8076361282
8076368179
8076373428
8076380630
8076387954
8076394851
8076400344
8076407302
8076415237
8076421768
8076429580
8076436660
