8544938513
8544943395
8544948583
8544953710
8544959081
8544964452
8544969640
8544974950
8544980138
8544985449
8544990759
8544995519
8545000402
8545005041
8545009924
8545014379
8545019567
8545025365
8545030553
8545034887
8545040014
8545044836
8545050573
8545056493
8545061498
8545067602
8545072851
8545078954
8545083654
8545091344
8545097204
8545104040
8545109899
8545117833
8545124059
8545131261
8545137120
8545143651
8545149266
8545156652
8545162206
8545169347
8545174962
8545181859
8545188573
8545195348
8545201512
8545208470
8545213780
8545219396
8545226293
8545233067
8545237523
8545244420
8545251622
8545258641
8545266942
8545273473
8545279393
8545286351
8545292332
8545300206
8545306309
8545314854
8545321446
8545329137
8545336217
8545344334
8545354222
8545362218
8545369359
8545377598
8545384068
8545391881
8545401524
8545408848
8545416111
8545424351
8545430272
8545438694
8545447728
8545454991
8545463047
8545470311
8545478001
8545486790
8545493809
8545500218
8545510166
8545516514
8545524265
8545530003
8545538242
8545545628
8545552342
8545561131
8545568577
8545575352
8545582737
8545589634
8545596226
8545604710
8545611362
8545619907
8545628025
8545635349
8545642063
8545649692
8545656345
8545665012
8545672642
8545679905
8545687351
8545694065
8545701633
8545709995
8545718357
8545725620
8545732761
8545740512
8545746921
8545753025
8545761814
8545768161
8545776950
8545784946
8545790195
8545798435
8545806980
8545813693
8545822116
8545828891
8545835605
8545843479
8545848911
8545856662
8545866061
8545874728
8545882724
8545888950
8545896762
8545903415
8545911288
8545918124
8545924228
8545932407
8545940158
8545946994
8545956088
8545963229
8545970859
8545979403
8545986300
8545995517
8546000461
8546009189
8546016024
8546022494
8546031588
8546039584
8546047030
8546054049
8546060824
8546068148
8546076876
8546084506
8546092562
8546100741
8546106784
8546115817
8546122164
8546130587
8546136691
8546144442
8546151888
8546159579
8546166781
8546175509
8546182894
8546189974
8546197298
8546204256
8546211581
8546218417
8546227572
8546233919
8546240999
8546250033
8546258944
8546264742
8546272982
8546279757
8546287996
8546294710
8546303866
8546311129
8546319063
8546326876
8546333223
8546342318
8546348787
8546357637
8546363375
8546371920
8546380831
8546386507
8546394258
8546401827
8546408907
8546416536
8546425264
8546431917
8546440157
8546447054
8546456636
8546463777
8546470857
8546479952
8546488191
8546494722
8546501985
8546512117
8546519685
8546526826
8546534273
8546543306
8546552095
8546559785
8546565645
8546575105
8546584321
8546592622
8546601411
8546607271
8546615754
8546622712
8546630525
8546638765
8546647615
8546654023
8546662019
8546670625
8546679353
8546686311
8546695832
8546702912
8546710176
8546718110
8546726533
8546732209
8546741181
8546751008
8546759065
8546765962
8546773896
8546782136
8546790192
8546797150
8546804536
8546813813
8546821809
8546830170
8546838410
8546847199
8546854096
8546862397
8546871613
8546876984
8546885651
8546891511
8546899201
8546905060
8546913605
8546921540
8546928498
8546935822
8546942658
8546949799
8546956513
8546963715
8546971711
8546978974
8546986725
8546993195
8547001068
8547009247
8547016632
8547024689
8547032807
8547040558
8547048676
8547056061
8547063141
8547070892
8547079132
8547087250
8547096161
8547102997
8547112396
8547118622
8547127960
8547138336
8547145599
8547153107
8547160492
8547168365
8547175812
8547183441
8547192718
8547199554
8547205658
8547213226
8547219268
8547227142
8547234649
8547242706
8547248993
8547255218
8547261505
8547271087
8547277069
8547285186
8547291351
8547298919
8547306426
8547311614
8547320220
8547327239
8547339324
8547346404
8547352935
8547361236
8547369537
8547375152
8547384063
8547389800
8547395599
8547403411
8547408172
8547414825
8547423431
8547429351
8547435577
8547442534
8547448150
8547454070
8547461455
8547467254
8547475799
8547481963
8547486846
8547493010
8547500213
8547508513
8547513701
8547520720
8547527312
8547533721
8547540801
8547547454
8547553008
8547560332
8547565581
8547571685
8547578520
8547585356
8547594512
8547599578
8547605681
8547612090
8547616667
8547626006
8547633940
8547640898
8547648528
8547655608
8547662444
8547668913
8547677031
8547685637
8547693388
8547700896
8547708586
8547716338
8547725798
8547732207
8547741423
8547747526
8547753935
8547762114
8547769804
8547776091
8547786589
8547792997
8547801909
8547810392
8547817961
8547822538
8547832487
8547841642
8547850004
8547858122
8547867155
8547873747
8547881681
8547890165
8547897001
8547905912
8547913420
8547917692
8547926054
8547931852
8547939848
8547945829
8547952726
8547961088
8547968046
8547975614
8547982023
8547988615
8547994779
8548001737
8548008512
8548018400
8548024869
8548031339
8548038358
8548041959
8548050748
8548057889
8548064725
8548069181
8548078946
8548084745
8548093900
8548099698
8548108243
8548113553
8548119718
8548128324
8548134793
8548143277
8548150296
8548155790
8548162809
8548169034
8548176175
8548182462
8548189603
8548198941
8548204862
8548211270
8548217069
8548224149
8548231839
8548238431
8548244962
8548252408
8548259427
8548266812
8548272794
8548281461
8548287381
8548294339
8548301358
8548310635
8548319913
8548326016
8548332730
8548339017
8548346585
8548354886
8548360501
8548370877
8548378689
8548385586
8548393033
8548400601
8548406155
8548414090
8548421536
8548427823
8548435086
8548442654
8548449734
8548458401
8548463528
8548470913
8548478665
8548486050
8548494656
8548502468
8548509060
8548517056
8548523464
8548531704
8548538479
8548547878
8548554409
8548561977
8548570156
8548581020
8548587002
8548594265
8548603237
8548610928
8548617092
8548623501
8548631740
8548639736
8548648098
8548652309
8548660549
8548667812
8548675686
8548682827
8548690456
8548697475
8548703823
8548713405
8548720913
8548730129
8548736538
8548745510
8548751735
8548758754
8548765834
8548772792
8548779262
8548786037
8548794460
8548799770
8548807704
8548815517
8548824611
8548831386
8548840297
8548847011
8548855434
8548862087
8548869411
8548875880
8548882289
8548889308
8548896510
8548903896
8548908473
8548918056
8548924831
8548933986
8548939845
8548946803
8548955470
8548960597
8548970118
8548977382
8548986842
8548991847
8549001368
8549008571
8549015773
8549021876
8549029506
8549039149
8549047267
8549055445
8549063441
8549070460
8549078028
8549084925
8549092372
8549101649
8549108058
8549115321
8549122950
8549128809
8549136988
8549142909
8549151148
8549158289
8549165797
8549173304
8549181055
8549188013
8549194971
8549202662
8549209132
8549216578
8549225916
8549233607
8549240687
8549249048
8549256922
8549267481
8549274073
8549283045
8549288660
8549303492
8549310144
8549318750
8549326258
8549334619
8549342066
8549351160
8549359705
8549367700
8549377100
8549385218
8549392969
8549402368
8549408411
8549417139
8549422510
8549431909
8549438806
8549445825
8549452844
8549460230
8549467432
8549474817
8549483118
8549490686
8549497095
8549504175
8549509973
8549516809
8549524560
8549531457
8549538110
8549547510
8549553796
8549560815
8549566247
8549573633
8549580896
8549585656
8549595178
8549602319
8549609704
8549616662
8549625390
8549631982
8549639001
8549645288
8549652795
8549661462
8549669152
8549675073
8549682702
8549691186
8549696862
8549704675
8549710595
8549719872
8549726769
8549736108
8549740624
8549749535
8549756738
8549763390
8549770287
8549777734
8549784875
8549793114
8549800683
8549808190
8549814110
8549821618
8549829674
8549837121
8549843896
8549852746
8549859032
8549865685
8549874413
8549879296
8549888634
8549893273
8549902977
8549911644
8549919518
8549927391
8549932762
8549941491
8549946862
8549955406
8549960289
8549969200
8549977196
8549985497
8549989891
8549997582
8550004662
8550010765
8550015343
8550023155
8550029930
8550034752
8550042442
8550047020
8550053978
8550061058
8550067039
8550073997
8550080284
8550087791
8550095726
8550101952
8550108971
8550116722
8550122093
8550128563
8550136131
8550142357
8550147911
8550152550
8550159080
8550165611
8550172020
8550176719
8550182762
8550188011
8550194969
8550201133
8550207847
8550213829
8550218589
8550224205
8550230674
8550236290
8550240684
8550247215
8550254722
8550259300
8550264488
8550270103
8550274864
8550281761
8550286582
8550293113
8550299034
8550303001
8550308860
8550314475
8550320396
8550327110
8550331748
8550338279
8550342674
8550349693
8550353843
8550360984
8550367759
8550374107
8550377525
8550383628
8550388633
8550395225
8550402061
8550406211
8550413596
8550419883
8550425681
8550431418
8550438132
8550444358
8550451072
8550457358
8550462851
8550469199
8550476584
8550483054
8550489158
8550494590
8550500022
8550506858
8550511252
8550517783
8550524985
8550530905
8550537863
8550543906
8550551291
8550559104
8550569907
8550575827
8550583090
8550589133
8550596640
8550604575
8550612692
8550619040
8550626425
8550632651
8550639670
8550644125
8550651938
8550658774
8550665121
8550672934
8550679770
8550686484
8550693991
8550699972
8550706381
8550714072
8550719321
8550726156
8550736349
8550742209
8550749289
8550755209
8550761191
8550767538
8550775900
8550781576
8550788839
8550795187
8550800070
8550807089
8550813803
8550821005
8550828329
8550834494
8550841635
8550846334
8550853292
8550860067
8550867208
8550874410
8550881124
8550887045
8550894125
8550898641
8550907247
8550913656
8550920187
8550931600
8550944723
8550960775
8550970785
8550981466
8550991293
8551000570
8551010213
8551018209
8551025777
8551032064
8551039876
8551045492
8551052083
8551057210
8551064351
8551072652
8551079366
8551085408
8551091756
8551095784
8551104085
8551112508
8551119100
8551125936
8551132466
8551138448
8551144857
8551152913
8551161458
8551168172
8551176778
8551182393
8551190694
8551196248
8551203694
8551211324
8551218465
8551224812
8551230672
8551237386
8551242268
8551249348
8551258199
8551263875
8551270283
8551276814
8551282979
8551288167
8551295796
8551302022
8551309468
8551315694
8551323018
8551328511
8551336995
8551342183
8551349019
8551356709
8551363728
8551370503
8551375813
8551384114
8551389851
8551398274
8551404988
8551411213
8551417622
8551423481
8551431355
8551438313
8551446247
8551453877
8551459736
8551466023
8551474201
8551484211
8551490315
8551498249
8551504902
8551512592
8551518696
8551526814
8551534931
8551543232
8551551106
8551558552
8551563313
8551571064
8551579853
8551586872
8551594501
8551600910
8551609211
8551616352
8551622516
8551628681
8551637287
8551644062
8551652485
8551660419
8551668476
8551675495
8551681965
8551692035
8551698810
8551706684
8551713947
8551722614
8551729206
8551736591
8551743732
8551752826
8551761127
8551768329
8551776874
8551783100
8551790912
8551804645
8551813007
8551823077
8551827899
8551836383
8551841754
8551850177
8551856891
8551865436
8551871539
8551879230
8551887225
8551894061
8551900714
8551909930
8551918353
8551925921
8551933490
8551940448
8551946429
8551953082
8551960772
8551969195
8551976703
8551985431
8551991351
8551996905
8552006366
8552014544
8552021930
8552029803
8552036578
8552045062
8552051470
8552057696
8552066424
8552074481
8552082781
8552091448
8552098162
8552104937
8552115313
8552124163
8552131731
8552139178
8552146075
8552153277
8552159747
8552167376
8552177142
8552183489
8552191424
8552200945
8552207781
8552214861
8552223833
8552232256
8552243059
8552248919
8552257158
8552262346
8552269610
8552278704
8552287432
8552295366
8552303301
8552313127
8552321123
8552327837
8552336199
8552345232
8552352190
8552360674
8552368364
8552376909
8552384172
8552393816
8552400774
8552407182
8552414995
8552420366
8552429826
8552438127
8552444597
8552453325
8552462236
8552470537
8552478593
8552486345
8552493486
8552502946
8552511980
8552517534
8552523881
8552532243
8552538835
8552547258
8552555742
8552561845
8552568681
8552577165
8552582963
8552590959
8552596818
8552605302
8552613176
8552621843
8552628984
8552638322
8552645341
8552652421
8552658525
8552668717
8552676347
8552683915
8552689958
8552700944
8552706864
8552715287
8552725724
8552734635
8552742204
8552749284
8552758256
8552764115
8552769547
8552777543
8552784745
8552791520
8552799332
8552806168
8552811783
8552817643
8552824113
8552831925
8552837052
8552844010
8552850663
8552858231
8552864457
8552871598
8552877762
8552882523
8552888321
8552895646
8552901932
8552908341
8552914688
8552920670
8552925675
8552932206
8552936661
8552943192
8552949539
8552955948
8552962174
8552969132
8552974564
8552980057
8552986893
8552993363
8552999344
8553003983
8553009964
8553016312
8553023026
8553029923
8553034927
8553042374
8553049088
8553056168
8553061661
8553067825
8553074783
8553082840
8553087356
8553093216
8553097671
8553103775
8553110184
8553116287
8553121353
8553128677
8553132461
8553138321
8553144729
8553155166
8553160904
8553167251
8553173294
8553180984
8553186538
8553192581
8553198257
8553203506
8553210159
8553217605
8553223159
8553229690
8553236160
8553240798
8553246780
8553251907
8553258865
8553266067
8553271316
8553278091
8553284011
8553292251
8553300369
8553307021
8553313979
8553319106
8553325637
8553333389
8553341262
8553347488
8553354201
8553360915
8553366958
8553372207
8553379958
8553387160
8553395095
8553399734
8553406875
8553412856
8553419753
8553427016
8553434524
8553441115
8553447280
8553454787
8553460463
8553468459
8553477065
8553483168
8553489882
8553495803
8553502028
8553509536
8553517043
8553523391
8553529860
8553536452
8553542861
8553547194
8553558303
8553564650
8553571730
8553579238
8553585341
8553594313
8553601820
8553608717
8553614882
8553622633
8553628371
8553635451
8553641554
8553647108
8553654433
8553661818
8553667860
8553674635
8553681227
8553687331
8553694838
8553700941
8553706434
8553714796
8553720717
8553727064
8553735365
8553741102
8553748854
8553755690
8553761671
8553771010
8553776869
8553784193
8553790541
8553797316
8553804884
8553812757
8553819532
8553826368
8553831312
8553838453
8553845045
8553853285
8553860182
8553867933
8553874037
8553879286
8553886854
8553890333
8553899244
8553906263
8553913770
8553918714
8553925733
8553932630
8553939100
8553944898
8553961500
8553970289
8553976575
8553982984
8553990064
8553997755
8554004468
8554012220
8554018690
8554024366
8554029798
8554037916
8554044629
8554051587
8554059034
8554067823
8554074537
8554080579
8554089002
8554095960
8554104444
8554112195
8554119031
8554125684
8554131909
8554140210
8554153028
8554160474
8554168714
8554176526
8554184155
8554190564
8554200391
8554206738
8554215527
8554222180
8554228772
8554235547
8554244397
8554249951
8554257092
8554264355
8554273267
8554280957
8554289563
8554296033
8554303418
8554311291
8554319226
8554328076
8554333752
8554343640
8554350293
8554360058
8554366589
8554374585
8554380566
8554390026
8554396191
8554406384
8554415417
8554420910
8554429638
8554436779
8554443493
8554450329
8554458142
8554466381
8554473522
8554480175
8554486950
8554495007
8554503613
8554511730
8554519299
8554526501
8554534069
8554540295
8554548779
8554557445
8554563122
8554572277
8554579235
8554587292
8554595959
8554603283
8554611828
8554618358
8554625866
8554637523
8554645519
8554653393
8554664257
8554671581
8554680248
8554687450
8554695629
8554702404
8554709972
8554718639
8554727977
8554736217
8554745067
8554752452
8554759105
8554767040
8554776561
8554784679
8554793102
8554798106
8554810497
8554818431
8554826915
8554835521
8554841685
8554851512
8554858531
8554867625
8554873546
8554883739
8554892406
8554898448
8554904613
8554912486
8554920604
8554927318
8554935679
8554943126
8554951182
8554958751
8554966929
8554975596
8554981456
8554990428
8554998301
8555004649
8555012156
8555020152
8555026683
8555035472
8555043467
8555049754
8555059214
8555067088
8555075144
8555080882
8555087229
8555097666
8555105784
8555112254
8555117808
8555126597
8555133250
8555141001
8555150462
8555159556
8555168223
8555172373
8555183176
8555192515
8555198557
8555211497
8555218393
8555227427
8555235422
8555242869
8555252390
8555258005
8555266672
8555274729
8555281137
8555292612
8555300669
8555307993
8555315622
8555324289
8555332285
8555339975
8555348459
8555356638
8555363962
8555370737
8555381113
8555386972
8555396066
8555403879
8555412119
8555419748
8555426523
8555434457
8555442331
8555457651
8555466196
8555474008
8555482309
8555489389
8555497262
8555505075
8555515390
8555522592
8555530954
8555539621
8555548654
8555555917
8555563607
8555570016
8555578317
8555585519
8555593270
8555600839
8555606759
8555612741
8555619760
8555625924
8555632821
8555638681
8555644723
8555652108
8555658822
8555663827
8555672555
8555677255
8555685433
8555691842
8555697884
8555703866
8555709908
8555716622
8555722787
8555729440
8555735421
8555741219
8555747201
8555754586
8555760140
8555766366
8555773873
8555779793
8555785165
8555792794
8555798165
8555805672
8555811226
8555817879
8555824837
8555831368
8555837472
8555843087
8555849312
8555854805
8555859993
8555866768
8555871468
8555878426
8555883065
8555889901
8555894539
8555901436
8555907112
8555913521
8555918221
8555924691
8555931587
8555937325
8555941536
8555948067
8555954659
8555958992
8555965767
8555972481
8555977852
8555983528
8555988960
8555994515
8556001839
8556008003
8556012886
8556017830
8556024788
8556030586
8556037483
8556043465
8556048103
8556055977
8556060493
8556068123
8556073372
8556079353
8556088386
8556095100
8556101387
8556108467
8556114692
8556122261
8556129341
8556135261
8556145332
8556151375
8556157600
8556164314
8556172310
8556179268
8556185798
8556191902
8556196846
8556203315
8556209541
8556215400
8556222419
8556228157
8556234931
8556240730
8556248298
8556252815
8556260688
8556265815
8556273628
8556280769
8556286872
8556292854
8556297981
8556305244
8556311469
8556319038
8556325935
8556332832
8556338874
8556344245
8556350593
8556355842
8556363532
8556369880
8556376899
8556382758
8556388373
8556395881
8556402289
8556409553
8556415900
8556421210
8556427070
8556433783
8556439460
8556447883
8556452887
8556459479
8556466010
8556471259
8556478156
8556484870
8556491400
8556499213
8556505805
8556511481
8556518866
8556525397
8556532904
8556539801
8556545539
8556554144
8556562018
8556568244
8556576788
8556581976
8556588385
8556595465
8556601813
8556609686
8556615302
8556622198
8556630011
8556636725
8556643866
8556651923
8556659308
8556669318
8556677435
8556686041
8556694159
8556702521
8556710272
8556717108
8556724859
8556732428
8556738836
8556746161
8556753058
8556761419
8556767706
8556773870
8556779425
8556785589
8556793035
8556801397
8556809149
8556816046
8556821905
8556829229
8556837835
8556842901
8556851446
8556858831
8556864813
8556871771
8556879766
8556885687
8556893682
8556900823
8556905645
8556913335
8556921819
8556929510
8556935308
8556942083
8556952825
8556958990
8556965398
8556973760
8556980779
8556989568
8556997869
8557005193
8557013128
8557019170
8557026616
8557033819
8557042241
8557050359
8557058355
8557064702
8557071172
8557078679
8557086553
8557093145
8557100591
8557110295
8557116338
8557124517
8557131658
8557139104
8557144963
8557154363
8557160954
8557168523
8557176701
8557181401
8557190862
8557197575
8557205144
8557215215
8557221867
8557231145
8557237798
8557243596
8557255620
8557263615
8557272465
8557278264
8557285710
8557296269
8557304020
8557311467
8557319584
8557330204
8557337956
8557345829
8557353520
8557362065
8557371220
8557377140
8557385563
8557394902
8557401738
8557409672
8557418766
8557424809
8557432011
8557440067
8557447758
8557455021
8557463322
8557470829
8557478947
8557484745
8557493107
8557499455
8557506657
8557515263
8557524540
8557531742
8557538883
8557546024
8557551578
8557560367
8557566288
8557575260
8557583317
8557590092
8557597172
8557604069
8557612674
8557619449
8557627689
8557635013
8557640629
8557651432
8557656986
8557663639
8557672489
8557680606
8557689334
8557695499
8557702091
8557709171
8557718326
8557727237
8557736820
8557744510
8557750003
8557757755
8557765689
8557772952
8557781070
8557790164
8557796451
8557807071
8557814151
8557820010
8557827762
8557837588
8557843936
8557855594
8557865726
8557872867
8557878848
8557891543
8557902163
8557909549
8557918582
8557924441
8557934329
8557941104
8557948550
8557956729
8557967532
8557975833
8557985049
8557995242
8558002810
8558012515
8558020877
8558032961
8558039370
8558046816
8558055239
8558061465
8558072390
8558083254
8558092837
8558100954
8558109927
8558117007
8558125124
8558132265
8558138674
8558144656
8558151125
8558158022
8558164309
8558170962
8558178347
8558185122
8558191286
8558197512
8558204348
8558211123
8558220034
8558226320
8558232790
8558240480
8558246889
8558254458
8558261599
8558268557
8558274782
8558282412
8558289736
8558295961
8558304689
8558312258
8558318178
8558325746
8558334047
8558340578
8558348573
8558355837
8558363649
8558371645
8558378175
8558384096
8558391542
8558396059
8558404970
8558410524
8558417116
8558423647
8558430299
8558435670
8558443300
8558448061
8558454652
8558461305
8558467897
8558472658
8558477601
8558486268
8558493287
8558498048
8558504274
8558510316
8558515382
8558522767
8558528444
8558532899
8558540040
8558547181
8558552064
8558560548
8558567079
8558572389
8558582460
8558588441
8558595460
8558601075
8558607972
8558613648
8558621278
8558627015
8558632875
8558638917
8558643495
8558650636
8558656739
8558661927
8558668702
8558674256
8558678773
8558685792
8558692078
8558698304
8558704102
8558708680
8558715150
8558722657
8558729005
8558734620
8558740296
8558745789
8558750916
8558755311
8558761475
8558767823
8558774293
8558778992
8558785279
8558792176
8558798768
8558804505
8558811158
8558817078
8558823060
8558828553
8558832947
8558840882
8558846924
8558853821
8558858826
8558865967
8558872376
8558879029
8558886170
8558892762
8558898560
8558904541
8558910889
8558916443
8558924866
8558930847
8558937256
8558943360
8558951660
8558958496
8558964600
8558971253
8558979309
8558985535
8558992004
8558999451
8559005249
8559012146
8559020264
8559024536
8559031860
8559038391
8559043335
8559049621
8559055847
8559067016
8559072143
8559079956
8559086853
8559093994
8559101928
8559108398
8559116821
8559123596
8559128112
8559134826
8559141540
8559148986
8559155517
8559161010
8559168151
8559173278
8559181152
8559187866
8559195739
8559202636
8559208740
8559214294
8559221435
8559228515
8559234802
8559242431
8559249328
8559255187
8559260253
8559268066
8559275756
8559281310
8559286437
8559293395
8559299743
8559307555
8559314880
8559321105
8559327392
8559335082
8559339477
8559346007
8559355346
8559362426
8559367553
8559374023
8559380431
8559386474
8559394713
8559402709
8559410094
8559417601
8559424376
8559431212
8559437743
8559446044
8559453063
8559459105
8559466979
8559472899
8559479186
8559486510
8559495360
8559502684
8559510924
8559517150
8559522460
8559530882
8559536864
8559545897
8559552794
8559561583
8559568175
8559574889
8559580992
8559590941
8559599791
8559606444
8559614500
8559620543
8559626952
8559637144
8559644408
8559655699
8559662962
8559670897
8559678831
8559685057
8559693480
8559701964
8559708922
8559716856
8559723936
8559731016
8559736448
8559745054
8559752867
8559759459
8559765806
8559773130
8559779661
8559786802
8559794248
8559801634
8559809080
8559815061
8559822630
8559831053
8559838926
8559847532
8559854063
8559862303
8559868711
8559873472
8559882383
8559888609
8559897215
8559905576
8559910764
8559920713
8559926450
8559934141
8559942075
8559948240
8559958127
8559966306
8559974363
8559979856
8559989133
8559995542
8560003171
8560011411
8560017698
8560024167
8560031675
8560041013
8560050107
8560055722
8560064206
8560072446
8560079770
8560085446
8560094541
8560102658
8560110471
8560119260
8560129270
8560138486
8560147397
8560155454
8560166379
8560174374
8560182858
8560193234
8560201413
8560209164
8560217099
8560225278
8560235287
8560244321
8560250851
8560261044
8560269711
8560274167
8560285275
8560292599
8560302487
8560312619
8560321042
8560329831
8560338742
8560349972
8560357418
8560368527
8560375546
8560390744
8560397824
8560405758
8560414791
8560421139
8560428402
8560438595
8560450070
8560456905
8560463741
8560473446
8560479549
8560489132
8560495541
8560504757
8560512142
8560519222
8560526424
8560535396
8560541988
8560550411
8560557918
8560566280
8560572689
8560582577
8560588985
8560596248
8560605282
8560611812
8560621456
8560626644
8560637203
8560645076
8560652523
8560660396
8560666622
8560673214
8560682247
8560688655
8560696651
8560706661
8560713619
8560721187
8560729488
8560736934
8560743831
8560752193
8560759761
8560767879
8560774593
8560783565
8560790096
8560798152
8560807857
8560813472
8560823238
8560830501
8560837886
8560846980
8560854549
8560861568
8560869990
8560877070
8560885371
8560891658
8560901118
8560907710
8560916987
8560923396
8560932734
8560939387
8560947200
8560957087
8560963069
8560973078
8560982722
8560989436
8560996211
8561005915
8561012934
8561020259
8561028071
8561035334
8561045588
8561053034
8561061274
8561068354
8561075861
8561083064
8561090693
8561097712
8561105708
8561113154
8561121577
8561128535
8561136347
8561143610
8561150080
8561161310
8561170222
8561177729
8561187128
8561194452
8561201594
8561211054
8561218622
8561227533
8561233881
8561243708
8561252680
8561258966
8561265741
8561274591
8561280939
8561288690
8561298029
8561305597
8561312433
8561318048
8561325678
8561330560
8561337579
8561342829
8561349909
8561357050
8561361749
8561367304
8561373773
8561379999
8561384454
8561391412
8561396112
8561404108
8561410272
8561415887
8561422235
8561427850
8561432672
8561439508
8561444940
8561450983
8561457513
8561465082
8561470636
8561477899
8561485895
8561490655
8561498346
8561502984
8561510125
8561514703
8561521722
8561526483
8561535150
8561541864
8561546746
8561554132
8561560052
8561565728
8561571160
8561577935
8561584283
8561589227
8561595086
8561601068
8561605706
8561611871
8561618646
8561624139
8561630853
8561635919
8561642632
8561648004
8561654168
8561658379
8561666985
8561672051
8561677667
8561684014
8561689385
8561695184
8561700433
8561707635
8561713799
8561718499
8561724419
8561731011
8561737115
8561744012
8561749688
8561756158
8561763238
8561769158
8561776604
8561782158
8561789910
8561796685
8561804009
8561811944
8561818779
8561825005
8561831047
8561837639
8561843438
8561851494
8561858818
8561865349
8561871880
8561878838
8561886284
8561892327
8561897148
8561903252
8561910698
8561917229
8561925347
8561931572
8561938774
8561943718
8561951836
8561958122
8561964897
8561972038
8561978325
8561983391
8561989372
8561995720
8562002129
8562009148
8562015434
8562021110
8562029655
8562035026
8562040642
8562048759
8562054130
8562060722
8562067680
8562073112
8562079704
8562086906
8562093376
8562100334
8562107414
8562113334
8562119133
8562125114
8562133171
8562140739
8562146720
8562153495
8562160331
8562167900
8562175102
8562180046
8562186882
8562192741
8562198844
8562206047
8562212516
8562220207
8562226371
8562232658
8562238883
8562245353
8562250114
8562257865
8562264396
8562271415
8562277824
8562283622
8562288505
8562296378
8562303519
8562312186
8562317313
8562327079
8562332755
8562339347
8562348624
8562356193
8562361381
8562368644
8562374991
8562381827
8562387504
8562394217
8562402701
8562408133
8562415763
8562422416
8562428946
8562435355
8562443045
8562448600
8562455313
8562462271
8562466971
8562474295
8562482596
8562489920
8562495474
8562503653
8562510367
8562518973
8562525748
8562531973
8562540091
8562546927
8562554129
8562559500
8562565360
8562574698
8562582022
8562590384
8562596365
8562603812
8562610770
8562616873
8562626517
8562632193
8562640372
8562648672
8562656851
8562664114
8562669058
8562678030
8562686148
8562693533
8562702078
8562707510
8562715384
8562721487
8562730825
8562739920
8562744741
8562753408
8562759939
8562767813
8562775198
8562784231
8562792410
8562798391
8562805166
8562813162
8562819631
8562829946
8562837942
8562843862
8562850820
8562858511
8562864797
8562873769
8562881521
8562890920
8562899343
8562906972
8562914358
8562921194
8562930044
8562938161
8562950735
8562955861
8562965505
8562973256
8562979055
8562986440
8562996328
8563004323
8563009267
8563017751
8563025380
8563031118
8563041921
8563049184
8563056203
8563063283
8563071279
8563077199
8563085439
8563093801
8563099965
8563109670
8563116200
8563122670
8563130666
8563136342
8563144887
8563153432
8563161183
8563167836
8563175221
8563184071
8563190907
8563198354
8563206105
8563212392
8563220143
8563227833
8563233632
8563241688
8563249379
8563257680
8563267750
8563273915
8563281910
8563294728
8563303761
8563313893
8563322071
8563330616
8563335560
8563345265
8563353932
8563364918
8563373402
8563380360
8563388233
8563395191
8563403614
8563411061
8563422352
8563430348
8563438099
8563446156
8563452320
8563458729
8563468250
8563478504
8563485340
8563498463
8563509327
8563519581
8563530689
8563541065
8563549488
8563563709
8563572559
8563583912
8563594776
8563606006
8563614124
8563621936
8563628223
8563634021
8563644886
8563653980
8563662281
8563670398
8563676136
8563685352
8563691883
8563699085
8563706409
8563714404
8563724231
8563730151
8563738269
8563744434
8563752612
8563761585
8563767627
8563777087
8563783252
8563791125
8563798816
8563805774
8563811206
8563817737
8563826221
8563833545
8563839709
8563846484
8563854480
8563860095
8563868213
8563874499
8563880725
8563889697
8563896167
8563901355
8563910022
8563916003
8563927844
8563935046
8563944323
8563950427
8563958911
8563967395
8563973681
8563982958
8563988269
8563996203
8564001940
8564011401
8564017443
8564024523
8564032641
8564038317
8564046435
8564052416
8564059191
8564068774
8564077380
8564081408
8564089587
8564097582
8564103503
8564112109
8564119250
8564128039
8564134814
8564140795
8564150072
8564157152
8564164721
8564172777
8564180590
8564188585
8564196703
8564201159
8564208056
8564213366
8564220446
8564226122
8564232531
8564239244
8564245043
8564250597
8564259386
8564265245
8564272631
8564279833
8564285082
8564291979
8564299181
8564305773
8564313219
8564319261
8564324144
8564331651
8564339098
8564344286
8564353319
8564360155
8564368333
8564376573
8564384203
8564391161
8564397630
8564402696
8564409593
8564415147
8564420885
8564427721
8564432908
8564439378
8564444566
8564451036
8564456224
8564462449
8564466661
8564473008
8564480028
8564484483
8564489732
8564496263
8564503587
8564507798
8564515245
8564520982
8564526475
8564532762
8564538316
8564543138
8564550035
8564556260
8564561204
8564567430
8564572373
8564579331
8564584275
8564590745
8564597093
8564603196
8564608994
8564613328
8564619737
8564625840
8564632005
8564639085
8564644395
8564650254
8564655991
8564661668
8564667832
8564674668
8564682114
8564687669
8564693406
8564699998
8564704941
8564711961
8564718796
8564724839
8564731919
8564737351
8564743516
8564748459
8564755906
8564763413
8564769761
8564774827
8564783371
8564788804
8564795090
8564802109
8564808213
8564815293
8564821457
8564829575
8564835923
8564841782
8564849594
8564855759
8564862900
8564868637
8564876267
8564883591
8564888474
8564897019
8564904038
8564911606
8564918686
8564924179
8564933457
8564938889
8564949204
8564954392
8564962814
8564970688
8564975998
8564984177
8564993088
8564999435
8565004806
8565010971
8565017807
8565023971
8565031296
8565039108
8565044174
8565052536
8565058334
8565065536
8565071335
8565077072
8565084152
8565089767
8565097213
8565103378
8565111068
8565116989
8565123642
8565129440
8565136032
8565143356
8565149337
8565156539
8565163436
8565169967
8565176315
8565181381
8565188278
8565195480
8565202377
8565208907
8565215072
8565219894
8565225936
8565233321
8565240279
8565245162
8565253768
8565258651
8565265853
8565272506
8565278976
8565286239
8565292525
8565299483
8565306014
8565311507
8565317794
8565322677
8565332809
8565336226
8565345870
8565353866
8565362655
8565368880
8565376754
8565382979
8565389144
8565395736
8565403243
8565409163
8565416976
8565423507
8565431563
8565438948
8565447737
8565454573
8565461898
8565468733
8565475386
8565482222
8565488570
8565495406
8565503584
8565510359
8565517073
8565523970
8565531111
8565537703
8565545760
8565551924
8565559798
8565567610
8565572005
8565580061
8565589400
8565595076
8565602705
8565612288
8565619978
8565627058
8565634382
8565644758
8565652144
8565660383
8565669600
8565676558
8565682051
8565689863
8565695295
8565703291
8565708601
8565715559
8565723677
8565731184
8565739485
8565746260
8565751631
8565759016
8565764387
8565772383
8565779707
8565786604
8565793806
8565799421
8565807356
8565813520
8565822126
8565830305
8565836286
8565843855
8565852522
8565860151
8565866315
8565874189
8565881086
8565888166
8565894819
8565904096
8565910749
8565917829
8565925336
8565933088
8565940534
8565947431
8565953046
8565961042
8565968366
8565974103
8565981305
8565989972
8565997602
8566003705
8566010419
8566022138
8566029889
8566036786
8566043500
8566052594
8566058148
8566068280
8566074628
8566082562
8566090619
8566098493
8566106305
8566113751
8566120587
8566130048
8566137799
8566144818
8566151776
8566161115
8566167706
8566175092
8566184552
8566191449
8566197919
8566206464
8566215314
8566223614
8566231305
8566239422
8566247357
8566255597
8566262188
8566270489
8566277020
8566286847
8566293072
8566302960
8566309124
8566316937
8566324078
8566330059
8566339886
8566348492
8566358380
8566366192
8566374737
8566382733
8566390484
8566396221
8566406902
8566420513
8566428997
8566436565
8566443340
8566450970
8566458477
8566464214
8566472332
8566479839
8566485760
8566493023
8566501995
8566510235
8566516216
8566524029
8566532818
8566538860
8566547649
8566553570
8566562420
8566567547
8566574993
8566581463
8566590923
8566598308
8566605754
8566609905
8566618877
8566624797
8566633770
8566639934
8566649639
8566655864
8566665813
8566672161
8566678691
8566687908
8566693584
8566702434
8566707805
8566715556
8566724284
8566732036
8566739177
8566746806
8566754619
8566760417
8566768840
8566776530
8566782939
8566790935
8566796977
8566805827
8566811931
8566820170
8566826945
8566833049
8566843120
8566849223
8566857402
8566864482
8566872905
8566879985
8566888285
8566894816
8566903788
8566912699
8566919780
8566929362
8566935282
8566942729
8566949870
8566958293
8566966838
8566975016
8566982218
8566990397
8566996867
8567005106
8567011576
8567020182
8567027812
8567036540
8567044047
8567052714
8567060343
8567066325
8567074686
8567083903
8567090128
8567096476
8567105936
8567112711
8567122111
8567131388
8567136759
8567145914
8567152994
8567164042
8567169169
8567180460
8567193766
8567202127
8567210184
8567214579
8567224649
8567231302
8567240457
8567246622
8567255838
8567261576
8567270670
8567278665
8567284769
8567293253
8567298441
8567306436
8567313272
8567319132
8567326578
8567333658
8567337747
8567344766
8567350076
8567357889
8567365579
8567371683
8567377786
8567384134
8567390726
8567395608
8567401773
8567408853
8567417703
8567423807
8567429727
8567435892
8567441995
8567449014
8567454934
8567460550
8567467996
8567472940
8567480447
8567485574
8567491433
8567498086
8567504129
8567510720
8567517495
8567522439
8567529580
8567536904
8567543313
8567548074
8567555032
8567561929
8567568582
8567574319
8567579446
8567586221
8567591592
8567596475
8567603982
8567608315
8567614297
8567619729
8567625649
8567631387
8567636575
8567643166
8567650063
8567655129
8567661172
8567672036
8567674844
8567683755
8567690346
8567696816
8567702859
8567708108
8567713235
8567719216
8567724343
8567729470
8567736001
8567742409
8567747109
8567752602
8567758889
8567764443
8567770913
8567778359
8567783669
8567791481
8567797280
8567804604
8567810646
8567818276
8567825356
8567832680
8567838051
8567844704
8567850868
8567855568
8567862038
8567867531
8567874306
8567878700
8567885292
8567891945
8567896645
8567904274
8567911476
8567917336
8567924172
8567929970
8567936379
8567942177
8567947487
8567954689
8567959999
8567967689
8567973366
8567978615
8567984047
8567991188
8567996498
8568003700
8568010170
8568017311
8568023536
8568029701
8568033851
8568040687
8568046242
8568053444
8568060463
8568065345
8568073280
8568077858
8568084755
8568091163
8568097023
8568102211
8568110389
8568117469
8568123817
8568133461
8568140296
8568146522
8568153541
8568159645
8568166419
8568172157
8568178321
8568185890
8568191200
8568196998
8568205665
8568211036
8568217078
8568223792
8568229408
8568234534
8568241004
8568248695
8568254859
8568261146
8568266822
8568273170
8568278846
8568283301
8568290931
8568297462
8568303504
8568310157
8568316077
8568322486
8568328284
8568333961
8568339820
8568346778
8568352820
8568358863
8568366736
8568373511
8568382178
8568388892
8568394080
8568404883
8568411536
8568417701
8568425696
8568431067
8568438941
8568444495
8568452124
8568459571
8568465491
8568472266
8568478064
8568483496
8568489417
8568496314
8568502600
8568509192
8568514380
8568521216
8568526465
8568532141
8568540381
8568547644
8568553564
8568559790
8568565588
8568571081
8568578955
8568584204
8568590674
8568597265
8568605566
8568611487
8568617346
8568625036
8568630896
8568638098
8568643957
8568653479
8568659521
8568666174
8568672033
8568678259
8568685766
8568691809
8568698034
8568705847
8568714392
8568721106
8568727392
8568732458
8568741125
8568746496
8568753332
8568761511
8568768957
8568775183
8568782202
8568788183
8568795019
8568800451
8568808874
8568817663
8568825109
8568831640
8568838903
8568846227
8568853124
8568858495
8568865819
8568871862
8568879369
8568888463
8568893774
8568901891
8568908300
8568914586
8568919835
8568928747
8568936437
8568944921
8568950902
8568957189
8568963598
8568970800
8568978124
8568985631
8568995763
8569004552
8569011327
8569022374
8569028905
8569037633
8569047643
8569055882
8569065221
8569075170
8569082677
8569090062
8569097936
8569105260
8569114537
8569122716
8569129674
8569139500
8569146580
8569155003
8569163609
8569169163
8569177098
8569183079
8569191807
8569197850
8569204381
8569212437
8569218907
8569225377
8569232884
8569239476
8569248204
8569254857
8569262913
8569269383
8569275853
8569282261
8569288182
8569296727
8569304661
8569311558
8569317662
8569327366
8569334141
8569343357
8569350376
8569360142
8569367588
8569374180
8569381199
8569387486
8569394016
8569401096
8569407566
8569416233
8569423801
8569431248
8569437229
8569444736
8569452244
8569459751
8569465733
8569474216
8569480991
8569490757
8569496921
8569503086
8569511936
8569519382
8569526462
8569539341
8569547519
8569555271
8569565097
8569573764
8569580600
8569590610
8569597568
8569606662
8569616306
8569623935
8569632419
8569639438
8569646701
8569653903
8569661472
8569667880
8569675449
8569685336
8569691074
8569699252
8569707187
8569715183
8569722629
8569731174
8569738071
8569745761
8569753879
8569760715
8569768771
8569776157
8569783786
8569790744
8569796359
8569802890
8569812533
8569821567
8569826205
8569834994
8569841159
8569850741
8569857516
8569865023
8569875277
8569882602
8569890658
8569897738
8569906466
8569913363
8569921115
8569929965
8569936740
8569945590
8569951815
8569958102
8569965426
8569971774
8569977877
8569986666
8569994601
8570001376
8570006381
8570013583
8570020174
8570027132
8570034090
8570041293
8570049471
8570057101
8570064120
8570073702
8570080599
8570089754
8570097079
8570104769
8570114229
8570121309
8570127779
8570135470
8570143465
8570148958
8570154879
8570164400
8570170992
8570179537
8570185823
8570194612
8570200655
8570207125
8570215853
8570220919
8570231050
8570239534
8570246919
8570251924
8570259554
8570266695
8570274263
8570281893
8570289400
8570296236
8570304292
8570311067
8570319978
8570327791
8570332552
8570344881
8570350191
8570357881
8570364961
8570372530
8570378755
8570383272
8570389131
8570393526
8570400484
8570407442
8570413179
8570419832
8570425630
8570431611
8570437288
8570442720
8570448457
8570454927
8570462495
8570468354
8570475190
8570480073
8570486787
8570493257
8570499787
8570505403
8570512239
8570517732
8570522737
8570528230
8570533906
8570539399
8570548371
8570554109
8570560945
8570566194
8570572358
8570579072
8570585236
8570592011
8570598298
8570603242
8570611726
8570617646
8570623505
8570629853
8570635102
8570641877
8570648164
8570654633
8570658723
8570665925
8570670258
8570676667
8570682099
8570688569
8570694184
8570698884
8570705231
8570711579
8570716767
8570723054
8570729584
8570735688
8570741608
8570745820
8570751801
8570758149
8570762726
8570770050
8570776520
8570781952
8570788056
8570793305
8570798920
8570804230
8570810822
8570817536
8570822480
8570828705
8570833771
8570839936
8570845612
8570851410
8570858551
8570863068
8570869721
8570874176
8570881012
8570887177
8570893036
8570898651
8570906097
8570911530
8570918427
8570925751
8570930206
8570938812
8570944977
8570950836
8570957672
8570963348
8570968414
8570975677
8570980194
8570987396
8570993683
8571000702
8571006195
8571011566
8571018707
8571024078
8571029083
8571037445
8571043670
8571050689
8571055023
8571061737
8571067169
8571073883
8571078216
8571085540
8571093414
8571098907
8571105621
8571112030
8571117950
8571125335
8571131378
8571136566
8571145416
8571153167
8571159881
8571165496
8571173858
8571179595
8571187774
8571195464
8571201202
8571207305
8571214019
8571218536
8571225249
8571230743
8571236114
8571243804
8571250457
8571256255
8571260894
8571266509
8571273223
8571279388
8571286223
8571294158
8571299407
8571305205
8571311675
8571317351
8571323821
8571329558
8571335357
8571341094
8571348296
8571355864
8571361968
8571368987
8571375457
8571383330
8571389251
8571395415
8571401335
8571409209
8571415068
8571420195
8571427581
8571433745
8571441069
8571446807
8571453642
8571459075
8571466338
8571472136
8571478117
8571484770
8571492461
8571498686
8571504424
8571511198
8571518645
8571524382
8571530058
8571537627
8571545622
8571551298
8571558623
8571564543
8571570219
8571576750
8571584685
8571590117
8571598723
8571604216
8571612272
8571618010
8571626005
8571632475
8571638823
8571646452
8571655058
8571661345
8571667753
8571673307
8571681913
8571687040
8571695646
8571702299
8571709623
8571718473
8571725492
8571734098
8571740934
8571749418
8571756803
8571765409
8571774931
8571782072
8571789945
8571795316
8571805143
8571813200
8571822538
8571834562
8571843656
8571853300
8571860990
8571870878
8571876920
8571886930
8571893705
8571902921
8571916105
8571927640
8571933805
8571945768
8571954252
8571961759
8571966459
8571975736
8571983915
8571989103
8571994535
8572003385
8572011869
8572019254
8572024991
8572031888
8572042203
8572049039
8572055387
8572061917
8572070889
8572078275
8572086697
8572094510
8572100491
8572105985
8572114285
8572120450
8572128567
8572137845
8572145413
8572150906
8572156827
8572164151
8572172330
8572179410
8572187283
8572193814
8572201199
8572206814
8572214749
8572220608
8572228421
8572237088
8572244046
8572249783
8572259793
8572269436
8572278103
8572285122
8572292263
8572299954
8572307339
8572314968
8572322109
8572331021
8572338589
8572344326
8572354946
8572361416
8572367703
8572377285
8572386501
8572394009
8572402248
8572409145
8572417324
8572423428
8572431057
8572442104
8572449184
8572456936
8572464992
8572472378
8572481838
8572489040
8572498562
8572506557
8572515285
8572522304
8572530056
8572537868
8572543483
8572553615
8572561550
8572568264
8572571865
8572582302
8572588588
8572596950
8572604885
8572613918
8572620021
8572627590
8572635829
8572642848
8572648219
8572657924
8572665126
8572672572
8572680324
8572685634
8572694789
8572704311
8572712184
8572719753
8572726344
8572734401
8572740688
8572749599
8572758021
8572767299
8572774440
8572783107
8572791041
8572799525
8572805873
8572815211
8572822413
8572831508
8572837794
8572846217
8572854030
8572859889
8572869593
8572876002
8572884364
8572891505
8572899501
8572907557
8572913783
8572924830
8572931117
8572938746
8572947901
8572954005
8572962977
8572969447
8572978297
8572988368
8572995264
8573003138
8573011134
8573019068
8573024866
8573034632
8573042322
8573051295
8573057886
8573065516
8573072413
8573077906
8573087977
8573094141
8573102808
8573110621
8573116480
8573123255
8573132166
8573141077
8573146753
8573159327
8573170435
8573180445
8573192835
8573201624
8573207605
8573217676
8573225000
8573231897
8573237390
8573245081
8573253870
8573259485
8573267481
8573272791
8573279443
8573286951
8573292810
8573298853
8573304407
8573311304
8573316125
8573320337
8573327783
8573333520
8573339319
8573345788
8573351282
8573357690
8573363183
8573368005
8573375696
8573382226
8573389184
8573394067
8573400232
8573407007
8573413415
8573418054
8573424646
8573430383
8573436792
8573442224
8573447168
8573454065
8573460290
8573465051
8573472192
8573476648
8573482568
8573488916
8573494104
8573499902
8573505761
8573512536
8573515832
8573522302
8573529443
8573536706
8573542993
8573547021
8573554040
8573559411
8573564965
8573572350
8573576562
8573582604
8573588525
8573594323
8573599999
8573606408
8573618615
8573623009
8573628625
8573634911
8573641991
8573648278
8573654442
8573657921
8573664330
8573671410
8573678918
8573685876
8573692162
8573698510
8573709313
8573715905
8573722863
8573729943
8573736351
8573743065
8573749718
8573755700
8573760338
8573767601
8573774559
8573779808
8573787011
8573792992
8573799889
8573807213
8573814110
8573821556
8573828148
8573833580
8573840477
8573847191
8573853783
8573860558
8573868187
8573874901
8573881737
8573887535
8573894737
8573901573
8573908226
8573914268
8573921898
8573926842
8573934776
8573942284
8573948204
8573955284
8573963280
8573969749
8573975181
8573981773
8573989769
8573994835
8574001243
8574008445
8574016502
8574024009
8574029747
8574035911
8574042442
8574050010
8574054832
8574062034
8574068748
8574075035
8574082420
8574089195
8574095909
8574103904
8574110740
8574117332
8574122703
8574130882
8574135826
8574142784
8574150535
8574157554
8574163535
8574170677
8574177207
8574185203
8574192222
8574199729
8574207481
8574215415
8574221458
8574230552
8574239829
8574247825
8574254783
8574261802
8574268821
8574274863
8574282981
8574289390
8574295676
8574301413
8574308249
8574315085
8574322226
8574329490
8574336509
8574342246
8574348288
8574355857
8574363547
8574370139
8574378257
8574383872
8574390464
8574398093
8574403952
8574413657
8574421164
8574427817
8574434775
8574441306
8574449179
8574455100
8574465964
8574473044
8574480490
8574488364
8574495261
8574503867
8574512228
8574520773
8574526572
8574534750
8574543845
8574551474
8574559653
8574565939
8574575278
8574582602
8574591391
8574597433
8574605856
8574612204
8574623312
8574630636
8574638327
8574645956
8574654867
8574661947
8574671286
8574679525
8574686605
8574695333
8574700888
8574709066
8574714743
8574723532
8574729757
8574739767
8574747579
8574755819
8574763387
8574771139
8574779440
8574787313
8574794149
8574801046
8574809652
8574818685
8574824667
8574833395
8574842489
8574848958
8574859579
8574865804
8574877950
8574885518
8574895101
8574900289
8574909871
8574917135
8574927633
8574936361
8574943319
8574949361
8574954732
8574962545
8574969197
8574975118
8574981954
8574990682
8574998555
8575004293
8575012776
8575019490
8575025228
8575036519
8575043721
8575051839
8575056966
8575065389
8575071065
8575080891
8575089131
8575098286
8575103902
8575111104
8575116902
8575126973
8575133321
8575142354
8575148640
8575155842
8575162984
8575170308
8575176900
8575186238
8575194050
8575201130
8575208882
8575215718
8575224385
8575230488
8575236226
8575244221
8575253682
8575261494
8575269245
8575276753
8575287129
8575296894
8575304158
8575312153
8575319355
8575327717
8575334980
8575341816
8575349201
8575358967
8575368122
8575375202
8575382343
8575390583
8575397297
8575404865
8575414936
8575421894
8575429951
8575437092
8575444294
8575451740
8575461201
8575469623
8575476887
8575485065
8575492389
8575500995
8575506977
8575519123
8575530719
8575538593
8575547138
8575554828
8575563739
8575573078
8575582660
8575588703
8575598712
8575606769
8575613117
8575619831
8575627338
8575635822
8575643695
8575650592
8575658038
8575665607
8575674213
8575680621
8575688007
8575697101
8575703387
8575711444
8575717853
8575726153
8575734820
8575741412
8575748309
8575756244
8575764422
8575770587
8575780536
8575788104
8575797503
8575804156
8575811480
8575820208
8575827227
8575833331
8575843341
8575851153
8575857562
8575864154
8575872454
8575880267
8575886065
8575896868
8575902850
8575910967
8575933306
8575940142
8575950518
8575958880
8575966631
8575974688
8575982867
8575988482
8575995928
8576006060
8576019427
8576028094
8576035357
8576039751
8576048601
8576055071
8576064226
8576068926
8576076311
8576083147
8576089434
8576094622
8576100664
8576105425
8576114397
8576119402
8576126970
8576132525
8576139421
8576146074
8576154375
8576158525
8576164446
8576171221
8576178545
8576189470
8576194841
8576202776
8576209123
8576213518
8576223223
8576230669
8576238176
8576243181
8576249407
8576254350
8576260576
8576266313
8576272478
8576278459
8576284258
8576289262
8576295061
8576299821
8576305986
8576313432
8576319902
8576325639
8576330766
8576337236
8576343645
8576352251
8576358476
8576364091
8576368608
8576373857
8576380266
8576385454
8576391374
8576397722
8576403642
8576409684
8576414750
8576420915
8576426469
8576432695
8576437333
8576442888
8576448503
8576454728
8576460221
8576467607
8576474687
8576479264
8576485246
8576490800
8576496965
8576504106
8576509843
8576515031
8576521745
8576527665
8576533708
8576541032
8576547074
8576555314
8576561540
8576568131
8576575333
8576582352
8576588334
8576594010
8576601029
8576607011
8576613663
8576620560
8576629105
8576635392
8576640397
8576648514
8576653763
8576660172
8576668412
8576678971
8576684403
8576691483
8576699479
8576705948
8576714005
8576722611
8576729691
8576737259
8576742020
8576749405
8576756546
8576763016
8576770035
8576776993
8576783402
8576788590
8576796524
8576803177
8576810135
8576815689
8576822464
8576832596
8576841751
8576847855
8576855972
8576861099
8576867081
8576874222
8576881607
8576888077
8576896561
8576904678
8576911819
8576918777
8576925918
8576931839
8576937393
8576945511
8576952286
8576958816
8576966690
8576974502
8576980911
8576986892
8576994217
8577000869
8577005508
8577014663
8577021316
8577029373
8577154922
8577165847
8577175369
8577188125
8577195815
8577204116
8577212966
8577219619
8577229568
8577237197
8577245254
8577253127
8577261123
8577268142
8577274489
8577281997
8577292006
8577299819
8577306228
8577314162
8577321914
8577328200
8577336928
8577344191
8577351943
8577360427
8577369033
8577377516
8577386672
8577393080
8577403273
8577411391
8577419631
8577427931
8577435561
8577442641
8577447157
8577456252
8577463271
8577470778
8577478590
8577485732
8577491957
8577499342
8577505385
8577513502
8577519728
8577528822
8577535841
8577543898
8577551405
8577557997
8577563734
8577571242
8577579298
8577586805
8577594069
8577601393
8577609449
8577616713
8577622755
8577629713
8577636854
8577646803
8577651564
8577661085
8577669386
8577676832
8577684889
8577693434
8577701979
8577711317
8577722303
8577729139
8577738355
8577746168
8577754713
8577763624
8577772840
8577780653
8577788526
8577796522
8577804822
8577812147
8577819776
8577830823
8577838392
8577847486
8577857435
8577865613
8577871839
8577880628
8577889844
8577898389
8577906141
8577915601
8577924512
8577932752
8577941663
8577950147
8577959302
8577967298
8577975965
8577982007
8577991101
8577999707
8578006299
8578014112
8578021131
8578030164
8578037366
8578044629
8578051526
8578058850
8578065625
8578073010
8578079907
8578087109
8578093579
8578102917
8578110181
8578118848
8578125683
8578132886
8578141308
8578149914
8578158276
8578165967
8578173779
8578179883
8578187695
8578195508
8578203320
8578211255
8578218823
8578226941
8578234204
8578240185
8578248181
8578257763
8578265820
8578272473
8578280957
8578288647
8578296887
8578305737
8578310803
8578320812
8578327770
8578337231
8578343639
8578353283
8578358349
8578366528
8578376110
8578385509
8578393078
8578401134
8578409313
8578415478
8578424816
8578429943
8578439709
8578446361
8578456005
8578464306
8578471569
8578479564
8578487072
8578494274
8578502636
8578509533
8578517711
8578524608
8578534496
8578541149
8578549144
8578558788
8578566173
8578573741
8578581737
8578589183
8578596507
8578606761
8578612255
8578620677
8578628734
8578636791
8578643443
8578650035
8578659862
8578667857
8578677440
8578682567
8578692393
8578700572
8578706615
8578714122
8578723338
8578733043
8578739635
8578747996
8578757579
8578764720
8578773082
8578781382
8578790049
8578797801
8578806102
8578814036
8578821605
8578827525
8578834971
8578841075
8578849192
8578857493
8578866038
8578871836
8578880381
8578886424
8578894053
8578900523
8578906565
8578915232
8578921641
8578927439
8578933604
8578941416
8578946787
8578953867
8578959666
8578966563
8578972300
8578979197
8578983652
8578990672
8578996592
8579003489
8579008189
8579015391
8579020396
8579027415
8579033640
8579040415
8579045969
8579051523
8579057322
8579064341
8579072336
8579078562
8579083506
8579090708
8579097117
8579101816
8579109018
8579117197
8579123178
8579129282
8579135263
8579140696
8579146860
8579153635
8579159677
8579166086
8579173349
8579180002
8579186411
8579192331
8579196848
8579203989
8579210275
8579215585
8579221323
8579227121
8579232431
8579239267
8579243540
8579250498
8579256296
8579262460
8579268076
8579274423
8579279367
8579285898
8579290842
8579297800
8579304636
8579310129
8579315866
8579321786
8579326974
8579332834
8579338571
8579345041
8579351144
8579356698
8579365243
8579371286
8579377755
8579384042
8579390939
8579397653
8579404550
8579410959
8579420663
8579427621
8579433297
8579439035
8579444345
8579450021
8579457162
8579463632
8579468759
8579474008
8579482858
8579488229
8579495553
8579503732
8579508676
8579515878
8579522469
8579528634
8579533517
8579542123
8579547921
8579554147
8579561105
8579567391
8579572213
8579579354
8579586739
8579592843
8579602608
8579609200
8579616036
8579622323
8579628121
8579634286
8579641610
8579649239
8579656319
8579663888
8579668953
8579676156
8579681527
8579688790
8579694649
8579701729
8579709053
8579713936
8579719613
8579726754
8579734078
8579740792
8579747017
8579751900
8579758919
8579766304
8579772652
8579777596
8579784615
8579791878
8579798104
8579805733
8579812020
8579818245
8579824349
8579829537
8579836739
8579843575
8579850716
8579856026
8579862984
8579869270
8579874153
8579882942
8579889351
8579896980
8579902656
8579908699
8579914741
8579922005
8579928535
8579934212
8579941170
8579948189
8579955147
8579961494
8579967354
8579974006
8579980476
8579987617
8579995369
8580002571
8580009773
8580015022
8580022651
8580028633
8580037910
8580047615
8580054023
8580060249
8580065986
8580073799
8580079475
8580085823
8580092170
8580100105
8580105842
8580113777
8580118965
8580125251
8580132697
8580140571
8580147529
8580153083
8580159370
8580166511
8580172248
8580178291
8580185615
8580194099
8580202644
8580208198
8580215705
8580223151
8580230170
8580237556
8580244391
8580249763
8580256049
8580264106
8580270453
8580276618
8580283149
8580291266
8580298591
8580304816
8580311408
8580319159
8580324836
8580332953
8580339057
8580347113
8580353217
8580362189
8580368964
8580377631
8580382331
8580391730
8580399420
8580406195
8580414008
8580420844
8580429327
8580435736
8580441596
8580453619
8580458502
8580467963
8580474921
8580482550
8580491095
8580498602
8580506110
8580513861
8580520209
8580527594
8580535528
8580542853
8580549078
8580559820
8580566900
8580574408
8580580755
8580588141
8580596014
8580603521
8580609869
8580617315
8580626104
8580630804
8580639593
8580645452
8580654303
8580661322
8580670233
8580678106
8580683904
8580690557
8580699652
8580708318
8580715154
8580722540
8580730413
8580743963
8580752691
8580758978
8580765936
8580775823
8580781560
8580789861
8580798894
8580805669
8580812871
8580819707
8580825933
8580833623
8580839666
8580848455
8580854558
8580861455
8580870122
8580875432
8580884099
8580891423
8580898137
