8124156936
8124165054
8124171706
8124179031
8124185683
8124192214
8124199660
8124206863
8124213943
8124220962
8124228835
8124235976
8124243728
8124250747
8124258803
8124264602
8124273025
8124281325
8124291518
8124299209
8124307448
8124315627
8124323806
8124330703
8124339736
8124349623
8124356704
8124367385
8124375258
8124385146
8124393996
8124404006
8124411635
8124420729
8124431960
8124438735
8124450209
8124457777
8124468337
8124476515
8124486464
8124494398
8124507216
8124515822
8124525465
8124534315
8124543532
8124554274
8124562025
8124572035
8124580885
8124591261
8124601881
8124611036
8124619947
8124628737
8124639723
8124650160
8124660841
8124670118
8124677259
8124690443
8124697035
8124710584
8124722303
8124729200
8124741285
8124749647
8124760511
8124767957
8124779493
8124788587
8124798719
8124809766
8124819044
8124828016
8124836378
8124847730
8124860425
8124870496
8124879957
8124890088
8124900098
8124910779
8124920301
8124929761
8124941419
8124951612
8124960767
8124970533
8124982373
8124992566
8125004529
8125013928
8125025159
8125034863
8125046582
8125055310
8125069226
8125077100
8125090039
8125098523
8125109936
8125117566
8125129956
8125139477
8125152661
8125162243
8125171948
8125184033
8125192700
8125203930
8125216137
8125227551
8125237622
8125247570
8125257458
8125266491
8125278576
8125288586
8125300122
8125311413
8125322155
8125334118
8125343090
8125352612
8125364391
8125373058
8125384472
8125396252
8125405773
8125413525
8125421825
8125428356
8125437145
8125449413
8125457714
8125464489
8125474621
8125482555
8125490368
8125497265
8125506359
8125513500
8125520092
8125527965
8125534557
8125542919
8125549144
8125555187
8125569652
8125578258
8125588573
8125600170
8125610423
8125621044
8125627147
8125638622
8125646007
8125654125
8125662303
8125670848
8125678539
8125689464
8125699290
8125706309
8125715953
8125721690
8125731456
8125741832
8125749522
8125755321
8125764842
8125772716
8125781505
8125787547
8125796580
8125805186
8125814952
8125822764
8125830943
8125837168
8125843760
8125852305
8125859874
8125868235
8125875865
8125881602
8125891246
8125899668
8125906687
8125913828
8125923838
8125933177
8125940074
8125950694
8125958872
8125966319
8125972910
8125980784
8125989085
8125996836
8126002085
8126012278
8126019907
8126028513
8126035715
8126042551
8126052256
8126059153
8126067454
8126076243
8126082773
8126091990
8126100290
8126108347
8126116159
8126124460
8126135019
8126143259
8126149668
8126160654
8126167124
8126175547
8126186350
8126196665
8126203684
8126213022
8126221445
8126230173
8126235666
8126244455
8126252756
8126259958
8126268808
8126276010
8126282419
8126289255
8126296457
8126303293
8126310495
8126319528
8126327585
8126335336
8126344491
8126351083
8126360116
8126366464
8126376047
8126384286
8126391122
8126399667
8126405343
8126412362
8126419931
8126426889
8126434823
8126442514
8126449044
8126456674
8126465219
8126472604
8126481454
8126488473
8126497689
8126505868
8126512765
8126519967
8126526864
8126532845
8126541207
8126551644
8126560555
8126568002
8126576608
8126582040
8126591500
8126601693
8126609200
8126620797
8126628670
8126636483
8126644112
8126652413
8126659493
8126666939
8126675850
8126685738
8126695809
8126705391
8126711983
8126720101
8126728951
8126738167
8126748543
8126757332
8126767342
8126774666
8126786080
8126797493
8126808907
8126820076
8126832222
8126843025
8126853951
8126863472
8126871529
8126880867
8126893013
8126900154
8126909676
8126918953
8126929695
8126938972
8126948311
8126961494
8126971321
8126981331
8126990303
8127001899
8127011482
8127020759
8127033760
8127044319
8127054634
8127064460
8127074775
8127084846
8127094673
8127104499
8127116767
8127125007
8127136360
8127146003
8127155219
8127166145
8127174445
8127185798
8127198615
8127208442
8127215217
8127220466
8127228278
8127234687
8127241645
8127247748
8127253180
8127258857
8127266303
8127274360
8127280707
8127287604
8127293769
8127299140
8127305793
8127313300
8127319220
8127326361
8127332038
8127338263
8127345649
8127351386
8127356635
8127363532
8127370551
8127376898
8127381354
8127388434
8127393622
8127400275
8127407172
8127415473
8127422125
8127427008
8127434027
8127440253
8127445990
8127453742
8127461188
8127470526
8127476263
8127483282
8127490424
8127496649
8127501898
8127510321
8127516547
8127522162
8127527472
8127535101
8127540838
8127548590
8127554815
8127560858
8127567877
8127573065
8127580206
8127585577
8127594976
8127601019
8127607245
8127614813
8127620977
8127626104
8127633001
8127638067
8127644537
8127651007
8127657720
8127664556
8127671575
8127677069
8127683966
8127692694
8127699407
8127705084
8127711126
8127716985
8127724493
8127729803
8127735967
8127743536
8127750433
8127756719
8127762823
8127767400
8127775884
8127781255
8127788580
8127794683
8127801885
8127807867
8127813299
8127819402
8127828069
8127836736
8127842595
8127850103
8127857122
8127863592
8127868780
8127874578
8127881292
8127892583
8127898809
8127905584
8127911321
8127919927
8127927861
8127934453
8127941838
8127949834
8127956914
8127962773
8127969426
8127975591
8127983464
8127989507
8127995671
8128004033
8128011662
8128019597
8128026738
8128033452
8128040288
8128043889
8128053777
8128060857
8128068974
8128074834
8128081975
8128088994
8128095219
8128104802
8128114751
8128121403
8128127690
8128137456
8128146062
8128151921
8128161748
8128169560
8128177250
8128184086
8128190007
8128197941
8128204838
8128211613
8128218144
8128227177
8128234074
8128242436
8128250920
8128256840
8128265507
8128271427
8128281132
8128289005
8128296696
8128303593
8128312077
8128318607
8128326847
8128333561
8128343937
8128352116
8128359562
8128366886
8128375370
8128382572
8128389957
8128398624
8128407047
8128413578
8128421879
8128430363
8128437321
8128446964
8128455631
8128463688
8128470768
8128480045
8128486942
8128495609
8128502689
8128509769
8128517643
8128524967
8128530948
8128540042
8128547367
8128553958
8128560428
8128568180
8128576175
8128585147
8128592044
8128597721
8128606693
8128612552
8128622073
8128631778
8128640323
8128648868
8128656863
8128664371
8128671878
8128679324
8128686343
8128693973
8128701968
8128709659
8128719424
8128726382
8128735538
8128742618
8128752749
8128759097
8128767825
8128776248
8128781070
8128790652
8128796634
8128803775
8128809939
8128820437
8128828494
8128836062
8128839968
8128850100
8128854129
8128865664
8128873355
8128883731
8128892275
8128900027
8128909060
8128917300
8128924563
8128934023
8128944216
8128950625
8128958010
8128967593
8128972842
8128981997
8128990969
8128997683
8129004214
8129013247
8129020632
8129026736
8129033632
8129042238
8129050051
8129056582
8129065554
8129072329
8129080935
8129089052
8129094729
8129100527
8129110720
8129115175
8129127321
8129131838
8129141298
8129149233
8129156496
8129160707
8129169985
8129176699
8129186464
8129194826
8129202333
8129208193
8129215456
8129223573
8129231203
8129238222
8129246095
8129254701
8129262086
8129268495
8129275819
8129282960
8129290590
8129298097
8129305910
8129314638
8129322633
8129329835
8129337770
8129344606
8129351930
8129356508
8129367616
8129373781
8129381349
8129388978
8129396547
8129400880
8129410951
8129419984
8129428224
8129435182
8129443299
8129450929
8129458619
8129466126
8129472230
8129481141
8129489015
8129497376
8129502870
8129511170
8129518678
8129525086
8129532716
8129539430
8129549073
8129555482
8129564332
8129570679
8129578919
8129584779
8129591492
8129600526
8129609925
8129618226
8129626404
8129630677
8129640870
8129649109
8129655091
8129662110
8129673218
8129680909
8129686402
8129695191
8129703064
8129708985
8129716919
8129726746
8129734253
8129742127
8129749146
8129755615
8129762512
8129767700
8129775574
8129781983
8129787842
8129794251
8129801514
8129806397
8129813355
8129818726
8129825379
8129832092
8129837524
8129845825
8129850647
8129858215
8129863586
8129870361
8129876465
8129883606
8129889587
8129893921
8129901062
8129905823
8129914490
8129921570
8129927612
8129933044
8129939514
8129946411
8129951599
8129958923
8129965698
8129972839
8129979187
8129984924
8129990600
8129996643
8130003112
8130010254
8130016296
8130020202
8130025940
8130032287
8130036376
8130044067
8130049499
8130055358
8130061584
8130067077
8130072631
8130077087
8130083618
8130089355
8130096130
8130101684
8130107726
8130113281
8130118163
8130124877
8130131713
8130138000
8130142883
8130148437
8130154540
8130159606
8130166747
8130173095
8130178954
8130186278
8130191283
8130197875
8130203796
8130208617
8130216247
8130223632
8130229918
8130234618
8130241149
8130247741
8130252074
8130260070
8130266173
8130273009
8130279113
8130285399
8130291076
8130295836
8130305358
8130311217
8130317199
8130323912
8130329650
8130336791
8130341979
8130349120
8130354857
8130362792
8130368956
8130374694
8130379759
8130386534
8130394469
8130400572
8130407897
8130413390
8130419127
8130425658
8130431090
8130436339
8130444273
8130449461
8130455626
8130462340
8130468504
8130474913
8130480833
8130487913
8130493834
8130500059
8130507445
8130514891
8130522093
8130529051
8130536375
8130543455
8130550657
8130557371
8130563475
8130569151
8130576780
8130582701
8130591368
8130597471
8130604185
8130610289
8130616392
8130623289
8130629820
8130635984
8130642210
8130649839
8130657591
8130662351
8130671690
8130677488
8130685484
8130692259
8130697691
8130703794
8130710874
8130719419
8130725645
8130733335
8130739561
8130744688
8130750730
8130757200
8130764768
8130769956
8130778135
8130782346
8130791868
8130797849
8130805356
8130811887
8130820066
8130826230
8130832456
8130839780
8130844846
8130852048
8130858213
8130864805
8130872617
8130876096
8130885190
8130892026
8130896970
8130903257
8130910642
8130916928
8130924070
8130929746
8130935666
8130943723
8130948911
8130957334
8130967404
8130974057
8130980466
8130987546
8130995175
8131001645
8131010190
8131016721
8131024838
8131033139
8131038510
8131046750
8131052609
8131060422
8131068051
8131075314
8131081662
8131088864
8131093869
8131101864
8131106259
8131113949
8131120480
8131129330
8131135739
8131142880
8131149716
8131155819
8131163205
8131169003
8131178219
8131184628
8131191281
8131198178
8131205258
8131212582
8131219662
8131224789
8131235531
8131244442
8131252133
8131259701
8131267025
8131273556
8131280514
8131288448
8131296383
8131304134
8131310360
8131316891
8131325253
8131333187
8131341671
8131348385
8131355587
8131364132
8131370541
8131376827
8131384029
8131392086
8131401668
8131407406
8131414974
8131423092
8131430538
8131437679
8131445308
8131450130
8131464107
8131470638
8131477840
8131484005
8131491695
8131499752
8131509029
8131517086
8131525692
8131532894
8131541255
8131546810
8131557186
8131564754
8131574275
8131586727
8131592037
8131601680
8131608333
8131615657
8131621578
8131629268
8131636836
8131644466
8131652644
8131660152
8131665950
8131674251
8131681819
8131689693
8131696712
8131706599
8131713191
8131720515
8131727290
8131735347
8131742305
8131749751
8131754146
8131766108
8131774714
8131782710
8131790828
8131798945
8131805842
8131811396
8131817683
8131826350
8131835505
8131841059
8131847529
8131856379
8131862544
8131871089
8131877192
8131887324
8131893977
8131903620
8131909602
8131918086
8131924311
8131933100
8131939692
8131947932
8131954096
8131960688
8131969233
8131975336
8131983942
8131992914
8131999506
8132009150
8132015375
8132024653
8132030390
8132038874
8132045160
8132055109
8132062189
8132071467
8132078119
8132085505
8132091364
8132099726
8132107416
8132116022
8132122553
8132130487
8132136957
8132146356
8132153437
8132160517
8132166803
8132175714
8132182611
8132190668
8132198236
8132205927
8132212091
8132220575
8132226984
8132235040
8132245233
8132253168
8132261468
8132269647
8132278558
8132285760
8132291925
8132299371
8132306878
8132316400
8132323663
8132333551
8132340204
8132349725
8132356195
8132363458
8132374444
8132383294
8132388665
8132397760
8132405511
8132412225
8132419122
8132428826
8132435357
8132444390
8132450555
8132457330
8132465142
8132472344
8132480645
8132487298
8132496636
8132503777
8132510796
8132517510
8132524346
8132533074
8132539910
8132546624
8132557671
8132563836
8132570245
8132579034
8132584710
8132593438
8132599358
8132608086
8132617852
8132624016
8132632927
8132641045
8132648247
8132655083
8132662652
8132671990
8132679375
8132686028
8132695855
8132701653
8132709160
8132716667
8132722893
8132729058
8132734978
8132742852
8132752129
8132757561
8132762505
8132769707
8132776177
8132783074
8132789116
8132794853
8132802055
8132806389
8132814323
8132820488
8132828117
8132832756
8132839409
8132845207
8132850456
8132857048
8132861992
8132870048
8132876579
8132882194
8132888359
8132894340
8132900139
8132907158
8132915825
8132921379
8132927177
8132934013
8132939567
8132944450
8132952263
8132959099
8132964897
8132970512
8132975700
8132982048
8132987480
8132994560
8133001335
8133007255
8133012321
8133018058
8133024345
8133030570
8133037345
8133043693
8133048698
8133054923
8133060783
8133067069
8133071708
8133078361
8133084831
8133088798
8133095451
8133100944
8133106864
8133112663
8133116874
8133124686
8133128898
8133135734
8133141593
8133148002
8133154105
8133160514
8133166251
8133172355
8133177543
8133184012
8133190482
8133195182
8133202689
8133209952
8133215629
8133222098
8133227958
8133233024
8133241935
8133249381
8133255790
8133263724
8133270316
8133275382
8133282584
8133287650
8133294669
8133302420
8133307242
8133315726
8133321402
8133327140
8133333792
8133340933
8133347281
8133352652
8133358817
8133365347
8133372489
8133377799
8133385184
8133391470
8133398489
8133405570
8133410269
8133418448
8133423819
8133431693
8133440787
8133446585
8133453116
8133460074
8133466116
8133472342
8133478750
8133485220
8133492789
8133498587
8133505972
8133512076
8133520010
8133525808
8133531180
8133538382
8133544058
8133551138
8133557058
8133563894
8133568472
8133575613
8133582876
8133589651
8133595266
8133601187
8133608389
8133614187
8133619375
8133628469
8133633901
8133641409
8133646536
8133652151
8133658682
8133664724
8133673269
8133680288
8133686514
8133692495
8133698232
8133704824
8133710256
8133716543
8133723623
8133728689
8133735281
8133742971
8133749807
8133755605
8133761892
8133769704
8133776723
8133783254
8133788442
8133794912
8133802419
8133809926
8133815603
8133822622
8133829213
8133834890
8133841237
8133849965
8133859792
8133865529
8133874501
8133880056
8133888478
8133895192
8133903493
8133910268
8133917592
8133925099
8133933095
8133940114
8133947316
8133954213
8133958364
8133967580
8133974416
8133982045
8133988393
8133996938
8134005788
8134012685
8134019643
8134026051
8134034169
8134040517
8134046559
8134054188
8134061818
8134070668
8134078786
8134085377
8134091908
8134099110
8134107106
8134113881
8134120900
8134129506
8134136830
8134144764
8134149525
8134157582
8134163624
8134172230
8134179066
8134184498
8134192372
8134199940
8134206410
8134212208
8134219349
8134222950
8134234791
8134241017
8134247608
8134255238
8134261952
8134268421
8134275807
8134282826
8134290455
8134296681
8134304005
8134311756
8134318958
8134327381
8134333302
8134343128
8134351551
8134360279
8134368336
8134377064
8134384937
8134392505
8134400013
8134407886
8134414295
8134420582
8134427112
8134433826
8134440906
8134447498
8134453907
8134462207
8134469837
8134476307
8134483081
8134489124
8134496570
8134502674
8134511463
8134517871
8134520801
8134529468
8134538379
8134543689
8134551807
8134558154
8134568530
8134575733
8134583118
8134591174
8134598926
8134605396
8134612903
8134619861
8134629016
8134635486
8134643420
8134649951
8134657153
8134665759
8134670154
8134678943
8134686633
8134695727
8134701343
8134710376
8134717822
8134723864
8134730945
8134739978
8134746081
8134755908
8134762072
8134769214
8134777758
8134784961
8134790637
8134798815
8134806567
8134814746
8134823046
8134830065
8134837756
8134845263
8134851000
8134860156
8134869433
8134878283
8134886401
8134892260
8134901354
8134908678
8134917345
8134925829
8134933520
8134938158
8134948962
8134958239
8134964526
8134972765
8134980578
8134988940
8134996630
8135004198
8135011583
8135018419
8135025744
8135033251
8135041246
8135048082
8135056017
8135064257
8135072374
8135078600
8135086473
8135092821
8135102281
8135106676
8135121874
8135130480
8135138475
8135144640
8135152452
8135158251
8135166551
8135173570
8135182481
8135190233
8135197557
8135205736
8135211473
8135220079
8135227769
8135234544
8135242845
8135249803
8135258043
8135263963
8135272081
8135278184
8135285325
8135294786
8135303697
8135309678
8135316881
8135322801
8135331346
8135337449
8135344774
8135354356
8135362718
8135369065
8135377549
8135383592
8135391954
8135398301
8135405442
8135415330
8135424913
8135431443
8135439866
8135445848
8135453782
8135461717
8135469102
8135475877
8135483872
8135490159
8135498399
8135504685
8135513718
8135519944
8135527329
8135536973
8135546555
8135553208
8135561997
8135568223
8135575181
8135582017
8135592454
8135598923
8135608628
8135614609
8135623459
8135629441
8135637619
8135646286
8135653367
8135660874
8135667832
8135673813
8135681687
8135686814
8135694199
8135699204
8135705490
8135714707
8135720566
8135725937
8135731125
8135736557
8135742661
8135748520
8135755234
8135762070
8135767868
8135774826
8135780258
8135786179
8135791306
8135796799
8135805161
8135809921
8135816269
8135822128
8135828171
8135833420
8135840134
8135845749
8135852524
8135857651
8135863083
8135869369
8135876083
8135881393
8135890304
8135896957
8135903793
8135908676
8135915085
8135920395
8135927414
8135932663
8135938766
8135945175
8135950546
8135957199
8135963363
8135969101
8135974838
8135981002
8135987472
8135992477
8135999252
8136003768
8136010543
8136016464
8136023178
8136027816
8136033920
8136039901
8136046188
8136051620
8136058212
8136063827
8136068710
8136075668
8136081161
8136087692
8136096420
8136101791
8136108627
8136114852
8136121505
8136127120
8136133956
8136140609
8136146102
8136152389
8136158553
8136164962
8136170150
8136176742
8136183761
8136190108
8136197249
8136202987
8136210616
8136216292
8136225387
8136231673
8136237349
8136244735
8136250655
8136256942
8136264022
8136272261
8136277449
8136284590
8136291365
8136297225
8136303572
8136308699
8136316878
8136322798
8136328536
8136337020
8136345015
8136350447
8136357405
8136364424
8136370589
8136377303
8136382979
8136389937
8136396529
8136401289
8136408797
8136415816
8136423384
8136429610
8136435896
8136441634
8136447188
8136453291
8136460127
8136466658
8136472151
8136479353
8136486372
8136492903
8136499067
8136506941
8136514326
8136520613
8136526594
8136532698
8136538984
8136544905
8136550581
8136558149
8136563643
8136571272
8136577620
8136584150
8136591169
8136597883
8136604414
8136610884
8136617170
8136623579
8136629927
8136637068
8136645490
8136651350
8136657697
8136664228
8136669843
8136674604
8136682600
8136690656
8136696821
8136703352
8136708173
8136717329
8136722578
8136730573
8136738569
8136743696
8136751508
8136757551
8136764570
8136769636
8136776594
8136784162
8136789899
8136796918
8136803754
8136809553
8136815290
8136821149
8136828107
8136834882
8136840680
8136848005
8136855085
8136860639
8136868573
8136874250
8136883832
8136889630
8136895673
8136903852
8136911359
8136916913
8136925031
8136931073
8136941083
8136947064
8136955670
8136961163
8136969159
8136975263
8136983563
8136989728
8136998639
8137005780
8137012799
8137018292
8137026715
8137033551
8137040326
8137044598
8137055463
8137062665
8137069440
8137075360
8137082074
8137088605
8137095379
8137103131
8137110150
8137121563
8137129742
8137134808
8137142559
8137149701
8137158123
8137166241
8137173931
8137181744
8137188336
8137195843
8137202435
8137211834
8137218975
8137226544
8137235699
8137243023
8137252178
8137261883
8137269817
8137276409
8137287151
8137294292
8137302776
8137308636
8137316448
8137322491
8137330913
8137337017
8137348308
8137353069
8137362285
8137370708
8137378643
8137385723
8137394390
8137402813
8137410747
8137417705
8137428447
8137436565
8137443035
8137452556
8137458538
8137468486
8137475200
8137485637
8137492534
8137499919
8137507854
8137513530
8137521953
8137529582
8137535991
8137543743
8137553020
8137558208
8137566509
8137574016
8137581157
8137588908
8137597392
8137604594
8137610820
8137618266
8137625224
8137632854
8137640361
8137647929
8137656413
8137663920
8137670939
8137678569
8137684794
8137692363
8137700419
8137708842
8137715251
8137724894
8137732036
8137740702
8137747966
8137754863
8137765300
8137772868
8137780741
8137789164
8137796183
8137802104
8137808879
8137817729
8137828105
8137834452
8137842936
8137848673
8137856242
8137865519
8137871500
8137878336
8137887980
8137894877
8137903178
8137911600
8137917582
8137926188
8137932780
8137939799
8137947977
8137955057
8137961100
8137970499
8137978068
8137985575
8137991434
8138000590
8138008341
8138016825
8138024271
8138030191
8138041727
8138049418
8138056742
8138064005
8138071512
8138078104
8138087259
8138093912
8138101297
8138110636
8138118204
8138129068
8138135965
8138142496
8138151895
8138158487
8138167337
8138173135
8138182169
8138190347
8138197672
8138205179
8138212381
8138218729
8138227823
8138232217
8138241678
8138247232
8138256204
8138264322
8138273660
8138279947
8138286783
8138294656
8138304117
8138311380
8138320657
8138328653
8138334939
8138342691
8138348611
8138356485
8138362222
8138373819
8138379068
8138387490
8138395120
8138402505
8138408242
8138417947
8138424233
8138434426
8138441018
8138447549
8138456643
8138463967
8138470071
8138479165
8138485635
8138493935
8138501138
8138510293
8138518655
8138525918
8138531899
8138539406
8138546242
8138556008
8138562356
8138570901
8138576943
8138583596
8138592812
8138598183
8138604592
8138615578
8138620949
8138628151
8138633278
8138639443
8138645913
8138650856
8138657265
8138664772
8138670327
8138675942
8138681862
8138687294
8138692421
8138699196
8138705178
8138711708
8138718361
8138722817
8138730080
8138736122
8138741860
8138748818
8138753822
8138759255
8138765663
8138771828
8138777504
8138784035
8138788979
8138796059
8138802589
8138809853
8138814552
8138820900
8138828224
8138835426
8138841041
8138848427
8138855018
8138861610
8138865516
8138873451
8138877723
8138884559
8138889869
8138896095
8138902321
8138906715
8138914772
8138920448
8138925941
8138932472
8138938636
8138944801
8138950294
8138956581
8138964149
8138970008
8138976112
8138982582
8138988197
8138992286
8138998023
8139006324
8139011451
8139016395
8139021827
8139027442
8139033119
8139039771
8139046607
8139051063
8139058143
8139063514
8139068946
8139074744
8139081153
8139088599
8139094825
8139100013
8139105933
8139112952
8139117591
8139124732
8139131751
8139138404
8139144752
8139151404
8139158484
8139163917
8139170997
8139178016
8139184607
8139191626
8139199134
8139204322
8139210242
8139217383
8139224097
8139230567
8139236792
8139246131
8139251258
8139256385
8139263343
8139269812
8139277014
8139283545
8139289893
8139295935
8139301917
8139307593
8139312598
8139319617
8139326331
8139332923
8139339819
8139344580
8139351111
8139359351
8139366126
8139373999
8139380530
8139387793
8139393164
8139400671
8139409644
8139417334
8139422949
8139429968
8139436255
8139441443
8139449255
8139452734
8139461828
8139468786
8139474035
8139480383
8139485754
8139491430
8139498510
8139506323
8139511206
8139518530
8139525061
8139530920
8139536718
8139543859
8139550329
8139556860
8139563513
8139569555
8139576879
8139582434
8139589514
8139598242
8139603918
8139610937
8139616003
8139623022
8139627905
8139634924
8139641577
8139648107
8139654699
8139659826
8139667638
8139672826
8139680517
8139687597
8139694494
8139700719
8139706457
8139713781
8139720129
8139728002
8139735570
8139741796
8139750097
8139755529
8139763280
8139770971
8139775854
8139781530
8139792943
8139800634
8139807592
8139813329
8139820165
8139825475
8139833226
8139841405
8139848668
8139856054
8139863256
8139870641
8139877965
8139887425
8139895909
8139902745
8139909520
8139918981
8139926000
8139933202
8139940648
8139946996
8139954137
8139961888
8139969640
8139975987
8139984776
8139991185
8139998387
8140006322
8140013158
8140020970
8140027623
8140034215
8140041905
8140048070
8140056859
8140063023
8140069371
8140077122
8140083043
8140090794
8140097386
8140104100
8140114415
8140118687
8140126988
8140134312
8140140538
8140146336
8140154332
8140160435
8140167515
8140171849
8140183872
8140189854
8140199375
8140204807
8140212864
8140221714
8140230503
8140237156
8140245823
8140251560
8140260044
8140265354
8140275059
8140282932
8140289341
8140298313
8140303928
8140312839
8140319004
8140326694
8140333835
8140345859
8140352817
8140359165
8140367588
8140374973
8140381138
8140389683
8140395481
8140404453
8140410618
8140419223
8140425998
8140432651
8140442112
8140448154
8140457248
8140466404
8140472507
8140478488
8140486911
8140492893
8140501560
8140509677
8140516025
8140526035
8140532443
8140540561
8140548984
8140556308
8140562412
8140568515
8140578525
8140584811
8140593784
8140601718
8140607577
8140616000
8140622409
8140628024
8140636447
8140647128
8140653171
8140661349
8140667209
8140674411
8140683688
8140689181
8140699374
8140707919
8140714572
8140723300
8140729953
8140738620
8140744845
8140754122
8140763888
8140772677
8140779818
8140787326
8140794161
8140801608
8140808749
8140818514
8140824313
8140833956
8140840975
8140848055
8140855502
8140862338
8140868136
8140877169
8140885592
8140895052
8140903719
8140910189
8140919527
8140926180
8140937655
8140945040
8140953097
8140960787
8140970980
8140978975
8140986300
8140993075
8141002596
8141011812
8141019075
8141026705
8141035250
8141042757
8141049471
8141056124
8141063265
8141076082
8141085359
8141090975
8141099581
8141106905
8141114168
8141121553
8141128267
8141136568
8141143343
8141151338
8141160188
8141166048
8141174104
8141179781
8141188875
8141197847
8141203706
8141212984
8141219270
8141227998
8141233980
8141241304
8141250337
8141257844
8141264070
8141272188
8141278230
8141286775
8141293062
8141299836
8141308931
8141315583
8141325044
8141330354
8141338838
8141345979
8141352937
8141360017
8141368806
8141377168
8141384248
8141392854
8141398896
8141405366
8141414155
8141420686
8141427705
8141436799
8141445832
8141453156
8141460236
8141466218
8141476350
8141482331
8141491364
8141500642
8141506989
8141515534
8141521882
8141531098
8141539521
8141544831
8141553010
8141559357
8141566804
8141572663
8141578644
8141586152
8141591706
8141598053
8141605500
8141612336
8141617707
8141623322
8141630341
8141634980
8141641693
8141648041
8141654816
8141659333
8141665802
8141671784
8141678253
8141684906
8141691315
8141698456
8141703217
8141709747
8141715424
8141722260
8141728729
8141733002
8141740387
8141745758
8141753449
8141758270
8141765289
8141770416
8141776032
8141782806
8141789276
8141796417
8141803558
8141808746
8141816315
8141820831
8141827179
8141833282
8141839386
8141843719
8141851349
8141857391
8141862396
8141869354
8141876556
8141881378
8141886993
8141892730
8141896942
8141902740
8141909820
8141914154
8141920623
8141925201
8141931427
8141936187
8141942535
8141947662
8141954376
8141960052
8141966156
8141971832
8141977447
8141984100
8141990570
8141996795
8142000945
8142006988
8142012603
8142018890
8142024322
8142030792
8142038177
8142044402
8142050567
8142055877
8142062286
8142069488
8142076934
8142084747
8142090118
8142096892
8142103362
8142109893
8142115874
8142121856
8142127532
8142135039
8142141875
8142147613
8142153777
8142160674
8142168059
8142173980
8142179961
8142187529
8142192656
8142199736
8142206023
8142213408
8142220671
8142225982
8142233123
8142238860
8142245940
8142253264
8142257659
8142266326
8142272795
8142278411
8142285979
8142291472
8142296599
8142303191
8142310759
8142316313
8142323576
8142328215
8142334502
8142341643
8142347563
8142352995
8142360747
8142366423
8142373015
8142378203
8142385283
8142392180
8142396513
8142405302
8142411467
8142418669
8142424589
8142431242
8142438322
8142443022
8142451689
8142458281
8142463957
8142471220
8142476530
8142482390
8142489348
8142497038
8142501677
8142510954
8142516874
8142523344
8142529570
8142534269
8142541349
8142548002
8142553801
8142560942
8142566435
8142572843
8142579557
8142587126
8142592008
8142599455
8142605558
8142611479
8142616850
8142624174
8142631925
8142637479
8142646757
8142653715
8142659818
8142666288
8142673124
8142681364
8142686369
8142693021
8142700773
8142706266
8142712003
8142719388
8142729642
8142735807
8142744047
8142749540
8142755887
8142764066
8142770902
8142776761
8142785306
8142792447
8142799344
8142804837
8142812040
8142819364
8142826078
8142833768
8142843351
8142848844
8142855863
8142862699
8142869901
8142877347
8142883878
8142890531
8142899503
8142908170
8142914761
8142921964
8142930447
8142935880
8142944180
8142952603
8142959378
8142967435
8142975308
8142981961
8142988431
8142995572
8143001736
8143010464
8143018216
8143024686
8143031460
8143038785
8143042752
8143052334
8143059964
8143067715
8143074856
8143082181
8143089322
8143096890
8143104641
8143110257
8143115933
8143126187
8143132412
8143140652
8143146572
8143155423
8143161526
8143169583
8143175259
8143184780
8143191494
8143198147
8143207241
8143213040
8143222439
8143229885
8143235928
8143248257
8143254726
8143262417
8143271450
8143277676
8143283840
8143291164
8143298000
8143308559
8143315273
8143323879
8143330105
8143339443
8143346096
8143352443
8143362270
8143372585
8143379604
8143388393
8143394924
8143403225
8143409084
8143415981
8143425747
8143434841
8143443203
8143448818
8143456752
8143464321
8143470729
8143478420
8143484767
8143493801
8143503200
8143510951
8143518276
8143526088
8143532069
8143539211
8143545070
8143555873
8143562160
8143570033
8143576442
8143584682
8143590663
8143597987
8143607448
8143614345
8143620570
8143629664
8143635585
8143644069
8143650233
8143657191
8143667079
8143676478
8143682948
8143691554
8143697902
8143704799
8143713343
8143719447
8143728663
8143738063
8143747035
8143753260
8143761134
8143768458
8143774806
8143782252
8143792994
8143801356
8143808436
8143815821
8143822047
8143829493
8143838465
8143847071
8143851283
8143863123
8143869715
8143877222
8143885340
8143892725
8143898890
8143906458
8143916346
8143924158
8143931605
8143939417
8143947169
8143952601
8143961390
8143967005
8143976832
8143984766
8143991297
8143998743
8144004725
8144012842
8144019556
8144025843
8144034327
8144043360
8144050012
8144058252
8144064661
8144073206
8144081507
8144086267
8144095911
8144103967
8144112146
8144119898
8144128076
8144136255
8144143091
8144150415
8144157983
8144165369
8144172693
8144181909
8144188074
8144196741
8144203577
8144211023
8144220178
8144229944
8144237390
8144243860
8144250757
8144259424
8144266198
8144272058
8144282861
8144289819
8144298791
8144305322
8144314172
8144321496
8144328820
8144335107
8144345422
8144351892
8144357873
8144366906
8144372216
8144381066
8144387414
8144394189
8144402307
8144411279
8144418115
8144425134
8144433129
8144440698
8144448144
8144455651
8144464501
8144472253
8144480553
8144487389
8144493798
8144500756
8144507836
8144515099
8144521874
8144529748
8144534875
8144542626
8144547875
8144554772
8144560326
8144566918
8144574242
8144580101
8144586998
8144591637
8144598839
8144603722
8144611046
8144617760
8144624047
8144629601
8144636620
8144642906
8144649803
8144654381
8144661156
8144667809
8144675194
8144680992
8144685875
8144691429
8144698265
8144703453
8144710411
8144717430
8144723229
8144730492
8144735802
8144742333
8144750572
8144756798
8144763878
8144769615
8144776268
8144780907
8144787376
8144793968
8144799339
8144804405
8144810264
8144816185
8144821739
8144827659
8144834434
8144839683
8144844566
8144850303
8144856285
8144862327
8144867271
8144876365
8144881614
8144888023
8144890892
8144898887
8144904014
8144909935
8144916709
8144921653
8144928611
8144933616
8144938621
8144945823
8144950584
8144958274
8144963096
8144969078
8144973350
8144981101
8144987266
8144992637
8145000083
8145007041
8145013023
8145017234
8145024375
8145030540
8145037132
8145044822
8145051353
8145057029
8145062217
8145069358
8145075278
8145082114
8145088645
8145095603
8145101951
8145109153
8145115134
8145121482
8145127097
8145132712
8145140403
8145146323
8145153464
8145158896
8145165610
8145170920
8145177939
8145185996
8145192344
8145197959
8145203086
8145210166
8145215415
8145222861
8145229514
8145236655
8145240744
8145247458
8145255271
8145260276
8145268393
8145274497
8145280783
8145286704
8145293723
8145299399
8145308249
8145315573
8145320883
8145330649
8145337363
8145344626
8145350424
8145359091
8145364645
8145371847
8145379355
8145384238
8145391012
8145395834
8145402975
8145410055
8145415915
8145422751
8145429587
8145435141
8145442465
8145448630
8145454489
8145461630
8145467672
8145474508
8145482382
8145487936
8145493856
8145500631
8145506247
8145514059
8145521505
8145527853
8145532309
8145539694
8145545248
8145550924
8145557577
8145564962
8145570272
8145576803
8145582113
8145589620
8145597738
8145604086
8145625082
8145631979
8145638021
8145644979
8145652608
8145660604
8145666341
8145672384
8145679708
8145685812
8145692770
8145698385
8145704977
8145714071
8145719869
8145727498
8145734334
8145743368
8145750020
8145756063
8145765096
8145772664
8145779866
8145787252
8145793355
8145798909
8145806417
8145811971
8145820272
8145826314
8145834005
8145840779
8145848897
8145855794
8145863790
8145870137
8145876302
8145883748
8145890462
8145897298
8145905415
8145911946
8145920735
8145927693
8145936604
8145942586
8145951436
8145959370
8145965779
8145972554
8145981587
8145988118
8145996541
8146003865
8146009419
8146016621
8146024983
8146032063
8146038289
8146045247
8146050618
8146059041
8146065510
8146072224
8146080342
8146087361
8146093892
8146100605
8146108052
8146114766
8146121724
8146129109
8146133564
8146144245
8146151081
8146160298
8146165913
8146173176
8146182087
8146188923
8146196369
8146204121
8146213459
8146220173
8146227741
8146234638
8146239948
8146249165
8146256306
8146264729
8146272968
8146278889
8146285786
8146292622
8146301594
8146307392
8146316730
8146323322
8146332966
8146337177
8146346882
8146355060
8146362629
8146370136
8146378498
8146386615
8146394855
8146401508
8146409015
8146416156
8146424030
8146432819
8146440814
8146445026
8146456073
8146461994
8146469379
8146477741
8146484577
8146493732
8146500507
8146508380
8146516864
8146522662
8146531024
8146537067
8146546039
8146553119
8146562579
8146567340
8146576312
8146583148
8146591510
8146598834
8146605426
8146617267
8146621844
8146629535
8146638202
8146646380
8146652423
8146662188
8146668719
8146677874
8146684344
8146694720
8146701922
8146709735
8146718768
8146725482
8146733782
8146741534
8146748980
8146758868
8146766253
8146776080
8146784564
8146794390
8146803118
8146807391
8146817461
8146824480
8146833575
8146839678
8146848711
8146855791
8146865618
8146874895
8146881121
8146889849
8146897173
8146902972
8146911761
8146918108
8146926287
8146932879
8146943560
8146950274
8146958330
8146965288
8146972551
8146979692
8146987444
8146996599
8147004106
8147011064
8147018206
8147025103
8147033220
8147040117
8147049700
8147055925
8147064043
8147071062
8147078508
8147086015
8147093462
8147101824
8147109636
8147117326
8147125200
8147131426
8147138811
8147145769
8147153215
8147160051
8147169755
8147178545
8147186174
8147191606
8147201250
8147206865
8147215898
8147224199
8147233293
8147239946
8147247453
8147255388
8147262040
8147267534
8147275285
8147282670
8147289933
8147296952
8147306657
8147314531
8147322160
8147329667
8147338883
8147347489
8147355302
8147363297
8147371476
8147379838
8147387223
8147394730
8147401566
8147410172
8147419633
8147426896
8147433610
8147441361
8147449174
8147456803
8147464677
8147471635
8147479752
8147487565
8147493546
8147499161
8147505204
8147511979
8147519669
8147524979
8147531815
8147537858
8147543473
8147549332
8147555680
8147561539
8147566971
8147572709
8147578995
8147585160
8147592301
8147597855
8147604996
8147611649
8147618363
8147622696
8147629715
8147634110
8147642166
8147647232
8147654007
8147660782
8147665238
8147672257
8147677933
8147685135
8147691666
8147698502
8147702957
8147709305
8147716080
8147722549
8147728775
8147734695
8147740372
8147746170
8147752274
8147757889
8147764114
8147769119
8147776810
8147783096
8147788406
8147794754
8147800369
8147806961
8147811111
8147817703
8147823746
8147829788
8147834976
8147840774
8147846389
8147850479
8147857559
8147863235
8147868423
8147873184
8147879532
8147884658
8147890884
8147897842
8147902542
8147909683
8147914993
8147921768
8147926589
8147932693
8147941177
8147947524
8147953994
8147958511
8147965530
8147972061
8147977981
8147987502
8147993423
8148001724
8148007827
8148013992
8148020034
8148026443
8148034194
8148040908
8148047134
8148053420
8148061904
8148067397
8148072829
8148081618
8148087356
8148093764
8148100112
8148105727
8148111403
8148118361
8148124709
8148131606
8148137343
8148144179
8148150222
8148155776
8148163039
8148169448
8148176284
8148184279
8148190627
8148196303
8148201674
8148208693
8148214492
8148221205
8148229323
8148235854
8148242079
8148247756
8148254347
8148261794
8148266554
8148273818
8148280654
8148286452
8148292250
8148299330
8148305861
8148312941
8148318617
8148325575
8148332655
8148338271
8148345717
8148354201
8148361464
8148368666
8148374464
8148380507
8148386976
8148392348
8148401259
8148407606
8148413466
8148418104
8148424940
8148429823
8148438978
8148445265
8148451979
8148458510
8148463331
8148470717
8148476759
8148483900
8148490492
8148497572
8148505323
8148511915
8148517530
8148523695
8148529371
8148536756
8148544325
8148551161
8148558424
8148564283
8148571913
8148578993
8148586805
8148593763
8148599745
8148606580
8148612684
8148619093
8148624281
8148632337
8148636915
8148645643
8148652479
8148658094
8148665845
8148672071
8148678724
8148687452
8148695447
8148701368
8148709485
8148715650
8148724134
8148729444
8148739087
8148748121
8148754834
8148760572
8148767286
8148774671
8148781568
8148788160
8148796949
8148803846
8148810620
8148816419
8148825086
8148831067
8148838880
8148847180
8148853284
8148859570
8148868115
8148873120
8148881909
8148889111
8148895459
8148904553
8148911450
8148919873
8148925671
8148931958
8148940503
8148946667
8148955151
8148965100
8148971875
8148979932
8148985913
8148995373
8149002026
8149010266
8149016308
8149024975
8149032239
8149041211
8149048962
8149054516
8149063244
8149069348
8149076489
8149088696
8149095044
8149102246
8149108288
8149114758
8149123913
8149135082
8149147412
8149155041
8149161083
8149170544
8149178845
8149187939
8149197338
8149204418
8149211376
8149220593
8149228832
8149237133
8149244945
8149252758
8149260448
8149267834
8149276256
8149285839
8149293285
8149300121
8149310009
8149317760
8149324962
8149335094
8149340954
8149351024
8149355175
8149364696
8149370617
8149378917
8149385448
8149395214
8149403514
8149411022
8149416332
8149423900
8149431041
8149438915
8149445629
8149454723
8149462963
8149470775
8149474864
8149483898
8149492076
8149500072
8149503917
8149515331
8149521678
8149530711
8149536815
8149545238
8149553050
8149557933
8149567393
8149577281
8149584300
8149592357
8149598216
8149605540
8149612620
8149620006
8149629283
8149635631
8149645213
8149650767
8149660716
8149668834
8149674693
8149682383
8149689524
8149699168
8149706065
8149713084
8149721934
8149727610
8149736521
8149743601
8149750498
8149759410
8149766184
8149775279
8149781321
8149788157
8149795298
8149802195
8149810191
8149819163
8149828379
8149835764
8149842661
8149849680
8149856760
8149863413
8149870981
8149881174
8149888254
8149896738
8149904185
8149912668
8149922312
8149931162
8149938974
8149946787
8149953257
8149961130
8149969492
8149976877
8149983652
8149993357
8150000009
8150009531
8150016245
8150025461
8150032785
8150040109
8150048654
8150055918
8150065500
8150075510
8150081857
8150090585
8150098215
8150104074
8150110849
8150120309
8150129343
8150136850
8150145212
8150151071
8150157724
8150166635
8150174814
8150180856
8150192392
8150198739
8150206308
8150214120
8150221505
8150228097
8150235544
8150241830
8150252389
8150259591
8150267038
8150275460
8150283029
8150289621
8150299142
8150306161
8150314035
8150320687
8150328073
8150333993
8150343392
8150349923
8150357919
8150365304
8150373238
8150380807
8150390023
8150396127
8150403451
8150409554
8150418771
8150426095
8150432503
8150439584
8150447152
8150451668
8150458565
8150466683
8150472420
8150478768
8150484933
8150491952
8150497994
8150503670
8150509041
8150515389
8150523018
8150529915
8150535408
8150542183
8150547127
8150553719
8150558968
8150565987
8150572762
8150579781
8150584542
8150591439
8150597176
8150602547
8150610787
8150617501
8150624092
8150630806
8150635994
8150641426
8150648445
8150654976
8150659798
8150667183
8150672066
8150678719
8150684883
8150691109
8150697884
8150702705
8150710030
8150716743
8150723091
8150728523
8150733955
8150739998
8150746223
8150752449
8150758980
8150764839
8150769844
8150775642
8150782600
8150786934
8150794380
8150799263
8150804878
8150810371
8150816475
8150821602
8150828193
8150833870
8150838752
8150844795
8150850349
8150857002
8150863289
8150868171
8150874580
8150880683
8150886665
8150891731
8150897712
8150906440
8150911750
8150916877
8150922309
8150928901
8150936592
8150940925
8150950752
8150955818
8150963752
8150970832
8150975959
8150981941
8150988532
8150998359
8151004524
8151010627
8151017280
8151024055
8151030646
8151035102
8151043525
8151048957
8151056098
8151060737
8151067939
8151072883
8151079902
8151085700
8151092231
8151100226
8151106574
8151112494
8151117988
8151125190
8151131476
8151139045
8151144660
8151150031
8151157233
8151162421
8151169440
8151176520
8151183661
8151189337
8151195502
8151201728
8151208197
8151214118
8151220099
8151227728
8151233039
8151240973
8151246710
8151253424
8151258185
8151265814
8151273383
8151280280
8151286749
8151293951
8151300848
8151305487
8151312140
8151321600
8151327521
8151333136
8151338568
8151344549
8151351569
8151357733
8151365240
8151371771
8151377569
8151383429
8151389288
8151395636
8151402472
8151408575
8151415716
8151422003
8151428290
8151435003
8151441046
8151448187
8151454290
8151460943
8151467230
8151474249
8151481268
8151486151
8151493719
8151500067
8151507025
8151514532
8151520819
8151526800
8151533209
8151539373
8151544805
8151552252
8151560003
8151564581
8151573126
8151579900
8151586309
8151591985
8151600530
8151608465
8151614568
8151621038
8151627142
8151635259
8151641546
8151648687
8151657171
8151664617
8151670049
8151677251
8151684942
8151691778
8151697759
8151705816
8151713201
8151720647
8151727422
8151734380
8151742254
8151749395
8151757024
8151764470
8151771001
8151779424
8151786687
8151792852
8151799077
8151806951
8151815801
8151821233
8151829900
8151837041
8151844487
8151853215
8151861272
8151870244
8151878789
8151887090
8151892888
8151900884
8151906560
8151916325
8151923772
8151930547
8151937993
8151946294
8151952885
8151959599
8151967900
8151973759
8151984379
8151991826
8151998906
8152005803
8152013127
8152019230
8152025273
8152035222
8152044133
8152050419
8152059391
8152065678
8152072087
8152080571
8152086308
8152094792
8152104374
8152110905
8152119145
8152125065
8152132817
8152141667
8152147465
8152156681
8152164799
8152170841
8152179997
8152188419
8152196232
8152203251
8152211002
8152219120
8152227238
8152234684
8152242435
8152248234
8152255985
8152262760
8152270206
8152278873
8152286747
8152295353
8152302738
8152309879
8152317203
8152324650
8152332279
8152336612
8152346561
8152354862
8152362674
8152369205
8152376529
8152384464
8152389835
8152399662
8152408451
8152415164
8152423831
8152429935
8152439700
8152448856
8152456790
8152463931
8152471561
8152478946
8152486392
8152494693
8152502506
8152508792
8152518192
8152527225
8152534305
8152541141
8152548892
8152557376
8152564090
8152570926
8152578677
8152586123
8152594119
8152602359
8152611392
8152619204
8152626529
8152632815
8152641360
8152649234
8152659671
8152666018
8152676150
8152681826
8152690676
8152698245
8152705325
8152715212
8152722781
8152730715
8152736819
8152744204
8152752749
8152758120
8152766665
8152773257
8152782900
8152789126
8152797671
8152803164
8152812075
8152818484
8152825991
8152836794
8152843142
8152849673
8152858340
8152865908
8152872378
8152877932
8152886843
8152897158
8152903566
8152912844
8152919191
8152927797
8152935793
8152943239
8152949892
8152958620
8152965700
8152976381
8152980776
8152990419
8152996096
8153005068
8153011476
8153020754
8153025087
8153034670
8153040529
8153047853
8153054384
8153062502
8153071352
8153081300
8153089174
8153096620
8153103944
8153111391
8153117677
8153126283
8153134889
8153142580
8153150209
8153157594
8153165834
8153173341
8153177492
8153187379
8153194398
8153202150
8153210267
8153217592
8153224183
8153231447
8153239198
8153247010
8153251466
8153261537
8153268861
8153276307
8153284730
8153290528
8153298707
8153304566
8153310487
8153319764
8153328431
8153334352
8153342713
8153350282
8153357545
8153366029
8153373719
8153381165
8153390443
8153396302
8153402772
8153409486
8153417298
8153420655
8153429383
8153435548
8153441285
8153447999
8153452332
8153458741
8153465760
8153471558
8153479249
8153484803
8153490296
8153496888
8153504578
8153509156
8153516358
8153521607
8153528321
8153535157
8153541565
8153546936
8153554078
8153559937
8153565918
8153572754
8153578492
8153585327
8153590271
8153597168
8153605469
8153612305
8153619019
8153623779
8153629822
8153635559
8153641724
8153648255
8153654419
8153660645
8153666748
8153673218
8153678650
8153683655
8153690613
8153696167
8153702393
8153708557
8153714539
8153719788
8153726379
8153730835
8153738403
8153743530
8153750183
8153755676
8153760864
8153768860
8153774719
8153779846
8153785766
8153792419
8153797668
8153804260
8153811889
8153817993
8153824402
8153830993
8153836548
8153843628
8153848632
8153855651
8153861145
8153867004
8153873840
8153879089
8153884582
8153891784
8153898376
8153905212
8153912292
8153920226
8153925781
8153931213
8153940002
8153945068
8153951965
8153959899
8153965514
8153971191
8153978820
8153984740
8153991271
8153998962
8154004211
8154011291
8154015563
8154022460
8154028991
8154035461
8154041625
8154047851
8154055480
8154061523
8154068725
8154074157
8154081237
8154088134
8154093627
8154099730
8154106139
8154112121
8154117736
8154124816
8154131347
8154136962
8154143493
8154150023
8154154418
8154161193
8154169371
8154177062
8154183226
8154188903
8154194640
8154200072
8154207152
8154214476
8154221617
8154226927
8154234801
8154240538
8154245848
8154252745
8154259215
8154266112
8154272521
8154278990
8154284728
8154290343
8154298155
8154304686
8154311156
8154316161
8154322630
8154330992
8154336912
8154343138
8154351195
8154358702
8154365599
8154370970
8154380919
8154387694
8154395018
8154403380
8154410826
8154416441
8154424131
8154429319
8154436949
8154441832
8154449522
8154455442
8154462583
8154470579
8154477964
8154484861
8154489134
8154501219
8154508543
8154515501
8154521910
8154530943
8154537107
8154545225
8154552915
8154559019
8154569151
8154576109
8154582761
8154589353
8154596067
8154599790
8154609006
8154614744
8154624937
8154631406
8154638120
8154645139
8154651731
8154658201
8154664670
8154671934
8154678953
8154685483
8154692380
8154699827
8154706846
8154713010
8154720029
8154726194
8154733701
8154741819
8154748410
8154755246
8154761045
8154768979
8154775693
8154783628
8154791013
8154797849
8154804685
8154810910
8154817868
8154825620
8154832517
8154839230
8154846982
8154853269
8154860410
8154868222
8154875485
8154883481
8154890683
8154898801
8154907285
8154913937
8154921689
8154927914
8154936764
8154945187
8154952511
8154960812
8154969296
8154974423
8154983029
8154988522
8154996762
8155003659
8155012631
8155021237
8155027523
8155035031
8155041928
8155049618
8155055661
8155064328
8155070614
8155080929
8155087826
8155095150
8155101925
8155109249
8155115780
8155124081
8155128048
8155141537
8155148251
8155155514
8155162655
8155170651
8155178097
8155185909
8155192501
8155201351
8155207699
8155216976
8155225582
8155233456
8155238216
8155249691
8155255306
8155264767
8155271786
8155281490
8155288448
8155295162
8155303219
8155310116
8155318721
8155328548
8155336300
8155342647
8155349910
8155356563
8155364864
8155373775
8155381526
8155388973
8155396724
8155403560
8155410884
8155417537
8155423274
8155429317
8155441402
8155449092
8155454768
8155461177
8155469356
8155476985
8155484493
8155490596
8155499019
8155507564
8155514827
8155520869
8155529048
8155535457
8155543574
8155549434
8155558467
8155564754
8155572017
8155580989
8155588862
8155594722
8155601985
8155608943
8155617671
8155624751
8155632624
8155639399
8155646907
8155654048
8155662471
8155669123
8155676936
8155685237
8155691523
8155700434
8155708857
8155714655
8155723933
8155727839
8155739924
8155748103
8155753657
8155759882
8155768549
8155774104
8155783015
8155789851
8155799311
8155806391
8155813715
8155821833
8155827265
8155836115
8155843683
8155847468
8155860041
8155867121
8155874384
8155878351
8155887507
8155893305
8155900995
8155906794
8155917841
8155924494
8155932184
8155938105
8155946344
8155952509
8155961603
8155968073
8155979730
8155987970
8155995722
8156002497
8156011164
8156020319
8156029291
8156036554
8156046076
8156051386
8156060480
8156067377
8156073969
8156080988
8156088678
8156095514
8156104852
8156113153
8156119806
8156125787
8156134881
8156140192
8156147394
8156154657
8156163751
8156171014
8156177789
8156185602
8156194818
8156203180
8156208978
8156218438
8156225030
8156234002
8156241265
8156249139
8156256463
8156264032
8156267999
8156280511
8156287530
8156294793
8156302056
8156309442
8156315972
8156322869
8156328973
8156335626
8156342400
8156349358
8156355706
8156362725
8156368401
8156374810
8156383050
8156389397
8156394952
8156401604
8156407159
8156413140
8156419610
8156426934
8156433037
8156438653
8156444207
8156449578
8156454217
8156461236
8156467644
8156473809
8156479790
8156484124
8156492119
8156495354
8156503960
8156510064
8156516350
8156523674
8156529045
8156534539
8156540581
8156547234
8156552422
8156559136
8156565544
8156569878
8156576897
8156584343
8156590386
8156597588
8156602104
8156609184
8156616692
8156623345
8156629448
8156634453
8156641838
8156648735
8156653740
8156660210
8156666435
8156671928
8156678032
8156684502
8156689445
8156696037
8156700249
8156706291
8156712273
8156718315
8156723381
8156729790
8156735100
8156741569
8156747917
8156753410
8156759819
8156766838
8156773918
8156779838
8156785392
8156792595
8156796928
8156803459
8156809868
8156816337
8156824211
8156829643
8156836601
8156843925
8156851188
8156857353
8156862846
8156870475
8156877067
8156882377
8156889091
8156893547
8156902763
8156908744
8156916007
8156921195
8156927848
8156933036
8156939262
8156948051
8156952934
8156958976
8156965507
8156971122
8156976432
8156984550
8156992484
8156998588
8157004386
8157011100
8157017081
8157023124
8157031180
8157035819
8157043326
8157049369
8157056205
8157061393
8157068107
8157075004
8157080192
8157088797
8157092276
8157101249
8157108085
8157113700
8157120414
8157127311
8157134208
8157140799
8157146964
8157153800
8157159415
8157166861
8157173087
8157180655
8157187857
8157195731
8157201041
8157207877
8157214896
8157220389
8157230399
8157235892
8157242972
8157248953
8157255606
8157262991
8157269766
8157275748
8157282339
8157289420
8157294669
8157301321
8157307425
8157312186
8157320669
8157327750
8157333426
8157339285
8157345572
8157351919
8157359793
8157364065
8157371756
8157378897
8157386404
8157393545
8157401114
8157407278
8157415823
8157421743
8157428152
8157436209
8157444754
8157452444
8157460195
8157466787
8157474478
8157481375
8157488516
8157494924
8157501821
8157509390
8157516592
8157520437
8157529897
8157536550
8157543447
8157550405
8157557424
8157565847
8157572317
8157576955
8157587759
8157594533
8157601736
8157607839
8157614736
8157621145
8157628347
8157636770
8157644765
8157651296
8157658376
8157666738
8157673024
8157678945
8157688161
8157696157
8157704458
8157710378
8157718435
8157727651
8157735341
8157742543
8157749807
8157757863
8157764882
8157772573
8157779775
8157787160
8157793019
8157801564
8157807912
8157816640
8157825307
8157833241
8157840627
8157848561
8157855763
8157863820
8157871266
8157879506
8157886952
8157894704
8157902882
8157910451
8157916615
8157923817
8157929921
8157942433
8157948720
8157956105
8157963246
8157970631
8157977894
8157985524
8157992360
8158000843
8158007618
8158014943
8158023121
8158028920
8158034901
8158043751
8158049855
8158059803
8158065968
8158074391
8158080372
8158087330
8158096302
8158102162
8158110829
8158117298
8158126148
8158131336
8158140186
8158147511
8158154591
8158161732
8158170460
8158182056
8158187977
8158197193
8158206898
8158215076
8158222645
8158230518
8158239796
8158246692
8158254688
8158263660
8158272144
8158278125
8158286548
8158293018
8158302601
8158311329
8158319080
8158325916
8158333484
8158340747
8158348377
8158356006
8158364124
8158370899
8158378162
8158386463
8158392139
8158399951
8158407337
8158415332
8158423450
8158431629
8158439441
8158445483
8158452808
8158460132
8158468127
8158474719
8158484790
8158489123
8158498462
8158506274
8158514270
8158521289
8158528491
8158535632
8158543811
8158552600
8158560718
8158566760
8158574389
8158583667
8158591601
8158598925
8158609301
8158614489
8158623950
8158630786
8158641101
8158647876
8158656787
8158665209
8158673571
8158681628
8158689868
8158697497
8158704455
8158711962
8158718859
8158728930
8158735949
8158743212
8158750414
8158756457
8158764941
8158770678
8158776904
8158788439
8158795031
8158802660
8158809557
8158817492
8158823839
8158831225
8158837023
8158847155
8158853380
8158862108
8158868273
8158875719
8158882250
8158890978
8158897631
8158906786
8158917467
8158924669
8158931810
8158940966
8158946764
8158954149
8158961412
8158969286
8158978258
8158985277
8158992540
8159002062
8159010790
8159016710
8159028001
8159037035
8159044176
8159050951
8159058275
8159066637
8159074449
8159082689
8159090623
8159098558
8159106187
8159113450
8159119371
8159127733
8159135606
8159143114
8159151109
8159158800
8159166551
8159170457
8159183214
8159190538
8159199205
8159207750
8159215074
8159224046
8159231858
8159239244
8159245774
8159255479
8159264085
8159270799
8159276536
8159284654
8159291368
8159297776
8159306809
8159314195
8159320298
8159325974
8159333726
8159340073
8159346055
8159354295
8159360825
8159366685
8159373887
8159380723
8159386765
8159391465
8159399216
8159406480
8159413438
8159419968
8159426377
8159432175
8159439499
8159444810
8159451401
8159458054
8159464829
8159470444
8159477280
8159482651
8159487900
8159496445
8159502488
8159507859
8159512131
8159518723
8159525315
8159531967
8159537155
8159543137
8159548752
8159552719
8159560410
8159565354
8159571152
8159577439
8159583359
8159589401
8159594834
8159599350
8159604843
8159610642
8159618088
8159622482
8159629440
8159634689
8159639694
8159645187
8159651291
8159656479
8159662216
8159667709
8159673202
8159679733
8159685776
8159690414
8159698349
8159704452
8159710922
8159716415
8159722946
8159728744
8159734848
8159740890
8159747604
8159752792
8159760116
8159764877
8159770981
8159777694
8159784347
8159791061
8159796249
8159803268
8159809433
8159815292
8159822738
8159828903
8159835861
8159842636
8159849288
8159855453
8159860885
8159868148
8159875411
8159882491
8159889511
8159894821
8159902755
8159908370
8159916366
8159923446
8159930709
8159937911
8159942733
8159950057
8159957259
8159962020
8159970321
8159975936
8159983016
8159988876
8159995528
8160001510
8160007247
8160016219
8160023055
8160028731
8160033675
8160039351
8160045638
8160053206
8160058089
8160064803
8160071273
8160079146
8160084761
