8796068241
8796075443
8796080997
8796088382
8796094486
8796099918
8796106266
8796112491
8796117923
8796124332
8796131473
8796136966
8796142459
8796149356
8796156619
8796163333
8796171695
8796177799
8796184146
8796192935
8796199832
8796207034
8796214481
8796221683
8796228885
8796235233
8796242679
8796249698
8796256473
8796263736
8796270389
8796277713
8796285281
8796290835
8796298831
8796307010
8796313968
8796320010
8796327884
8796335330
8796342410
8796349673
8796356997
8796362674
8796370120
8796378299
8796385196
8796392642
8796401492
8796406253
8796413699
8796422915
8796430606
8796436831
8796443972
8796451541
8796457522
8796465212
8796471865
8796480593
8796489504
8796496279
8796503481
8796513064
8796518313
8796527468
8796536562
8796546633
8796558230
8796568606
8796579348
8796590578
8796597719
8796606814
8796617434
8796627993
8796635683
8796641787
8796650759
8796658205
8796664858
8796671022
8796679201
8796685732
8796693666
8796700808
8796708925
8796715761
8796721010
8796728334
8796735170
8796743166
8796751589
8796759218
8796764650
8796772646
8796782167
8796790529
8796801271
8796809877
8796817751
8796825868
8796834535
8796842104
8796851686
8796860536
8796866334
8796875551
8796883790
8796890138
8796900453
8796907716
8796916444
8796923524
8796933595
8796942384
8796949037
8796957704
8796967164
8796975831
8796983644
8796992006
8796999086
8797006166
8797015748
8797021180
8797031251
8797039063
8797047059
8797052247
8797061463
8797070802
8797077088
8797086060
8797093568
8797101075
8797109071
8797116944
8797123902
8797131654
8797139344
8797149293
8797156068
8797163880
8797173768
8797179383
8797188843
8797195252
8797204957
8797214173
8797224183
8797232911
8797240845
8797250794
8797259583
8797266785
8797275025
8797284546
8797293213
8797298828
8797308167
8797313782
8797322632
8797330628
8797337708
8797343384
8797351929
8797360779
8797367920
8797375061
8797382202
8797390259
8797397217
8797403992
8797412964
8797421143
8797427795
8797434143
8797443176
8797448425
8797457153
8797464416
8797473205
8797479919
8797488098
8797494995
8797501404
8797508850
8797517090
8797525573
8797531067
8797538391
8797546631
8797555175
8797561584
8797570984
8797577392
8797587646
8797593689
8797602233
8797610656
8797616882
8797625915
8797633911
8797642028
8797647582
8797656677
8797663696
8797672729
8797679443
8797688293
8797694824
8797704528
8797712035
8797720824
8797727660
8797736510
8797744323
8797750487
8797758117
8797768127
8797777038
8797785033
8797792541
8797800231
8797807616
8797816283
8797824157
8797832763
8797841491
8797848327
8797857360
8797862243
8797870665
8797877868
8797887023
8797896971
8797903502
8797912963
8797919921
8797927245
8797934264
8797944090
8797955199
8797961791
8797971983
8797978819
8797988829
8797997008
8798006407
8798013182
8798027098
8798035887
8798041014
8798049010
8798056395
8798065001
8798073790
8798080748
8798088011
8798093626
8798103148
8798110533
8798117735
8798124571
8798132383
8798139464
8798146727
8798153990
8798161192
8798168333
8798176512
8798183897
8798191709
8798199156
8798207212
8798214109
8798223326
8798229490
8798237730
8798246214
8798251341
8798259641
8798265257
8798273618
8798278867
8798287168
8798295835
8798304319
8798312925
8798318479
8798329038
8798335508
8798344541
8798350767
8798359006
8798368101
8798376768
8798385679
8798392698
8798401975
8798410886
8798418821
8798425779
8798431760
8798440366
8798447507
8798456907
8798465146
8798470639
8798478208
8798483152
8798490964
8798497678
8798503842
8798512082
8798517758
8798524594
8798530515
8798537900
8798543576
8798550290
8798557553
8798563230
8798570432
8798575314
8798582517
8798588864
8798596066
8798601682
8798609067
8798614560
8798622372
8798627377
8798635251
8798642087
8798650937
8798656491
8798666073
8798679562
8798684262
8798692441
8798700314
8798705807
8798712216
8798719601
8798726498
8798733029
8798740841
8798745663
8798752682
8798757748
8798766049
8798773312
8798779660
8798787228
8798794064
8798799862
8798806698
8798814694
8798819699
8798828182
8798834835
8798838375
8798847164
8798854977
8798861874
8798867367
8798874630
8798882626
8798889401
8798894894
8798902706
8798909664
8798915890
8798923824
8798930599
8798937679
8798944515
8798952511
8798958126
8798966854
8798971615
8798980160
8798986385
8798994991
8799000545
8799009212
8799015194
8799023922
8799030025
8799036678
8799044490
8799051998
8799059627
8799067012
8799074398
8799080013
8799087703
8799095211
8799101131
8799110042
8799116024
8799124874
8799130611
8799137508
8799146053
8799152156
8799160945
8799167049
8799175838
8799181880
8799188533
8799196895
8799203914
8799210689
8799218196
8799224544
8799234004
8799241695
8799249019
8799252864
8799262202
8799268123
8799276301
8799282710
8799292842
8799299983
8799306514
8799316035
8799324092
8799331660
8799339351
8799346736
8799354976
8799361262
8799371882
8799380427
8799390376
8799398432
8799404719
8799413325
8799422358
8799430049
8799439753
8799448603
8799455866
8799463557
8799470576
8799479853
8799484309
8799493830
8799500117
8799507441
8799515009
8799522456
8799529475
8799536860
8799546870
8799554316
8799562189
8799569575
8799575251
8799583796
8799589716
8799596125
8799604914
8799611445
8799618769
8799626154
8799634699
8799640070
8799649286
8799656305
8799663141
8799669489
8799678705
8799686212
8799692804
8799699762
8799707758
8799714167
8799721369
8799727350
8799735651
8799745233
8799752435
8799758905
8799766474
8799772211
8799780145
8799788202
8799795648
8799801569
8799810785
8799816522
8799823053
8799831598
8799838983
8799845697
8799851495
8799861139
8799869073
8799876459
8799882196
8799892450
8799899530
8799905938
8799915094
8799920282
8799930719
8799939019
8799947259
8799952386
8799961786
8799967889
8799978143
8799983575
8799991571
8800000604
8800008721
8800015679
8800023919
8800030328
8800039727
8800046197
8800054070
8800063653
8800070306
8800079583
8800086236
8800093560
8800100823
8800108941
8800115960
8800124200
8800133660
8800139703
8800146111
8800155938
8800162408
8800171868
8800178826
8800186761
8800197991
8800203667
8800217766
8800227227
8800236626
8800244500
8800252556
8800261528
8800268486
8800276665
8800284111
8800289482
8800298271
8800306755
8800314080
8800320427
8800329827
8800336418
8800345513
8800352715
8800359734
8800365959
8800372856
8800380913
8800388176
8800394951
8800404717
8800411125
8800418510
8800425957
8800433098
8800442253
8800450554
8800458671
8800466179
8800474235
8800481682
8800489433
8800497368
8800504997
8800510063
8800518913
8800525383
8800532341
8800543876
8800550956
8800559257
8800567863
8800574333
8800581840
8800589714
8800596672
8800606193
8800614067
8800619377
8800629020
8800637565
8800644340
8800653556
8800665092
8800672233
8800679740
8800686393
8800694755
8800702506
8800710014
8800719657
8800727958
8800735709
8800742057
8800748160
8800755851
8800764335
8800773551
8800779960
8800788077
8800795218
8800804313
8800811210
8800818656
8800826896
8800835563
8800844230
8800851126
8800857657
8800868094
8800876517
8800884696
8800893180
8800898917
8800907828
8800913809
8800923331
8800931449
8800940787
8800946036
8800955069
8800963248
8800969595
8800976309
8800984732
8800991629
8800999808
8801006705
8801013907
8801020254
8801027579
8801034598
8801042471
8801050650
8801058890
8801064993
8801073477
8801079275
8801086294
8801096060
8801102713
8801110769
8801117056
8801126211
8801133902
8801139761
8801147268
8801157400
8801163870
8801170279
8801175650
8801180593
8801188345
8801193777
8801201895
8801206777
8801212820
8801218862
8801223440
8801229666
8801235159
8801243582
8801248220
8801255483
8801261953
8801269216
8801276235
8801284841
8801291616
8801298452
8801305349
8801310781
8801318044
8801325429
8801331350
8801337942
8801344533
8801349294
8801355398
8801360280
8801367971
8801373891
8801380971
8801386403
8801391103
8801396657
8801402456
8801408925
8801415517
8801421560
8801428457
8801434987
8801440480
8801447133
8801453664
8801460012
8801465139
8801472524
8801479055
8801487355
8801495290
8801500844
8801508290
8801514089
8801522023
8801527699
8801533925
8801540334
8801546925
8801552724
8801558705
8801564015
8801569386
8801575856
8801581654
8801588490
8801593495
8801600453
8801606007
8801612477
8801619435
8801624928
8801631581
8801636891
8801642934
8801649708
8801656422
8801660939
8801669362
8801674489
8801681935
8801687733
8801694813
8801701588
8801708973
8801715016
8801719838
8801726674
8801733082
8801739186
8801746815
8801752980
8801759877
8801765980
8801771168
8801777333
8801782093
8801790028
8801796986
8801803211
8801811146
8801817188
8801822743
8801828846
8801835316
8801841419
8801848744
8801855152
8801860584
8801868153
8801874683
8801880360
8801885670
8801893543
8801899097
8801906971
8801912403
8801920277
8801926136
8801933338
8801939014
8801946339
8801951954
8801959583
8801964527
8801971912
8801978748
8801986011
8801992359
8801998890
8802003589
8802011585
8802017627
8802024769
8802030201
8802037403
8802044056
8802050708
8802056995
8802062549
8802070789
8802076160
8802084278
8802091785
8802099170
8802106433
8802113330
8802120349
8802129199
8802137317
8802142810
8802150623
8802155872
8802162097
8802167163
8802175830
8802182666
8802188709
8802196094
8802201587
8802208545
8802215747
8802221973
8802227649
8802234302
8802241626
8802247119
8802254260
8802259448
8802267261
8802273181
8802282886
8802290210
8802295154
8802302112
8802308764
8802314929
8802322253
8802330737
8802337451
8802343921
8802349292
8802355517
8802361193
8802369433
8802377917
8802384753
8802391528
8802397936
8802403796
8802410754
8802417956
8802426501
8802433947
8802441760
8802448229
8802453845
8802459521
8802467211
8802473193
8802480700
8802487231
8802492968
8802499316
8802506762
8802511767
8802518969
8802524889
8802532519
8802537585
8802545519
8802551195
8802559618
8802567126
8802573839
8802581103
8802588061
8802596178
8802602831
8802609728
8802617113
8802623522
8802631029
8802638353
8802645678
8802652208
8802661730
8802668077
8802675524
8802683824
8802691088
8802697069
8802704943
8802711107
8802720873
8802726732
8802735155
8802740770
8802747606
8802756639
8802763109
8802772936
8802781541
8802794969
8802802721
8802811143
8802820299
8802829271
8802835130
8802842454
8802849840
8802857042
8802862108
8802868089
8802875474
8802881578
8802889634
8802898118
8802904100
8802910814
8802919481
8802927415
8802933336
8802940110
8802949449
8802959642
8802968187
8802975572
8802982164
8802989671
8802997483
8803004869
8803010789
8803019029
8803024949
8803032151
8803040757
8803046250
8803056077
8803062974
8803069932
8803078416
8803085069
8803091538
8803098985
8803105637
8803115098
8803120957
8803130479
8803137498
8803145005
8803151475
8803158921
8803167222
8803174485
8803181077
8803188523
8803194932
8803202927
8803210679
8803218735
8803228806
8803236313
8803242173
8803249375
8803258469
8803264878
8803274094
8803280869
8803287644
8803295578
8803302353
8803309921
8803317429
8803324082
8803333359
8803339707
8803347275
8803353745
8803361374
8803369736
8803377121
8803385727
8803393417
8803399887
8803407455
8803415329
8803422897
8803428940
8803436325
8803444992
8803452621
8803460922
8803468307
8803474350
8803481003
8803490341
8803498581
8803508041
8803516281
8803522445
8803531784
8803539230
8803547897
8803555893
8803565414
8803573043
8803580978
8803589950
8803597213
8803604537
8803611862
8803620590
8803627487
8803634445
8803640670
8803650008
8803656112
8803663436
8803671798
8803677413
8803686385
8803691878
8803701278
8803706710
8803712752
8803722274
8803730147
8803734847
8803743575
8803750716
8803760360
8803766280
8803774947
8803783553
8803789473
8803796859
8803803573
8803811446
8803818343
8803824874
8803832320
8803840255
8803847579
8803854048
8803861373
8803869979
8803877669
8803884627
8803891951
8803897933
8803905989
8803914412
8803922713
8803929122
8803936995
8803944747
8803954695
8803962141
8803970442
8803977889
8803984969
8803993086
8804000777
8804009444
8804053206
8804062300
8804068892
8804076521
8804083357
8804090803
8804099470
8804104414
8804114241
8804119795
8804130049
8804135420
8804146101
8804150740
8804160932
8804168318
8804176741
8804183882
8804192976
8804199323
8804207014
8804215620
8804220991
8804229475
8804236860
8804244734
8804250105
8804256635
8804262006
8804268842
8804273847
8804280866
8804286787
8804294843
8804300642
8804308332
8804315900
8804323408
8804329755
8804335126
8804343793
8804351484
8804357282
8804362653
8804370344
8804375348
8804382795
8804387433
8804395002
8804401899
8804407392
8804413556
8804420636
8804425458
8804432416
8804439191
8804445172
8804450544
8804458600
8804463300
8804469770
8804474835
8804481244
8804487226
8804493634
8804499188
8804503400
8804510297
8804516339
8804521710
8804528546
8804534161
8804540204
8804547101
8804552472
8804558881
8804564191
8804570538
8804575482
8804582074
8804588605
8804594220
8804599713
8804606427
8804611920
8804616254
8804622845
8804629803
8804636578
8804641339
8804648419
8804654156
8804659222
8804665204
8804672101
8804677105
8804683819
8804690777
8804695355
8804701275
8804707928
8804714215
8804720562
8804728131
8804733990
8804739788
8804745831
8804751568
8804756939
8804764324
8804770611
8804777325
8804782574
8804789288
8804793987
8804801190
8804807537
8804815167
8804821514
8804829388
8804836346
8804841900
8804849102
8804854229
8804862347
8804869671
8804877361
8804884991
8804891643
8804897625
8804906231
8804912945
8804918682
8804928509
8804933758
8804942119
8804947491
8804955608
8804962200
8804968853
8804976360
8804982708
8804989910
8804996135
8805003277
8805009502
8805015606
8805023418
8805029277
8805035625
8805043254
8805048992
8805054424
8805062175
8805068828
8805074565
8805082744
8805088481
8805094951
8805102092
8805108257
8805114055
8805121623
8805127605
8805133708
8805140910
8805145793
8805152507
8805159526
8805164104
8805171672
8805178874
8805184673
8805191264
8805197734
8805203899
8805211528
8805218486
8805225627
8805233073
8805237895
8805243693
8805250041
8805256389
8805260783
8805268168
8805275920
8805281962
8805288615
8805295817
8805301188
8805307902
8805314067
8805320170
8805326030
8805333964
8805340739
8805346843
8805352580
8805357524
8805364482
8805373088
8805379008
8805384684
8805391825
8805397257
8805404582
8805410563
8805416178
8805423197
8805430155
8805435038
8805441630
8805447428
8805454142
8805459879
8805465556
8805472025
8805479044
8805485148
8805489481
8805495097
8805502055
8805509501
8805521158
8805530924
8805537638
8805544901
8805552469
8805558390
8805564310
8805572001
8805577128
8805585795
8805590616
8805598734
8805603617
8805613016
8805618876
8805623392
8805631083
8805638346
8805644388
8805650064
8805656107
8805663736
8805671732
8805676554
8805684183
8805690470
8805696268
8805702188
8805709574
8805717874
8805723795
8805731546
8805739725
8805746805
8805755045
8805762186
8805769083
8805777567
8805786172
8805793191
8805800577
8805807901
8805817361
8805822793
8805829019
8805838113
8805845560
8805852334
8805859842
8805867349
8805874856
8805883279
8805890847
8805896402
8805905008
8805911905
8805922158
8805931436
8805939859
8805944863
8805954263
8805962930
8805968972
8805975991
8805982705
8805991311
8805997964
8806005471
8806012368
8806019875
8806026711
8806034036
8806041604
8806045571
8806057168
8806064004
8806071389
8806077126
8806084634
8806090554
8806099343
8806105508
8806113564
8806122842
8806128396
8806137917
8806145547
8806152993
8806159157
8806167275
8806176735
8806184914
8806192605
8806202004
8806209511
8806217995
8806227150
8806233437
8806241799
8806253395
8806260659
8806268471
8806274819
8806284523
8806291054
8806298439
8806305641
8806315834
8806322426
8806329933
8806336830
8806344215
8806350624
8806357887
8806365761
8806373268
8806379127
8806387367
8806394997
8806400307
8806409096
8806414955
8806423744
8806431312
8806438209
8806444435
8806453895
8806458778
8806466102
8806474708
8806482277
8806489113
8806496376
8806504005
8806511390
8806517860
8806525428
8806531105
8806539283
8806547523
8806555030
8806561012
8806567909
8806576515
8806581642
8806590492
8806597206
8806606361
8806612525
8806619422
8806627906
8806635230
8806641456
8806649513
8806659095
8806667335
8806676368
8806682349
8806688941
8806699073
8806705604
8806714759
8806721229
8806728919
8806736671
8806745460
8806752845
8806761268
8806768775
8806775794
8806783790
8806791480
8806799537
8806806800
8806814734
8806821265
8806830542
8806837012
8806845862
8806853369
8806861609
8806869177
8806877905
8806885413
8806893103
8806901282
8806909400
8806917517
8806924658
8806932898
8806939856
8806948096
8806956763
8806961768
8806971350
8806979834
8806987280
8806996435
8807007910
8807017920
8807028967
8807036352
8807048437
8807057776
8807065893
8807075659
8807083960
8807091162
8807097265
8807104223
8807110693
8807116796
8807123205
8807128942
8807136084
8807142553
8807148840
8807155004
8807161901
8807167211
8807174352
8807179724
8807187841
8807194006
8807200903
8807206213
8807213659
8807217931
8807228491
8807235082
8807242345
8807249242
8807254247
8807261572
8807266759
8807274206
8807281835
8807289526
8807293676
8807300939
8807306982
8807313451
8807317357
8807324987
8807333837
8807340246
8807346166
8807350988
8807358190
8807363134
8807371129
8807378698
8807383336
8807389745
8807396459
8807402684
8807407567
8807415746
8807422704
8807428197
8807434362
8807441259
8807447362
8807451757
8807459447
8807463658
8807471166
8807476232
8807482701
8807488683
8807493505
8807498692
8807504918
8807512669
8807517980
8807524754
8807529088
8807535558
8807540746
8807548253
8807553868
8807559911
8807566502
8807572240
8807576878
8807582494
8807589452
8807595677
8807600194
8807607884
8807612828
8807618748
8807626073
8807632237
8807638524
8807646641
8807653233
8807658787
8807664525
8807672276
8807677037
8807684422
8807690770
8807697300
8807702977
8807708836
8807713353
8807719944
8807726292
8807733128
8807740025
8807745579
8807752903
8807758091
8807764622
8807769688
8807776646
8807782627
8807788853
8807795994
8807800511
8807806980
8807811375
8807819859
8807825779
8807833286
8807838718
8807846592
8807852695
8807858189
8807865635
8807871311
8807878086
8807885166
8807889927
8807896580
8807903171
8807908481
8807914280
8807921299
8807926426
8807933750
8807939060
8807945652
8807951999
8807956638
8807962436
8807970188
8807977268
8807984165
8807990146
8807996189
8808001926
8808008701
8808014499
8808021701
8808029148
8808034946
8808041477
8808047336
8808054843
8808061740
8808070224
8808077365
8808085300
8808089877
8808097568
8808104038
8808109897
8808116000
8808123386
8808129489
8808136874
8808142917
8808150058
8808157504
8808164951
8808171115
8808178195
8808183749
8808190524
8808197482
8808202792
8808210788
8808216037
8808226047
8808232821
8808240329
8808247348
8808254428
8808261386
8808268100
8808274875
8808282870
8808289279
8808294711
8808301120
8808308078
8808314303
8808320468
8808328219
8808334506
8808340792
8808348056
8808353793
8808360324
8808366610
8808373202
8808381075
8808386508
8808394259
8808400668
8808406466
8808413241
8808418917
8808425814
8808433199
8808439547
8808445223
8808452181
8808457796
8808464510
8808470248
8808476778
8808483858
8808488863
8808496004
8808502596
8808508333
8808515414
8808521334
8808527315
8808534640
8808540133
8808547518
8808554842
8808559908
8808566744
8808575106
8808582796
8808587557
8808595491
8808602694
8808609652
8808615633
8808621675
8808631685
8808639254
8808647127
8808651888
8808660494
8808668550
8808678255
8808685518
8808694368
8808699922
8808708101
8808713838
8808722200
8808729341
8808737886
8808745088
8808751985
8808757417
8808766817
8808773775
8808780489
8808787080
8808794832
8808802400
8808811861
8808818086
8808825532
8808832918
8808840303
8808847261
8808854646
8808860750
8808870027
8808876375
8808885408
8808893281
8808901155
8808907563
8808915010
8808921174
8808928620
8808938264
8808945283
8808955232
8808969636
8808975312
8808983735
8808990266
8808997895
8809003022
8809010224
8809016511
8809023774
8809030061
8809037141
8809044221
8809050202
8809059418
8809065461
8809073029
8809079865
8809087922
8809094514
8809102753
8809109711
8809119416
8809126130
8809131745
8809141144
8809146027
8809155365
8809160798
8809168183
8809177155
8809184357
8809190888
8809198456
8809206757
8809212189
8809220734
8809228119
8809234467
8809242951
8809248810
8809256623
8809263336
8809270600
8809279328
8809284332
8809294159
8809301666
8809308930
8809316193
8809324738
8809331146
8809338104
8809344391
8809353973
8809359894
8809369720
8809376678
8809384003
8809391754
8809399872
8809407013
8809415253
8809422027
8809430389
8809436981
8809444793
8809454193
8809460907
8809468536
8809475921
8809484039
8809490997
8809501190
8809507782
8809515838
8809524993
8809531402
8809538177
8809547760
8809554962
8809562164
8809571624
8809578582
8809588165
8809595001
8809602508
8809609466
8809617828
8809627105
8809635223
8809641692
8809649993
8809656402
8809666106
8809672454
8809680572
8809691009
8809697112
8809707000
8809714873
8809723357
8809732818
8809740752
8809748137
8809756316
8809763762
8809773711
8809779815
8809787322
8809794341
8809802581
8809810820
8809816436
8809825408
8809833098
8809838896
8809847808
8809855742
8809860320
8809869109
8809875945
8809885710
8809891692
8809900481
8809906462
8809915007
8809921782
8809928435
8809937041
8809943877
8809950102
8809957671
8809964873
8809972258
8809980192
8809987578
8809991667
8810001005
8810010649
8810018095
8810025114
8810032561
8810038481
8810046782
8810055266
8810060087
8810068754
8810076323
8810083952
8810091887
8810098112
8810106596
8810113981
8810122953
8810130522
8810139311
8810146696
8810152433
8810162748
8810167082
8810177580
8810184660
8810192899
8810200102
8810209562
8810216276
8810223600
8810233305
8810241117
8810248502
8810254179
8810264371
8810270353
8810280790
8810286832
8810295194
8810303312
8810311551
8810316068
8810326139
8810332364
8810339261
8810347623
8810355008
8810362760
8810367215
8810374601
8810380765
8810391141
8810398709
8810404813
8810410367
8810416227
8810423429
8810428556
8810436368
8810441251
8810448148
8810454923
8810460233
8810468717
8810475247
8810481900
8810496488
8810501553
8810509732
8810517667
8810524869
8810531216
8810536221
8810544400
8810548672
8810555325
8810561246
8810566800
8810572781
8810579739
8810584378
8810591153
8810595669
8810602566
8810607449
8810614407
8810620022
8810626492
8810631924
8810638333
8810643460
8810649868
8810655911
8810660305
8810667996
8810673123
8810679532
8810686612
8810692166
8810698025
8810703335
8810708889
8810715725
8810719754
8810726284
8810731594
8810737454
8810741543
8810747341
8810752590
8810759182
8810765042
8810770840
8810775845
8810781765
8810787075
8810793057
8810798367
8810803982
8810811001
8810816311
8810822475
8810827663
8810833828
8810839809
8810844509
8810852016
8810856350
8810863613
8810868679
8810873928
8810879787
8810884975
8810891018
8810897854
8810904873
8810910183
8810915615
8810922329
8810927883
8810935451
8810942348
8810950161
8810956630
8810963894
8810970668
8810977077
8810985256
8810991359
8810997097
8811004482
8811010707
8811017849
8811023830
8811030117
8811038234
8811044887
8811051418
8811059108
8811066005
8811071864
8811080531
8811088710
8811094753
8811100673
8811108363
8811114223
8811119777
8811126857
8811132472
8811139735
8811145351
8811153529
8811159084
8811166164
8811171718
8811177638
8811185023
8811190639
8811197841
8811203334
8811210475
8811215968
8811223109
8811228969
8811236415
8811243373
8811249720
8811256495
8811261439
8811267299
8811274379
8811279933
8811288050
8811295008
8811301844
8811308009
8811314418
8811320643
8811327174
8811333460
8811338526
8811347010
8811352748
8811358912
8811365443
8811371729
8811378382
8811384730
8811391261
8811398768
8811404261
8811410548
8811417628
8811423853
8811429591
8811437708
8811445094
8811450709
8811457362
8811463099
8811468958
8811476832
8811483729
8811491236
8811496973
8811504114
8811509180
8811516382
8811523218
8811529871
8811536768
8811542383
8811549769
8811557642
8811564112
8811570215
8811576380
8811583521
8811589869
8811596399
8811603540
8811608301
8811615686
8811621668
8811630152
8811636072
8811645471
8811653955
8811659571
8811666834
8811676233
8811683008
8811690210
8811698572
8811707910
8811719324
8811731714
8811738977
8811745996
8811751550
8811759058
8811767663
8811774560
8811781641
8811787317
8811795434
8811800928
8811808801
8811815332
8811822168
8811829309
8811837121
8811843347
8811849511
8811857324
8811863488
8811870752
8811877160
8811883264
8811892053
8811899377
8811906091
8811912072
8811921472
8811928186
8811935632
8811943017
8811950402
8811958215
8811965661
8811973168
8811978600
8811984521
8811993737
8812002709
8812010033
8812016808
8812024194
8812030175
8812039758
8812045556
8812051537
8812060937
8812069970
8812076195
8812084252
8812090844
8812097558
8812106164
8812112755
8812119774
8812128563
8812135460
8812141930
8812149376
8812156029
8812163475
8812169518
8812178917
8812184777
8812192772
8812198571
8812207604
8812215355
8812221031
8812230858
8812237084
8812245934
8812251793
8812260521
8812265831
8812275170
8812282189
8812289147
8812295067
8812304283
8812312950
8812319664
8812326012
8812333641
8812341576
8812349510
8812353599
8812363792
8812371055
8812381370
8812387596
8812394737
8812404503
8812411644
8812421348
8812427879
8812438133
8812445091
8812454551
8812462303
8812470787
8812477989
8812489036
8812497215
8812504966
8812511680
8812523094
8812529991
8812536827
8812543968
8812550804
8812557578
8812565757
8812572044
8812581382
8812587730
8812595054
8812602195
8812609458
8812616782
8812624290
8812631126
8812638633
8812644187
8812651939
8812660850
8812668296
8812674216
8812680625
8812689414
8812695151
8812703940
8812711814
8812718528
8812725425
8812732383
8812738852
8812748252
8812754294
8812761618
8812769248
8812776816
8812783286
8812790610
8812796469
8812805320
8812813620
8812821128
8812827353
8812833762
8812843344
8812850974
8812858298
8812864646
8812875266
8812883811
8812891196
8812896933
8812907309
8812913168
8812921286
8812927512
8812936667
8812945517
8812953696
8812960043
8812968832
8812977377
8812983053
8812992636
8813000387
8813007956
8813016623
8813023947
8813029379
8813039755
8813046286
8813054525
8813061483
8813069784
8813077108
8813084311
8813094137
8813101828
8813109091
8813115316
8813125448
8813131246
8813139608
8813148458
8813156576
8813163595
8813172262
8813178793
8813187460
8813193868
8813201620
8813209066
8813217611
8813226766
8813233541
8813241537
8813250021
8813258504
8813266988
8813275411
8813284505
8813293783
8813308858
8813316793
8813325399
8813332784
8813340230
8813346334
8813354512
8813362508
8813370137
8813376058
8813382222
8813391011
8813398641
8813408162
8813414388
8813421102
8813429708
8813436177
8813443501
8813449849
8813455892
8813462666
8813470540
8813475545
8813482015
8813487447
8813494222
8813499593
8813506856
8813512471
8813519612
8813525227
8813531636
8813539021
8813543904
8813550679
8813555562
8813562520
8813569966
8813574910
8813581990
8813588338
8813594197
8813600300
8813607014
8813612629
8813620442
8813626057
8813635090
8813641011
8813647053
8813653523
8813659565
8813663105
8813672505
8813677937
8813683796
8813690205
8813696125
8813702046
8813709309
8813714253
8813721394
8813727192
8813731892
8813739948
8813745136
8813750141
8813756062
8813762776
8813767903
8813773823
8813778889
8813784748
8813788166
8813794392
8813800617
8813806965
8813812214
8813817951
8813823139
8813828144
8813835346
8813842060
8813848164
8813852924
8813858784
8813864521
8813869892
8813875385
8813882709
8813890339
8813896381
8813903522
8813915058
8813927448
8813934711
8813940571
8813946857
8813952167
8813958454
8813963764
8813970172
8813987445
8813991901
8813998493
8814004352
8814009540
8814016986
8814023883
8814028400
8814035175
8814041156
8814046466
8814053119
8814058612
8814064716
8814071918
8814076495
8814083148
8814088764
8814095477
8814100909
8814107990
8814114948
8814119769
8814125079
8814131793
8814138446
8814142902
8814149615
8814156879
8814162982
8814168170
8814176349
8814184833
8814190936
8814197772
8814205523
8814211627
8814217303
8814224872
8814231036
8814236651
8814243609
8814249713
8814257525
8814262652
8814270098
8814277056
8814283221
8814289508
8814295550
8814302386
8814308428
8814315325
8814322528
8814327471
8814334490
8814340594
8814349261
8814355792
8814363055
8814368914
8814375811
8814381854
8814388689
8814394488
8814402483
8814409197
8814415057
8814421343
8814427264
8814433001
8814440691
8814446062
8814453631
8814459734
8814465472
8814473833
8814479571
8814485003
8814493365
8814499224
8814514544
8814519732
8814527605
8814536150
8814542803
8814547869
8814556108
8814561113
8814568804
8814573870
8814581743
8814588335
8814594561
8814602312
8814610002
8814614885
8814621172
8814628496
8814634722
8814642351
8814648821
8814654192
8814662493
8814667314
8814675127
8814680437
8814688249
8814692583
8814700700
8814706560
8814714677
8814720964
8814726701
8814734331
8814739824
8814746843
8814752885
8814760149
8814768083
8814774919
8814781206
8814786760
8814794938
8814799760
8814808183
8814815446
8814823625
8814829912
8814837846
8814844865
8814851030
8814858293
8814865312
8814873368
8814880265
8814888993
8814896012
8814901506
8814910844
8814917375
8814924943
8814932206
8814939836
8814946732
8814954606
8814960404
8814969193
8814975175
8814984086
8814989823
8814997147
8815005875
8815012772
8815019486
8815026932
8815033707
8815042374
8815049149
8815056534
8815063309
8815070511
8815077897
8815084488
8815092179
8815100663
8815108170
8815115555
8815124894
8815132096
8815139481
8815146683
8815152237
8815157975
8815168106
8815174149
8815180680
8815189835
8815199234
8815205643
8815214493
8815220841
8815229264
8815239700
8815248184
8815255631
8815263260
8815269791
8815280716
8815288345
8815292862
8815300674
8815307449
8815315323
8815321487
8815330276
8815335892
8815344498
8815352310
8815359207
8815365433
8815374771
8815380569
8815387955
8815394607
8815402420
8815409378
8815418716
8815426590
8815434219
8815441360
8815448990
8815455703
8815463089
8815469131
8815477676
8815483840
8815491531
8815500137
8815505752
8815514602
8815522293
8815529128
8815536270
8815545059
8815552444
8815559402
8815565383
8815572891
8815580459
8815587844
8815595107
8815602676
8815609634
8815617263
8815625869
8815634170
8815642165
8815647536
8815657119
8815665786
8815673049
8815682143
8815692031
8815699172
8815706679
8815713942
8815721816
8815729873
8815738051
8815746230
8815754470
8815762221
8815768203
8815774855
8815784804
8815791335
8815797988
8815807936
8815814406
8815824050
8815832594
8815840285
8815848097
8815855483
8815863173
8815871535
8815875990
8815886855
8815896376
8815902357
8815908949
8815919020
8815925490
8815933058
8815942946
8815950148
8815957594
8815965407
8815972853
8815980177
8815989454
8815997023
8816005873
8816013014
8816028700
8816036146
8816046217
8816052076
8816061964
8816069593
8816076979
8816085218
8816092298
8816098463
8816107862
8816113172
8816120741
8816127760
8816137220
8816144727
8816152235
8816159681
8816167432
8816173231
8816180799
8816189405
8816195142
8816201185
8816210279
8816216444
8816224012
8816233045
8816238172
8816246839
8816254346
8816261182
8816269117
8816277845
8816283277
8816290723
8816298353
8816305982
8816313978
8816322339
8816329602
8816336988
8816346509
8816351941
8816361463
8816367200
8816375318
8816383130
8816389051
8816399060
8816405042
8816413281
8816421155
8816426648
8816435254
8816442090
8816449536
8816458020
8816465405
8816472913
8816481213
8816488293
8816496533
8816504163
8816512341
8816521313
8816529431
8816537244
8816542615
8816552258
8816559827
8816566662
8816573865
8816580395
8816587597
8816594861
8816601269
8816607068
8816613659
8816619214
8816626172
8816633313
8816639721
8816645886
8816650097
8816657055
8816662732
8816669812
8816674633
8816682324
8816690136
8816694775
8816702404
8816707653
8816713391
8816720715
8816726696
8816737194
8816743603
8816749584
8816756420
8816763134
8816769238
8816776379
8816782787
8816790722
8816796215
8816804211
8816810375
8816815441
8816822338
8816828136
8816832592
8816838879
8816845653
8816851330
8816856762
8816862560
8816868175
8816874157
8816879833
8816885937
8816892772
8816897289
8816904186
8816909069
8816916637
8816922558
8816929149
8816934642
8816939586
8816945385
8816952526
8816958385
8816964244
8816970104
8816974498
8816981823
8816988048
8816993480
8816999828
8817005321
8817011608
8817018505
8817023204
8817030651
8817035594
8817042735
8817048351
8817055003
8817060619
8817067272
8817072398
8817079112
8817084300
8817091014
8817095714
8817103526
8817111461
8817117015
8817124400
8817129466
8817137401
8817144054
8817149974
8817156077
8817163646
8817170970
8817175609
8817182445
8817187571
8817196544
8817204417
8817211863
8817217967
8817224742
8817230540
8817237925
8817245250
8817250132
8817258372
8817264109
8817272105
8817277964
8817284068
8817289683
8817297740
8817303416
8817310496
8817316844
8817321604
8817329356
8817336192
8817343394
8817349253
8817360850
8817367686
8817381419
8817388682
8817396861
8817403513
8817409922
8817415781
8817423167
8817427744
8817435374
8817442026
8817449229
8817454905
8817461985
8817467417
8817474192
8817480295
8817486277
8817491404
8817497446
8817505747
8817510813
8817517588
8817522409
8817530405
8817534922
8817541269
8817549326
8817555674
8817562754
8817569040
8817577036
8817583017
8817593149
8817601633
8817607736
8817613291
8817620981
8817626169
8817634165
8817640329
8817647897
8817654245
8817661447
8817667246
8817672678
8817680307
8817685434
8817692148
8817701303
8817706857
8817712595
8817720468
8817726938
8817733163
8817740182
8817748544
8817755807
8817763925
8817769845
8817778207
8817784189
8817790597
8817797983
8817806405
8817812448
8817820382
8817826425
8817834542
8817841134
8817847299
8817854440
8817862680
8817868295
8817876474
8817883432
8817889596
8817895028
8817903756
8817910592
8817917123
8817923776
8817932870
8817940438
8817947640
8817953744
8817961251
8817969613
8817977181
8817986214
8817993661
8818000191
8818010079
8818016610
8818024789
8818031563
8818039559
8818054207
8818060006
8818066964
8818075570
8818083077
8818088448
8818095162
8818103402
8818111214
8818116585
8818122628
8818130684
8818136300
8818144844
8818151802
8818158211
8818165657
8818173714
8818180672
8818187264
8818192879
8818202339
8818207833
8818218025
8818226021
8818232857
8818240425
8818247322
8818253731
8818261238
8818267830
8818275398
8818283821
8818291145
8818296944
8818304939
8818310738
8818320564
8818326301
8818334236
8818343208
8818350960
8818356758
8818363411
8818372322
8818379707
8818386543
8818392341
8818399849
8818403816
8818415718
8818422981
8818430488
8818436836
8818444343
8818450935
8818458564
8818467964
8818475410
8818481269
8818490547
8818496406
8818502510
8818511238
8818518073
8818525703
8818533210
8818541999
8818548652
8818555793
8818564643
8818572150
8818576484
8818587043
8818595405
8818603583
8818609992
8818619086
8818625678
8818633979
8818643378
8818648749
8818658515
8818666389
8818673835
8818682380
8818690375
8818696967
8818705512
8818713202
8818721686
8818728705
8818737067
8818743720
8818752326
8818761969
8818768500
8818777289
8818784430
8818795172
8818806769
8818813483
8818822577
8818831427
8818836981
8818847296
8818854865
8818864081
8818869330
8818878180
8818884344
8818893317
8818898383
8818907721
8818912909
8818922491
8818930121
8818936835
8818943304
8818950934
8818957281
8818964667
8818972601
8818980353
8818986517
8818995123
8819000921
8819008551
8819017828
8819025641
8819034552
8819042547
8819048529
8819055304
8819063970
8819071356
8819078009
8819084478
8819093756
8819101385
8819108526
8819116277
8819123785
8819130804
8819138189
8819147039
8819154424
8819161443
8819168951
8819175420
8819183050
8819190069
8819199468
8819206182
8819214300
8819221685
8819230535
8819238103
8819246099
8819253545
8819260686
8819268926
8819277593
8819285833
8819292608
8819300969
8819307622
8819317449
8819324163
8819334172
8819340642
8819347722
8819357732
8819365422
8819373235
8819379521
8819389897
8819396550
8819404729
8819412480
8819420659
8819427251
8819435613
8819442510
8819450993
8819460515
8819466008
8819475896
8819483281
8819490544
8819499455
8819507146
8819513493
8819521855
8819530400
8819538518
8819542851
8819553227
8819559697
8819567570
8819577458
8819589482
8819598088
8819606572
8819614140
8819622624
8819630009
8819640263
8819647160
8819655094
8819664494
8819672917
8819679997
8819687321
8819696476
8819701359
8819711247
8819718388
8819725407
8819732548
8819740055
8819748539
8819755741
8819762455
8819769169
8819775761
8819782291
8819788395
8819796574
8819802372
8819808353
8819814152
8819821842
8819828678
8819834293
8819839542
8819847111
8819852543
8819858585
8819865299
8819870975
8819877811
8819883243
8819890201
8819895817
8819901432
8819908939
8819914066
8819921878
8819928592
8819933963
8819941166
8819946781
8819953617
8819959232
8819966251
8819971866
8819977603
8819984561
8819990238
8819997318
8820003055
8820010013
8820014957
8820022220
8820029849
8820036014
8820042911
8820048282
8820054019
8820060428
8820065921
8820072025
8820079166
8820085208
8820090152
8820096561
8820102847
8820107913
8820114261
8820120364
8820124698
8820132205
8820136539
8820143741
8820148074
8820155826
8820161624
8820167056
8820172488
8820179324
8820184512
8820190921
8820195742
8820206057
8820211123
8820217227
8820224429
8820229617
8820237246
8820243716
8820249026
8820260745
8820268191
8820275637
8820282107
8820289675
8820296023
8820301821
8820309329
8820315493
8820320742
8820326663
8820333926
8820339724
8820346499
8820352114
8820358706
8820363223
8820370242
8820375979
8820383181
8820390200
8820395022
8820403078
8820407900
8820415102
8820421633
8820427920
8820432802
8820438906
8820446230
8820454104
8820459109
8820465944
8820470888
8820478945
8820483889
8820491762
8820497255
8820506472
8820513124
8820519350
8820525515
8820531862
8820538027
8820544252
8820551943
8820558046
8820564638
8820571901
8820576906
8820583620
8820590090
8820597170
8820603212
8820610231
8820616335
8820621950
8820629213
8820636049
8820646425
8820655519
8820663087
8820669374
8820675356
8820683473
8820690187
8820696046
8820703798
8820709474
8820716249
8820721803
8820729188
8820734743
8820740541
8820748109
8820758363
8820765199
8820771425
8820776979
8820782777
8820788453
8820795900
8820803407
8820810792
8820816835
8820822267
8820830079
8820834535
8820841127
8820850038
8820863404
8820872621
8820883241
8820899110
8820909547
8820920411
8820930299
8820937013
8820944520
8820951600
8820956483
8820963868
8820971680
8820977784
8820984193
8820990662
8820998475
8821005860
8821011597
8821019166
8821025452
8821032654
8821039551
8821044373
8821050660
8821057984
8821065491
8821072144
8821079468
8821086182
8821093262
8821099732
8821105286
8821113343
8821120789
8821127686
8821135010
8821141968
8821147339
8821157654
8821163452
8821174134
8821179627
8821187866
8821193848
8821202332
8821208740
8821216553
8821221863
8821230652
8821236878
8821244324
8821252686
8821258484
8821265442
8821272278
8821279175
8821287903
8821293274
8821300781
8821307556
8821312927
8821320373
8821325867
8821334472
8821340454
8821349670
8821355896
8821363281
8821371643
8821375793
8821383911
8821389831
8821398559
8821405212
8821413757
8821419189
8821427551
8821432922
8821440918
8821445556
8821454895
8821462829
8821469604
8821476928
8821483215
8821488952
8821495849
8821503967
8821511413
8821517577
8821526855
8821533630
8821538879
8821544616
8821556396
8821564025
8821573180
8821581786
8821591857
8821601012
8821610595
8821619262
8821627196
8821635131
8821643859
8821650817
8821657592
8821664611
8821671386
8821678527
8821685424
8821692992
8821700560
8821708068
8821717040
8821724852
8821732177
8821740355
8821748839
8821756407
8821763060
8821770384
8821777159
8821784545
8821790404
8821798522
8821804442
8821814208
8821819518
8821828795
8821836119
8821843077
8821848875
8821856566
8821864439
8821870055
8821879698
8821885069
8821893431
8821900694
8821909483
8821915221
8821924071
8821931151
8821938109
8821943663
8821953001
8821960325
8821967955
8821975462
8821982847
8821989744
8821997374
8822005552
8822013243
8822021177
8822028563
8822034544
8822042295
8822048521
8822056333
8822066282
8822073728
8822080931
8822089659
8822097166
8822106077
8822113584
8822121458
8822129820
8822139219
8822147154
8822153318
8822161008
8822167905
8822176267
8822182798
8822190977
8822201536
8822208616
8822216001
8822223752
8822231138
8822240659
8822248166
8822255063
8822265378
8822271177
8822281369
8822288450
8822296933
8822303647
8822311826
8822318540
8822327756
8822334348
8822341977
8822352231
8822360471
8822368283
8822375180
8822384152
8822393918
8822402707
8822409909
8822420468
8822429807
8822436215
8822443662
8822452512
8822459409
8822469601
8822478085
8822484128
8822492184
8822501218
8822506283
8822515378
8822522885
8822530148
8822539486
8822546444
8822554074
8822560849
8822567257
8822574826
8822581845
8822591488
8822599240
8822606869
8822614621
8822622433
8822629513
8822637020
8822640988
8822650387
8822659664
8822667416
8822674618
8822682369
8822688290
8822696835
8822703060
8822710507
8822719906
8822728268
8822734310
8822741573
8822748470
8822756405
8822763424
8822772091
8822779964
8822788082
8822796444
8822804195
8822812618
8822820309
8822826351
8822835140
8822843502
8822850399
8822858272
8822867733
8822873775
8822883602
8822890987
8822898311
8822905208
8822913265
8822921749
8822929317
8822935421
8822942806
8822949398
8822955989
8822963069
8822969173
8822975337
8822981258
8822987239
8822993404
8822998897
8823006770
8823013667
8823019283
8823025508
8823032588
8823039729
8823044490
8823050105
8823057124
8823062862
8823069942
8823076472
8823083369
8823089351
8823095943
8823101741
8823108089
8823115901
8823123042
8823130000
8823135982
8823144221
8823150630
8823158992
8823165156
8823172908
8823179377
8823185298
8823190852
8823195430
8823201716
8823207820
8823213252
8823219966
8823226252
8823232600
8823237727
8823243464
8823249873
8823255427
8823262141
8823268366
8823272822
8823280451
8823286250
8823291865
8823297968
8823303462
8823310114
8823315669
8823321406
8823328303
8823332636
8823339472
8823344172
8823351435
8823356867
8823363215
8823367731
8823374262
8823379633
8823386347
8823393671
8823398188
8823406672
8823412470
8823418452
8823425226
8823430964
8823433954
8823442927
8823450129
8823455439
8823462397
8823467646
8823473444
8823480280
8823487970
8823493097
8823501642
8823506586
8823513239
8823519709
8823526056
8823532465
8823539545
8823546442
8823552729
8823557611
8823565119
8823571710
8823577875
8823585199
8823591608
8823598871
8823605097
8823611017
8823618890
8823625787
8823631525
8823638849
8823644830
8823650934
8823658197
8823665643
8823670526
8823677850
8823685297
8823691522
8823698785
8823704462
8823711542
8823719720
8823724176
8823732355
8823739313
8823747674
8823755426
8823766961
8823772088
8823780877
8823786004
8823794000
8823799920
8823808709
8823814935
8823822747
8823827630
8823835626
8823840570
8823848443
8823854608
8823861810
8823867730
8823874932
8823880303
8823887444
8823893243
8823900567
8823905877
8823913079
8823920220
8823926873
8823933465
8823938470
8823944268
8823951531
8823958794
8823963738
8823971612
8823976617
8823985467
8823990411
8823996758
8824004754
8824010918
8824017998
8824024224
8824031365
8824037652
8824043328
8824051201
8824058404
8824065484
8824072014
8824076836
8824084893
8824089714
8824098076
8824105584
8824112603
8824116204
8824125359
8824131462
8824139580
8824147332
8824153679
8824160393
8824168267
8824175896
8824181450
8824190605
8824197685
8824204033
8824211479
8824218315
8824224785
8824231560
8824240227
8824246696
8824254875
8824261772
8824267937
8824276665
8824282646
8824291252
8824297905
8824306389
8824314323
8824322319
8824329887
8824335624
8824344230
8824349968
8824357597
8824363579
8824373588
8824381157
8824390922
8824399101
8824406486
8824413688
8824424736
8824430778
8824440849
8824449089
8824457206
8824463737
8824469963
8824476554
8824483634
8824490104
8824498771
8824506217
8824512382
8824520072
8824526420
8824531974
8824540580
8824546989
8824553825
8824560294
8824570121
8824577018
8824584586
8824591056
8824598563
8824606376
8824613761
8824620048
8824628287
8824634391
8824643119
8824650992
8824657096
8824665824
8824673392
8824679618
8824687980
8824694693
8824702689
8824709525
8824716666
8824723563
8824729544
8824739310
8824747000
8824753836
8824760367
8824769705
8824776785
8824783927
8824789542
8824799368
8824805533
8824812918
8824821219
8824828787
8824835013
8824842520
8824850455
8824858023
8824864188
8824872244
8824880545
8824885123
8824894034
8824900625
8824909415
8824915152
8824924185
8824932058
8824939078
8824946341
8824955435
8824963125
8824970450
8824979727
8824987906
8824994253
8825004995
8825010916
8825018423
8825025869
8825033438
8825039297
8825045828
8825053579
8825064199
8825070974
8825079824
8825085684
8825093374
8825100515
8825108206
8825115957
8825124685
8825131948
8825140188
8825150564
8825160879
8825168020
8825177846
8825194143
8825202627
8825211111
8825219533
8825227346
8825234914
8825242299
8825247182
8825256887
8825265188
8825272878
8825278737
8825286611
8825294423
8825302053
8825308461
8825315602
8825324330
8825331777
8825338674
8825345632
8825354482
8825362050
8825369191
8825377065
8825384023
8825392507
8825399465
8825405507
8825415273
8825422658
8825429616
8825436086
8825445546
8825450673
8825460316
8825466786
8825474538
8825482472
8825488026
8825496998
8825504445
8825511098
8825518544
8825527150
8825534901
8825541127
8825547352
8825558339
8825566029
8825575489
8825581044
8825590321
8825597401
8825606739
8825612477
8825623036
8825631153
8825637867
8825645314
8825654835
8825662892
8825669361
8825678333
8825685169
8825692921
8825702381
8825711048
8825717213
8825725636
8825731983
8825741138
8825749805
8825758106
8825767078
8825775501
8825783741
8825792042
8825800464
8825809620
8825819935
8825827320
8825835926
8825844043
8825849964
8825858753
8825864551
8825872303
8825881824
8825888050
8825897510
8825904224
8825911182
8825917163
8825924671
8825936939
8825943592
8825953723
8825960925
8825970691
8825980762
8825990344
8825998950
8826009937
8826018420
8826025439
8826031360
8826040942
8826047473
8826054980
8826062549
8826069690
8826075610
8826082263
8826088794
8826096606
8826102222
8826108142
8826114795
8826122973
8826128589
8826135302
8826141345
8826147143
8826153613
8826160693
8826166125
8826173266
8826180957
8826185839
8826192797
8826197619
8826204943
8826212512
8826218676
8826225146
8826231005
8826235644
8826244372
8826249133
8826256518
8826261584
8826269335
8826274584
8826281664
8826287463
8826294421
8826299731
8826306628
8826312365
8826317858
8826323779
8826330737
8826338244
8826343493
8826349047
8826355273
8826360888
8826365588
8826373644
8826379137
8826386339
8826391833
8826398546
8826405199
8826409838
8826417834
8826422960
8826428393
8826434435
8826441210
8826445543
8826452623
8826459765
8826464708
8826470263
8826476793
8826481737
8826488207
8826495226
8826499804
8826507189
8826512621
8826518602
8826524828
8826530260
8826535814
8826543382
8826551134
8826557298
8826563829
8826570055
8826575853
8826581896
8826588365
8826596117
8826601976
8826609117
8826619676
8826625536
8826632677
8826638109
8826643907
8826650865
8826657640
8826664598
8826669359
8826676073
8826681505
8826688829
8826695604
8826702623
8826708787
8826714708
8826722642
8826727891
8826735643
8826741380
8826748765
8826754625
8826762010
8826768174
8826773790
8826781175
8826786912
8826793687
8826799485
8826805894
8826813279
8826818894
8826826097
8826832261
8826839524
8826844895
8826852098
8826858323
8826864671
8826871324
8826876206
8826883653
8826891465
8826898850
8826903855
8826911546
8826916489
8826923447
8826929307
8826936570
8826944321
8826949265
8826956956
8826963975
8826970200
8826977280
8826983384
8826992051
8826997605
8827004136
8827011399
8827016099
8827022934
8827030320
8827035264
8827043808
8827049851
8827055893
8827061081
8827068650
8827076035
8827081833
8827088364
8827095688
8827102158
8827108567
8827114609
8827120407
8827127671
8827133652
8827141098
8827146469
8827153427
8827160813
8827166062
8827174790
8827181381
8827190781
8827198227
8827207626
8827214218
8827221481
8827228867
8827235458
8827243637
8827250656
8827255783
8827263107
8827270615
8827275436
8827283188
8827288193
8827296310
8827301254
8827308822
8827317001
8827323776
8827329147
8827335129
8827343612
8827350815
8827358078
8827365036
8827372116
8827378952
8827386276
8827393173
8827401107
8827407821
8827415329
8827422592
8827428146
8827436752
8827443222
8827450179
8827456771
8827465316
8827472457
8827479476
8827484969
8827493636
8827499923
8827507430
8827514755
8827522140
8827528121
8827536910
8827544723
8827552047
8827557784
8827566329
8827574813
8827582748
8827588546
8827596175
8827604964
8827610702
8827619246
8827624923
8827635116
8827644027
8827649947
8827657027
8827665816
8827672408
8827679244
8827687423
8827694197
8827699691
8827708968
8827715132
8827722762
8827729720
8827737288
8827743086
8827752242
8827761519
8827769270
8827776289
8827783797
8827789534
8827798262
8827804121
8827811446
8827820235
8827825972
8827834639
8827840926
8827849531
8827855879
8827864241
8827870772
8827878645
8827888594
8827895125
8827905073
8827912275
8827919905
8827926497
8827935957
8827943220
8827950972
8827958784
8827966719
8827975691
8827983442
8827990950
8827997908
8828005232
8828012007
8828020552
8828026472
8828035627
8828041609
8828049970
8828055952
8828063215
8828072675
8828078596
8828087446
8828095075
8828101972
8828109602
8828116315
8828123762
8828132673
8828139753
8828148298
8828155561
8828162580
8828168561
8828176069
8828184919
8828191755
8828197919
8828207258
8828213483
8828221113
8828228742
8828236249
8828243390
8828250776
8828257123
8828264692
8828272992
8828280439
8828286298
8828293195
8828302045
8828307477
8828320172
8828328290
8828334760
8828343671
8828351117
8828358624
8828366193
8828372785
8828381024
8828390546
8828398663
8828405682
8828413861
8828420270
8828426923
8828436627
8828443890
8828453412
8828459271
8828468793
8828476727
8828484112
8828489545
8828499981
8828506573
8828514752
8828522809
8828530865
8828535382
8828545941
8828552472
8828562420
8828569012
8828576153
8828586224
8828592572
8828600872
8828608807
8828617108
8828624066
8828632305
8828641155
8828647259
8828657208
8828665142
8828671673
8828679058
8828686504
8828694683
8828702313
8828709393
8828721111
8828730328
8828737896
8828744121
8828752666
8828762798
8828771099
8828779156
8828787517
8828795208
8828803509
8828812176
8828819622
8828826885
8828834392
8828841411
8828848980
8828855022
8828863018
8828869121
8828876201
8828885173
8828893047
8828899822
8828908428
8828919414
8828926860
8828935649
8828941570
8828950420
8828958843
8828965007
8828972087
8828981181
8828988872
8828995952
8829002666
8829009685
8829017131
8829024944
8829032329
8829039958
8829047160
8829054729
8829063151
8829068889
8829076762
8829084453
8829090556
8829099284
8829105266
8829112468
8829121501
8829129252
8829138408
8829146342
8829154216
8829160502
8829167399
8829174479
8829183512
8829190959
8829197734
8829205729
8829211283
8829218791
8829225016
8829231059
8829238932
8829244670
8829251628
8829257487
8829264567
8829269694
8829276774
8829284037
8829288737
8829294413
8829301432
8829306742
8829313700
8829319376
8829327433
8829333781
8829338419
8829346354
8829350992
8829358195
8829362833
8829370280
8829375101
8829383768
8829389078
8829395243
8829402750
8829408365
8829413126
8829420572
8829427897
8829434794
8829439371
8829447001
8829453531
8829458963
8829467020
8829473856
8829480204
8829487101
8829497293
8829504251
8829508951
8829515970
8829523722
8829528604
8829534097
8829540384
8829545938
8829552835
8829558878
8829565408
8829571024
8829576761
8829582193
8829588175
8829593607
8829599832
8829605447
8829612161
8829617532
8829623209
8829628763
8829634683
8829641641
8829646829
8829654153
8829659524
8829666177
8829671365
8829678018
8829685159
8829691202
8829695901
8829702676
8829709512
8829715677
8829721658
8829727212
8829732950
8829739419
8829746866
8829753640
8829760354
8829765725
8829772805
8829778848
8829784707
8829792276
8829799295
8829805398
8829810220
8829817239
8829824990
8829831155
8829836465
8829842629
8829850381
8829856545
8829862283
8829868447
8829875771
8829881875
8829888467
8829894692
8829902200
8829908120
8829915139
8829921120
8829927468
8829934914
8829939919
8829947854
8829955117
8829962563
8829968850
8829974709
8829980935
8829986977
8829995156
8830002419
8830008095
8830014077
8830020974
8830026162
8830033547
8830039589
8830048012
8830054238
8830060036
8830066689
8830074746
8830082009
8830088173
8830097267
8830103676
8830110512
8830117165
8830123329
8830129982
8830136086
8830143410
8830149635
8830155800
8830163551
8830168923
8830176735
8830181557
8830189369
8830195717
8830201454
8830209450
8830215309
8830221657
8830228920
8830234413
8830241615
8830247414
8830253029
8830260231
8830267372
8830272133
8830279396
8830284828
8830291969
8830299110
8830306617
8830312843
8830318702
8830325538
8830332985
8830338295
8830345680
8830351234
8830361000
8830367164
8830372169
8830381507
8830386695
8830392921
8830397987
8830407447
8830414283
8830420509
8830427223
8830433692
8830441078
8830447975
8830454322
8830460914
8830467689
8830476112
8830481666
8830488563
8830496192
8830503028
8830509742
8830516456
8830522926
8830529822
8830535133
8830543494
8830551307
8830558265
8830563758
8830572242
8830579932
8830587012
8830593055
8830601417
8830609778
8830614356
8830623084
8830628821
8830639930
8830647315
8830653052
8830660132
8830668799
8830675513
8830682288
8830689307
8830698096
8830704810
8830713355
8830719885
8830728980
8830734595
8830743750
8830751929
8830759375
8830774085
8830780859
8830789954
8830796912
8830806006
8830812048
8830820471
8830826086
8830834204
8830840735
8830847021
8830853857
8830861914
8830866919
8830876196
8830882055
8830891272
8830897192
8830905920
8830912451
8830918738
8830924597
8830933569
8830940039
8830947546
8830951452
8830962866
8830969336
8830976721
8830981237
8830991186
8830997167
8831006689
8831012487
8831022070
8831027929
8831035925
8831043737
8831051061
8831058935
8831064489
8831073156
8831080114
8831086828
8831094274
8831101110
8831108373
8831115881
8831123388
8831130956
8831138219
8831145849
8831153539
8831158971
8831167272
8831175085
8831181188
8831189062
8831196874
8831207067
8831215185
8831224340
8831236058
8831245458
8831256932
8831265905
8831273168
8831280248
8831287633
8831294530
8831303624
8831311070
8831318334
8831325658
8831332555
8831342809
8831348912
8831358495
8831363866
8831371373
8831380162
8831387486
8831394688
8831402379
8831409581
8831417149
8831423314
8831431370
8831440587
8831448094
8831453892
8831461888
8831469945
8831474583
8831483311
8831490758
8831500401
8831508030
8831516881
8831524632
8831531468
8831538792
8831548558
8831556004
8831565525
8831576695
8831583287
8831590306
8831598423
8831605259
8831610813
8831617893
8831627049
8831634007
8831640598
8831648472
8831656101
8831661717
8831667576
8831677036
8831683445
8831691929
8831700230
8831705051
8831713657
8831720188
8831728977
8831736118
8831745029
8831750522
8831759373
8831765903
8831772861
8831780247
8831787693
8831794590
8831802036
8831810703
8831818210
8831826694
8831834751
8831843662
8831851047
8831857395
8831864841
8831873142
8831880588
8831886508
8831894748
8831905124
8831912631
8831918430
