8627889472
8627895148
8627900886
8627905829
8627912360
8627919623
8627924384
8627931525
8627937934
8627943305
8627950385
8627955329
8627960029
8627966620
8627971991
8627976386
8627982795
8627989631
8627995368
8628002631
8628009528
8628014716
8628022223
8628028754
8628036627
8628042975
8628050055
8628056159
8628063178
8628069831
8628076727
8628083808
8628090643
8628098700
8628106207
8628111151
8628118903
8628127692
8628133185
8628142401
8628150275
8628157050
8628164618
8628172736
8628179571
8628186713
8628192023
8628199408
8628208563
8628216559
8628223211
8628231573
8628237799
8628244391
8628251837
8628259955
8628267279
8628274603
8628282843
8628288702
8628296576
8628303228
8628310369
8628319342
8628325628
8628333563
8628339910
8628346929
8628354681
8628363104
8628372198
8628378973
8628387396
8628393804
8628400762
8628408941
8628417120
8628424383
8628431524
8628438482
8628456792
8628466009
8628478155
8628489934
8628501653
8628513433
8628520635
8628527776
8628534734
8628541387
8628548040
8628555974
8628565557
8628574102
8628582647
8628589421
8628595159
8628602910
8628609441
8628619939
8628627019
8628636113
8628644231
8628653081
8628662602
8628669560
8628679082
8628685918
8628695317
8628701299
8628710454
8628720219
8628730168
8628736943
8628744878
8628751103
8628761174
8628769536
8628778264
8628785405
8628794682
8628801396
8628809880
8628816105
8628825871
8628835209
8628841923
8628851262
8628855839
8628866887
8628875370
8628883488
8628893132
8628900273
8628907414
8628914311
8628922184
8628930058
8628935856
8628946110
8628953190
8628960636
8628969486
8628977970
8628986149
8628994694
8629001835
8629009037
8629017399
8629025089
8629033817
8629041508
8629049503
8629057621
8629066898
8629074589
8629084965
8629096012
8629104069
8629114139
8629123173
8629131351
8629142032
8629148929
8629159122
8629170414
8629176578
8629186039
8629191715
8629201053
8629207340
8629215030
8629222843
8629229801
8629236148
8629244266
8629250675
8629259952
8629266300
8629275272
8629282718
8629290286
8629294498
8629304752
8629312198
8629320255
8629324588
8629334293
8629343021
8629350650
8629357059
8629364444
8629371829
8629381045
8629388309
8629394534
8629405704
8629413211
8629420596
8629426761
8629436282
8629443728
8629449649
8629458560
8629465945
8629472964
8629480532
8629488711
8629496585
8629503604
8629509524
8629518069
8629524050
8629531985
8629537844
8629546694
8629554507
8629561587
8629565798
8629574587
8629582339
8629589358
8629593569
8629605288
8629613772
8629619204
8629626650
8629634097
8629641909
8629649966
8629656924
8629664919
8629672060
8629678286
8629687563
8629694399
8629702456
8629709414
8629719485
8629726931
8629735842
8629742617
8629752260
8629760012
8629767092
8629774721
8629780886
8629789248
8629797060
8629804079
8629810915
8629818911
8629827761
8629836122
8629849123
8629856691
8629864626
8629872682
8629879884
8629888185
8629896364
8629904787
8629912416
8629920534
8629928102
8629935426
8629943361
8629951540
8629958803
8629966432
8629973634
8629981691
8629988832
8629996278
8630002382
8630010744
8630018190
8630025636
8630033510
8630042238
8630050294
8630057924
8630065492
8630072633
8630081056
8630089418
8630096742
8630103944
8630110475
8630118226
8630125978
8630134339
8630141969
8630149110
8630157411
8630163453
8630169190
8630177796
8630184632
8630192628
8630196900
8630207765
8630215516
8630221070
8630229127
8630234742
8630241822
8630246888
8630255921
8630262086
8630268128
8630275208
8630282471
8630288758
8630293824
8630300721
8630305787
8630313721
8630318848
8630325745
8630331421
8630339234
8630345826
8630351990
8630355469
8630365418
8630372132
8630380433
8630387635
8630392945
8630399964
8630405396
8630412537
8630420044
8630426819
8630432801
8630438965
8630445618
8630452576
8630459595
8630465332
8630474060
8630479431
8630487976
8630494690
8630500977
8630505432
8630513123
8630519775
8630526917
8630532898
8630539246
8630546326
8630551025
8630558350
8630562805
8630569275
8630576721
8630584900
8630590027
8630596069
8630602661
8630609009
8630614685
8630620849
8630628235
8630635071
8630640686
8630647766
8630654907
8630660766
8630666320
8630674621
8630682800
8630689697
8630695739
8630703308
8630708862
8630716491
8630722167
8630729492
8630737792
8630746459
8630751953
8630759399
8630766662
8630772643
8630780029
8630786437
8630795287
8630803954
8630809936
8630816528
8630823730
8630828857
8630837829
8630842223
8630851379
8630856078
8630867431
8630871947
8630882140
8630889159
8630896667
8630903686
8630911803
8630918334
8630925963
8630933654
8630939635
8630947875
8630953978
8630961608
8630970702
8630975402
8630986632
8630991332
8631000304
8631006896
8631013976
8631020140
8631027648
8631037108
8631044554
8631050658
8631058592
8631064696
8631069274
8631079405
8631087401
8631096373
8631101439
8631111876
8631116515
8631125975
8631132628
8631139769
8631145628
8631153258
8631162047
8631170164
8631176329
8631184447
8631192564
8631199644
8631206297
8631214720
8631221617
8631230894
8631237181
8631245115
8631253599
8631258726
8631267210
8631274046
8631283506
8631290525
8631298460
8631306944
8631312986
8631320799
8631328306
8631334471
8631343016
8631351255
8631357542
8631365659
8631371275
8631379698
8631384275
8631393858
8631400694
8631408506
8631416013
8631424802
8631431577
8631438779
8631444700
8631454282
8631460325
8631465818
8631475645
8631481382
8631490293
8631494871
8631504270
8631511289
8631518552
8631525144
8631533689
8631542783
8631549375
8631555661
8631563718
8631569761
8631578428
8631586423
8631593198
8631600400
8631611020
8631617917
8631627072
8631635984
8631646726
8631655149
8631663877
8631671628
8631679501
8631686704
8631694943
8631702084
8631708737
8631716489
8631723141
8631729367
8631738217
8631745114
8631751462
8631757809
8631765927
8631772214
8631780514
8631788022
8631796933
8631802304
8631809933
8631815976
8631823666
8631833310
8631841794
8631848629
8631859494
8631866269
8631874203
8631880795
8631890744
8631895504
8631906246
8631911007
8631922055
8631926815
8631936398
8631941159
8631951718
8631959225
8631967281
8631975277
8631982418
8631989376
8631997067
8632003536
8632012875
8632019344
8632028194
8632035030
8632044735
8632051144
8632059994
8632066219
8632074825
8632080868
8632085445
8632097774
8632102962
8632113338
8632118282
8632128841
8632133846
8632144588
8632153255
8632160762
8632169857
8632176448
8632185604
8632192257
8632199581
8632209224
8632216426
8632224788
8632232234
8632239742
8632245662
8632252620
8632260616
8632267452
8632275630
8632283504
8632290340
8632295406
8632305721
8632310481
8632321162
8632325801
8632335750
8632342464
8632349910
8632356929
8632365840
8632373408
8632382258
8632388728
8632396663
8632402949
8632410762
8632421016
8632428645
8632436519
8632443660
8632449702
8632454280
8632464900
8632469600
8632480342
8632489070
8632495234
8632502009
8632509577
8632518672
8632524775
8632533442
8632539240
8632549189
8632556391
8632562312
8632570612
8632578608
8632585566
8632591425
8632596247
8632607050
8632611872
8632624323
8632634028
8632640925
8632651301
8632658076
8632666926
8632676203
8632683405
8632692255
8632699518
8632708307
8632714350
8632723627
8632728571
8632737299
8632747553
8632753901
8632760736
8632768000
8632776606
8632782343
8632791559
8632797907
8632808710
8632818109
8632825495
8632833246
8632839716
8632848200
8632854547
8632859430
8632871820
8632880365
8632889276
8632897760
8632904291
8632914667
8632921014
8632929254
8632938409
8632945428
8632953302
8632960199
8632965997
8632974176
8632981256
8632985345
8632994684
8633002557
8633007501
8633013543
8633019403
8633024835
8633030633
8633036798
8633043329
8633050225
8633054559
8633060968
8633067376
8633073358
8633077874
8633085076
8633092218
8633097711
8633102777
8633110162
8633115228
8633122064
8633127069
8633133599
8633139520
8633146844
8633150323
8633158257
8633163995
8633169976
8633176019
8633183221
8633189385
8633195733
8633201043
8633206902
8633212395
8633218255
8633225091
8633231072
8633236382
8633240838
8633247185
8633253655
8633259148
8633262383
8633269768
8633275994
8633281670
8633287408
8633293328
8633298821
8633302971
8633310906
8633315667
8633322258
8633326897
8633333916
8633337212
8633344353
8633347527
8633355523
8633362481
8633368218
8633373101
8633378411
8633384880
8633388787
8633395928
8633401238
8633408074
8633412895
8633419548
8633424614
8633432366
8633438896
8633445000
8633451653
8633456230
8633463921
8633470329
8633475456
8633480095
8633487541
8633492851
8633501518
8633506340
8633511833
8633518120
8633523613
8633529167
8633536674
8633543693
8633549004
8633555534
8633560783
8633568779
8633573906
8633580498
8633585930
8633594169
8633603630
8633609794
8633617119
8633623832
8633629448
8633636589
8633642875
8633649833
8633656608
8633662834
8633668876
8633675224
8633680229
8633688407
8633695060
8633701957
8633709098
8633715629
8633722648
8633730155
8633735649
8633743339
8633747001
8633754997
8633760856
8633767509
8633774833
8633781608
8633787589
8633793510
8633799918
8633806510
8633812247
8633816825
8633824699
8633832511
8633838248
8633843497
8633849784
8633856437
8633862540
8633867728
8633875114
8633880363
8633888114
8633894279
8633900321
8633903861
8633912101
8633915763
8633924491
8633932181
8633938651
8633943717
8633949820
8633955741
8633961966
8633965628
8633975150
8633982779
8633987418
8633993949
8634000235
8634006217
8634013724
8634021903
8634027701
8634035452
8634040885
8634049124
8634056021
8634062857
8634069266
8634076834
8634083548
8634088919
8634096732
8634100333
8634108389
8634116019
8634122549
8634129629
8634134329
8634140921
8634147024
8634152884
8634158865
8634165579
8634173514
8634180472
8634185782
8634192618
8634197745
8634203604
8634210257
8634215994
8634222952
8634230398
8634236075
8634244131
8634250113
8634257437
8634263479
8634270864
8634277945
8634286917
8634293203
8634299734
8634305715
8634314566
8634320059
8634328298
8634336660
8634343313
8634349172
8634358389
8634364492
8634372549
8634379751
8634385549
8634395254
8634402944
8634408559
8634415578
8634423086
8634427602
8634437063
8634444692
8634451894
8634456411
8634468008
8634472402
8634484731
8634492116
8634500112
8634507131
8634515493
8634522573
8634530446
8634537771
8634543813
8634550344
8634558217
8634564382
8634572866
8634580434
8634585927
8634593618
8634602956
8634611074
8634618093
8634626027
8634635243
8634641103
8634649831
8634656423
8634664296
8634670400
8634678456
8634684682
8634694142
8634699086
8634709218
8634714589
8634724660
8634731801
8634739491
8634746510
8634754567
8634762013
8634771657
8634780324
8634787282
8634793141
8634799733
8634807301
8634815175
8634821705
8634828419
8634835682
8634841359
8634848622
8634856495
8634862660
8634871205
8634880238
8634886341
8634894520
8634900440
8634908070
8634916310
8634921131
8634929493
8634940235
8634946766
8634953480
8634962574
8634969105
8634976734
8634982716
8634990772
8634998219
8635006947
8635014881
8635022266
8635030201
8635036304
8635044178
8635049122
8635058338
8635065296
8635073597
8635080799
8635090442
8635097156
8635103382
8635112537
8635120716
8635127796
8635135669
8635144336
8635151844
8635157825
8635165027
8635172962
8635180408
8635189075
8635195972
8635204029
8635211475
8635217578
8635226062
8635232227
8635238819
8635248279
8635255542
8635265064
8635271655
8635278674
8635287280
8635294055
8635299915
8635310535
8635317126
8635324451
8635330493
8635339282
8635347156
8635353259
8635361194
8635367908
8635376697
8635382068
8635393908
8635401660
8635410815
8635419299
8635428882
8635436938
8635444018
8635452075
8635460009
8635467150
8635474414
8635480761
8635488147
8635494006
8635504809
8635511645
8635519274
8635525439
8635533923
8635541369
8635550463
8635559130
8635568713
8635575915
8635583788
8635590685
8635598315
8635605212
8635612658
8635618639
8635627489
8635636339
8635644335
8635651049
8635656908
8635665087
8635673083
8635677721
8635687670
8635695788
8635704210
8635709032
8635718554
8635725329
8635732775
8635738756
8635745958
8635755724
8635762621
8635770555
8635777697
8635785570
8635792223
8635800218
8635806505
8635815355
8635820482
8635831407
8635836290
8635846239
8635850816
8635860582
8635867540
8635876939
8635884081
8635891771
8635898424
8635906908
8635913011
8635922044
8635927965
8635936021
8635942735
8635952135
8635960008
8635966783
8635972703
8635981370
8635987291
8635994005
8636004442
8636009630
8636020128
8636027879
8636034898
8636041551
8636048570
8636054429
8636063096
8636071214
8636077500
8636082688
8636089830
8636096788
8636102830
8636108079
8636115037
8636120774
8636128343
8636132066
8636140122
8636146592
8636152879
8636156419
8636165757
8636171800
8636176560
8636184312
8636189195
8636195725
8636200547
8636207627
8636215317
8636221482
8636225083
8636232774
8636236191
8636244370
8636248032
8636257493
8636263596
8636269944
8636277024
8636284104
8636291611
8636295334
8636303940
8636310654
8636315171
8636322373
8636327134
8636334336
8636339219
8636346115
8636350937
8636357895
8636363755
8636369614
8636375168
8636381089
8636387131
8636392990
8636400009
8636404160
8636410691
8636416550
8636420761
8636426682
8636433212
8636438034
8636445114
8636450302
8636456284
8636462509
8636467819
8636472153
8636479843
8636484909
8636491257
8636496689
8636501205
8636508591
8636515243
8636521896
8636528854
8636533554
8636540695
8636546860
8636552109
8636558151
8636563644
8636568405
8636574753
8636579574
8636585861
8636590683
8636597824
8636603744
8636610580
8636617904
8636622726
8636629013
8636635177
8636641098
8636647201
8636654525
8636659591
8636665634
8636671676
8636678207
8636684799
8636690414
8636694931
8636703659
8636709030
8636715438
8636720809
8636728378
8636733627
8636740646
8636745712
8636751571
8636756881
8636764877
8636770004
8636777450
8636780929
8636789352
8636796676
8636803939
8636811446
8636816817
8636824874
8636832320
8636840194
8636844283
8636853133
8636858871
8636867599
8636873885
8636879928
8636884994
8636892135
8636898543
8636905318
8636912154
8636916671
8636923323
8636929976
8636935714
8636942366
8636948897
8636954512
8636962264
8636967513
8636974410
8636979476
8636987288
8636993758
8637000228
8637006331
8637012862
8637019454
8637025618
8637030623
8637036665
8637042525
8637050154
8637057539
8637062666
8637069258
8637075423
8637081709
8637088423
8637094710
8637102461
8637109236
8637114424
8637120589
8637125716
8637132735
8637137862
8637146345
8637151961
8637160689
8637164412
8637172407
8637178755
8637185225
8637190596
8637197310
8637204756
8637211409
8637217634
8637224165
8637229170
8637235701
8637243513
8637250105
8637256330
8637262556
8637268660
8637273481
8637280134
8637286848
8637294783
8637302229
8637309675
8637317060
8637325544
8637333357
8637339826
8637348249
8637354841
8637362653
8637368269
8637375349
8637382734
8637389082
8637396528
8637403608
8637411603
8637419294
8637424970
8637433027
8637440168
8637447980
8637453535
8637461591
8637469709
8637476972
8637483442
8637490522
8637498029
8637504926
8637510541
8637517438
8637525861
8637532270
8637537885
8637544904
8637552167
8637558454
8637563886
8637570905
8637580182
8637585736
8637591840
8637599713
8637605329
8637612653
8637620648
8637626508
8637635175
8637641339
8637648786
8637654950
8637662396
8637668805
8637676068
8637683392
8637692792
8637701886
8637707806
8637716168
8637722028
8637730817
8637736798
8637743451
8637751629
8637758710
8637768292
8637775128
8637783001
8637789532
8637796002
8637804669
8637812970
8637820172
8637829327
8637835308
8637842511
8637850628
8637858746
8637864727
8637869549
8637880230
8637888287
8637896893
8637905194
8637914105
8637921734
8637930279
8637937847
8637946575
8637955059
8637961651
8637966717
8637978252
8637983135
8637992657
8637999981
8638009380
8638016643
8638024883
8638031658
8638039043
8638047771
8638055034
8638060955
8638068401
8638077434
8638085735
8638091411
8638100383
8638105938
8638113872
8638122051
8638129558
8638138591
8638145244
8638153240
8638160625
8638166545
8638171245
8638181072
8638185588
8638197368
8638206279
8638214153
8638221477
8638230449
8638238506
8638247661
8638257060
8638264568
8638273540
8638280315
8638289043
8638295512
8638300517
8638312724
8638317790
8638327251
8638334453
8638344462
8638349040
8638357707
8638363994
8638371562
8638377849
8638386271
8638394084
8638402018
8638410807
8638417277
8638423198
8638431987
8638438212
8638446818
8638453410
8638462443
8638470561
8638478251
8638486979
8638496989
8638504191
8638512065
8638518534
8638527201
8638535197
8638541911
8638550211
8638552958
8638564677
8638572794
8638582011
8638590800
8638597636
8638602518
8638614847
8638623881
8638630717
8638640299
8638647135
8638656229
8638664408
8638671488
8638677469
8638686136
8638694071
8638700724
8638710367
8638717569
8638723612
8638732218
8638738626
8638746195
8638752115
8638756937
8638768351
8638777079
8638783670
8638792154
8638798319
8638804972
8638814493
8638821146
8638828958
8638836649
8638846170
8638853067
8638860086
8638866007
8638874735
8638880655
8638889139
8638899087
8638902139
8638913492
8638919717
8638927835
8638932535
8638940957
8638947549
8638955911
8638963968
8638972879
8638979715
8638988138
8638994363
8639002725
8639011331
8639018289
8639027261
8639035867
8639042398
8639050943
8639057351
8639065469
8639073526
8639078225
8639087991
8639096963
8639105508
8639114541
8639123696
8639131265
8639140176
8639147500
8639157021
8639164285
8639173013
8639181924
8639187661
8639195351
8639202248
8639209511
8639216469
8639221657
8639227883
8639233315
8639239480
8639244546
8639250832
8639256692
8639261757
8639269021
8639273781
8639281228
8639284585
8639291787
8639297341
8639304116
8639310036
8639316445
8639323586
8639330971
8639338723
8639343972
8639351235
8639356728
8639363747
8639369789
8639375954
8639379555
8639387306
8639392678
8639400673
8639407692
8639413735
8639419472
8639424721
8639430092
8639435768
8639441261
8639448647
8639453957
8639459633
8639465736
8639470253
8639475563
8639480202
8639487465
8639493629
8639499367
8639504677
8639510048
8639515419
8639520912
8639527443
8639533546
8639538856
8639543251
8639549660
8639554237
8639560280
8639564857
8639572365
8639577308
8639584572
8639590858
8639596168
8639601173
8639606483
8639611793
8639618385
8639624549
8639631996
8639638771
8639643837
8639654029
8639709937
8639720252
8639726966
8639733436
8639739295
8639745216
8639752113
8639758033
8639764381
8639769874
8639775550
8639781959
8639789405
8639795631
8639801673
8639807716
8639813819
8639820655
8639826819
8639834205
8639840674
8639846290
8639852454
8639858375
8639864417
8639870276
8639876929
8639883826
8639889991
8639895728
8639904639
8639910559
8639917151
8639923682
8639930640
8639937293
8639942359
8639949134
8639954566
8639961829
8639968238
8639974524
8639980933
8639987769
8639995032
8640000037
8640008154
8640014258
8640023169
8640030310
8640035803
8640043066
8640048377
8640056067
8640059729
8640069189
8640075537
8640082556
8640087683
8640095740
8640101721
8640107458
8640114477
8640121252
8640127661
8640133093
8640139929
8640145422
8640153113
8640160132
8640166357
8640173193
8640179785
8640184912
8640192785
8640196447
8640205481
8640212622
8640220495
8640226477
8640232519
8640239538
8640246313
8640254980
8640260595
8640267553
8640274450
8640279455
8640287512
8640291967
8640300329
8640308141
8640314733
8640321386
8640327917
8640333715
8640339636
8640347204
8640354711
8640361425
8640367468
8640372839
8640380224
8640386022
8640392492
8640398473
8640405309
8640412755
8640417882
8640425878
8640433324
8640440282
8640448278
8640455602
8640462682
8640469701
8640475744
8640482152
8640490270
8640496068
8640504369
8640512181
8640519750
8640527074
8640534337
8640541967
8640549718
8640556554
8640562535
8640570714
8640577611
8640586217
8640593846
8640600316
8640610448
8640615880
8640624303
8640630834
8640638707
8640644811
8640654332
8640661534
8640669652
8640677708
8640685948
8640693578
8640700108
8640710545
8640715916
8640725865
8640734410
8640740635
8640748997
8640756688
8640761326
8640770604
8640778355
8640786412
8640791111
8640801121
8640805699
8640814610
8640821751
8640829380
8640836888
8640845677
8640852391
8640860935
8640867344
8640874424
8640880955
8640891941
8640897251
8640907139
8640914341
8640923252
8640928257
8640937779
8640946446
8640955418
8640960972
8640971043
8640975864
8640986607
8640994419
8641002109
8641008030
8641016331
8641024814
8641033115
8641040561
8641049351
8641056919
8641063083
8641070896
8641079746
8641087558
8641094028
8641103305
8641109836
8641116672
8641123569
8641131259
8641141208
8641148410
8641155124
8641164035
8641170688
8641178989
8641185153
8641193576
8641203037
8641210605
8641216098
8641226474
8641234958
8641241184
8641249606
8641258579
8641266208
8641273837
8641283359
8641290744
8641298556
8641303012
8641313388
8641322177
8641328280
8641334933
8641342807
8641349704
8641357516
8641363986
8641374850
8641379733
8641390048
8641398349
8641405307
8641412082
8641419894
8641426730
8641435275
8641442111
8641452243
8641457064
8641465670
8641472140
8641480075
8641487033
8641495516
8641502596
8641513339
8641518099
8641528109
8641536166
8641541781
8641549654
8641557223
8641566927
8641573153
8641577669
8641587801
8641592318
8641601107
8641608248
8641617586
8641626009
8641632113
8641639925
8641648104
8641652804
8641661593
8641668490
8641677096
8641684664
8641694368
8641701876
8641707918
8641714632
8641723177
8641730318
8641735933
8641746004
8641753878
8641762300
8641768221
8641776522
8641782503
8641791109
8641799227
8641806490
8641815279
8641821809
8641829683
8641836336
8641844759
8641851350
8641860384
8641868379
8641875764
8641882051
8641889558
8641896760
8641905366
8641911531
8641919282
8641927217
8641937044
8641941743
8641952119
8641959627
8641967073
8641971650
8641981599
8641990144
8641996614
8642001130
8642012910
8642018525
8642028474
8642033662
8642042390
8642051362
8642059846
8642069306
8642075654
8642084626
8642094636
8642102998
8642110627
8642119599
8642127046
8642134248
8642143464
8642150178
8642156464
8642165742
8642173005
8642181672
8642187836
8642196564
8642202119
8642210480
8642215790
8642222138
8642230134
8642238312
8642243561
8642249604
8642254426
8642261872
8642267914
8642274018
8642279999
8642286774
8642293244
8642299347
8642305573
8642311432
8642317597
8642324311
8642329682
8642336396
8642342499
8642347504
8642354584
8642361542
8642369477
8642374603
8642381439
8642388397
8642393952
8642401032
8642408661
8642415314
8642421661
8642428436
8642434235
8642441010
8642445892
8642451691
8642458893
8642463593
8642469696
8642474213
8642481598
8642486298
8642494171
8642500091
8642504486
8642512298
8642517242
8642522613
8642528168
8642532745
8642540436
8642545318
8642550445
8642556305
8642562591
8642569000
8642574554
8642580108
8642586212
8642592559
8642596649
8642601715
8642609649
8642616668
8642621246
8642628875
8642632598
8642640899
8642648651
8642653106
8642659759
8642666839
8642672576
8642679656
8642682952
8642692230
8642697723
8642704009
8642709991
8642714752
8642723663
8642729949
8642736419
8642742095
8642749175
8642755401
8642762054
8642768096
8642773345
8642780913
8642788421
8642794768
8642800994
8642806609
8642813140
8642818328
8642826018
8642832976
8642839141
8642846831
8642853179
8642858916
8642865386
8642871734
8642878447
8642885405
8642891387
8642899504
8642905852
8642911467
8642919097
8642925811
8642932585
8642939727
8642947478
8642953337
8642959502
8642968413
8642976103
8642981841
8642989165
8642994109
8643000029
8643007659
8643013091
8643020903
8643024504
8643034453
8643040678
8643045317
8643052031
8643059172
8643065764
8643069975
8643079619
8643083403
8643091826
8643098723
8643106474
8643113676
8643118986
8643126921
8643131010
8643139616
8643143278
8643151640
8643157744
8643164274
8643172453
8643178068
8643185270
8643192289
8643199369
8643205900
8643213041
8643218718
8643225004
8643230925
8643238310
8643244657
8643251005
8643257902
8643264494
8643270048
8643277128
8643283232
8643289701
8643295988
8643301908
8643310453
8643315702
8643323881
8643330412
8643338163
8643345853
8643351469
8643358732
8643364225
8643371366
8643378141
8643385587
8643393522
8643398832
8643407865
8643414518
8643421903
8643427946
8643436551
8643443204
8643452115
8643460172
8643467618
8643473966
8643481473
8643485990
8643495633
8643502652
8643510709
8643518216
8643524015
8643532193
8643541165
8643550504
8643559171
8643566251
8643572965
8643580411
8643588651
8643597196
8643604703
8643611234
8643620694
8643626614
8643634854
8643639615
8643648465
8643655789
8643664822
8643672269
8643679898
8643686307
8643693326
8643699551
8643706692
8643713711
8643722622
8643729519
8643737454
8643743069
8643750393
8643758023
8643765835
8643768460
8643780117
8643787503
8643795681
8643803128
8643809170
8643817166
8643823086
8643829739
8643838040
8643845547
8643857388
8643862454
8643871548
8643876248
8643886746
8643891628
8643900784
8643911099
8643917507
8643922085
8643932644
8643939236
8643947231
8643951992
8643962673
8643971340
8643977261
8643984951
8643992580
8643998745
8644007229
8644014614
8644021206
8644030422
8644036831
8644045315
8644051845
8644056667
8644067104
8644074489
8644082302
8644090725
8644098537
8644106350
8644112270
8644119960
8644126796
8644134792
8644143825
8644150600
8644158412
8644166469
8644172511
8644180812
8644188625
8644194850
8644203639
8644211818
8644219997
8644228175
8644234889
8644243373
8644249965
8644258571
8644268153
8644276332
8644282680
8644290614
8644296901
8644305507
8644311915
8644320460
8644330348
8644336574
8644346156
8644353419
8644357936
8644367579
8644375148
8644382411
8644390528
8644398707
8644407008
8644413111
8644418238
8644428553
8644433131
8644443751
8644451930
8644458949
8644467677
8644476039
8644483912
8644493250
8644501673
8644508326
8644517909
8644524378
8644533900
8644541651
8644548487
8644554713
8644564661
8644570093
8644579859
8644589319
8644596522
8644601282
8644612696
8644619288
8644626246
8644636194
8644644190
8644651087
8644658960
8644665918
8644674036
8644683191
8644690699
8644699671
8644704432
8644714991
8644719995
8644730005
8644735620
8644745691
8644753870
8644761682
8644769068
8644777979
8644785486
8644792383
8644803308
8644811548
8644819666
8644824487
8644834680
8644843164
8644849207
8644857751
8644864465
8644873865
8644880884
8644885766
8644895776
8644900415
8644910364
8644918725
8644926355
8644936303
8644943200
8644950586
8644956872
8644963525
8644971215
8644979882
8644986352
8644994226
8645003015
8645010583
8645018457
8645026513
8645035852
8645043786
8645050378
8645058984
8645065515
8645073571
8645080651
8645090112
8645094994
8645106469
8645112695
8645120446
8645125146
8645134118
8645142175
8645149377
8645155663
8645163048
8645169884
8645176598
8645182458
8645184472
8645197106
8645203759
8645208703
8645216149
8645220116
8645228234
8645234704
8645241662
8645248009
8645252648
8645260766
8645266991
8645273522
8645279442
8645283837
8645292260
8645298790
8645306847
8645312584
8645318322
8645325402
8645329735
8645337914
8645343956
8645352196
8645358788
8645365196
8645370018
8645377037
8645382469
8645388817
8645394249
8645400475
8645404625
8645410912
8645415245
8645422142
8645428368
8645434227
8645440392
8645444786
8645450829
8645455345
8645462852
8645468773
8645474754
8645480736
8645487144
8645492332
8645497703
8645505089
8645510765
8645515892
8645523521
8645528587
8645534263
8645540794
8645545494
8645551780
8645558189
8645564415
8645570518
8645576927
8645583946
8645589866
8645596275
8645603599
8645610252
8645615928
8645621604
8645629905
8645636436
8645640953
8645648704
8645655845
8645661765
8645667991
8645673301
8645681053
8645688072
8645694480
8645700584
8645705894
8645713767
8645719871
8645726768
8645733543
8645739402
8645745200
8645751426
8645757957
8645763206
8645771079
8645776389
8645783469
8645789878
8645795798
8645802085
8645808921
8645815146
8645821921
8645827659
8645833274
8645841941
8645846030
8645855368
8645864035
8645868735
8645876731
8645883750
8645889853
8645895957
8645904807
8645911032
8645916098
8645923667
8645930930
8645937033
8645944541
8645949546
8645957602
8645961264
8645969931
8645975791
8645981467
8645987753
8645996237
8646002829
8646007956
8646015952
8646023093
8646027853
8646034933
8646042197
8646048422
8646054404
8646060934
8646064658
8646072470
8646079794
8646085837
8646093893
8646099020
8646107260
8646114340
8646121542
8646126974
8646135763
8646141928
8646149313
8646155905
8646162252
8646169149
8646176168
8646181845
8646188986
8646196249
8646202352
8646209188
8646216574
8646222738
8646228292
8646236227
8646242636
8646248983
8646255331
8646262228
8646268820
8646273824
8646282247
8646287435
8646293417
8646300863
8646305441
8646312154
8646321066
8646328329
8646334432
8646341817
8646347860
8646354757
8646361288
8646369955
8646379110
8646385641
8646392538
8646399984
8646406698
8646413900
8646421102
8646429586
8646436361
8646442342
8646450704
8646456685
8646464498
8646471761
8646479634
8646487996
8646495015
8646497396
8646507894
8646512044
8646521260
8646525350
8646535787
8646543660
8646551778
8646557637
8646565206
8646572896
8646578755
8646589803
8646597676
8646605489
8646611836
8646619466
8646626241
8646633931
8646641316
8646650777
8646658650
8646665608
8646673115
8646681355
8646688008
8646694539
8646702656
8646710042
8646718281
8646724873
8646733052
8646739522
8646749165
8646755757
8646763691
8646773457
8646779927
8646785664
8646794026
8646800801
8646810505
8646816792
8646826374
8646833882
8646843281
8646850483
8646860066
8646864826
8646874897
8646879597
8646888752
8646893696
8646905842
8646912922
8646921650
8646930378
8646936542
8646945087
8646951496
8646959736
8646967365
8646975849
8646983112
8646990986
8646996540
8647005390
8647015339
8647023273
8647029865
8647037250
8647043781
8647052021
8647058796
8647068134
8647073322
8647084491
8647089008
8647098529
8647104999
8647112995
8647120441
8647130451
8647138141
8647145099
8647151691
8647160663
8647165424
8647175189
8647180011
8647190204
8647198383
8647206867
8647212970
8647221332
8647229999
8647235980
8647240741
8647252948
8647261005
8647269122
8647276935
8647282916
8647291827
8647300250
8647306842
8647316852
8647323382
8647330096
8647338946
8647343646
8647353106
8647359332
8647367755
8647374896
8647384234
8647388812
8647398028
8647405108
8647413592
8647420062
8647428301
8647435504
8647443682
8647450762
8647458880
8647465411
8647473467
8647480731
8647489031
8647494219
8647504656
8647509539
8647519610
8647527056
8647534991
8647539751
8647550921
8647559466
8647567889
8647575701
8647581682
8647586931
8647602251
8647609392
8647618120
8647626055
8647635088
8647641375
8647650347
8647658770
8647668779
8647676104
8647682756
8647692644
8647700518
8647709307
8647716204
8647724138
8647730364
8647739092
8647745745
8647753801
8647761308
8647769182
8647776323
8647782243
8647787065
8647800249
8647807939
8647815569
8647823259
8647829118
8647837602
8647845598
8647853105
8647860185
8647868364
8647876726
8647884172
8647890275
8647898027
8647907670
8647916337
8647923906
8647932267
8647938005
8647946489
8647951921
8647961564
8647966142
8647976091
8647983964
8647992204
8647996965
8648005937
8648010514
8648020707
8648029008
8648036149
8648044145
8648054276
8648063004
8648069352
8648073869
8648083878
8648091081
8648097672
8648105119
8648111161
8648118607
8648124711
8648131852
8648136002
8648144547
8648151932
8648157181
8648163651
8648168351
8648174515
8648180009
8648188309
8648194596
8648200821
8648207230
8648213273
8648218949
8648226761
8648234086
8648240128
8648245316
8648253128
8648259537
8648265580
8648272354
8648280045
8648285721
8648292984
8648298905
8648305435
8648311844
8648317887
8648324295
8648330765
8648336624
8648341690
8648346756
8648351944
8648359024
8648363785
8648370560
8648377030
8648382217
8648388138
8648393448
8648398392
8648405472
8648411819
8648414932
8648422134
8648427505
8648434097
8648439835
8648446548
8648451370
8648455948
8648462479
8648468887
8648473892
8648479996
8648485733
8648492019
8648496658
8648502395
8648508316
8648516128
8648522354
8648529007
8648534622
8648539810
8648547012
8648552749
8648558670
8648566055
8648574661
8648582412
8648588882
8648594253
8648599868
8648604263
8648611099
8648617752
8648625930
8648630020
8648637527
8648643569
8648649612
8648655654
8648662795
8648670303
8648675552
8648685073
8648691543
8648697768
8648703628
8648708633
8648716140
8648723586
8648729690
8648736343
8648743423
8648750503
8648755813
8648762710
8648770888
8648776870
8648782729
8648788466
8648794143
8648803481
8648809279
8648816115
8648822951
8648828322
8648834731
8648842666
8648847854
8648855727
8648862380
8648868727
8648873061
8648881362
8648887648
8648894423
8648901992
8648908400
8648915419
8648922194
8648928420
8648933913
8648945754
8648952223
8648958998
8648966139
8648971205
8648978713
8648984999
8648992873
8648999892
8649006178
8649012892
8649020033
8649027235
8649033034
8649042250
8649046400
8649054579
8649061781
8649067641
8649073500
8649080458
8649088087
8649094313
8649101332
8649107191
8649113234
8649119703
8649126112
8649132582
8649139906
8649146132
8649151808
8649158522
8649164503
8649170362
8649177320
8649185316
8649191481
8649198133
8649205458
8649211622
8649217543
8649223524
8649231703
8649238111
8649244886
8649251844
8649257459
8649265577
8649270033
8649279798
8649287244
8649293226
8649297315
8649306837
8649310926
8649320692
8649327528
8649335035
8649345472
8649353101
8649360548
8649368238
8649374891
8649380933
8649389173
8649395521
8649404859
8649412122
8649418165
8649424695
8649435254
8649442945
8649449903
8649457105
8649464612
8649473218
8649481641
8649488294
8649495923
8649504346
8649511731
8649519910
8649525098
8649533765
8649541455
8649548535
8649555066
8649561353
8649569653
8649577222
8649585034
8649591016
8649598523
8649604932
8649614514
8649623303
8649629163
8649633313
8649643323
8649650464
8649656079
8649663586
8649672375
8649679272
8649687451
8649694409
8649702160
8649708752
8649716565
8649723889
8649731213
8649739636
8649747326
8649755749
8649763562
8649770764
8649776867
8649784741
8649794506
8649802258
8649808850
8649815991
8649824841
8649832531
8649838940
8649847668
8649856152
8649865795
8649872509
8649879833
8649886364
8649894115
8649900646
8649910534
8649917309
8649926342
8649933727
8649940990
8649948315
8649954723
8649961376
8649970714
8649978466
8649986828
8649993358
8650001232
8650008190
8650015514
8650021312
8650029430
8650038646
8650045116
8650053417
8650059398
8650067699
8650074474
8650081249
8650087963
8650097362
8650104564
8650110729
8650118846
8650127635
8650133861
8650139781
8650148326
8650157482
8650165416
8650171886
8650182079
8650186900
8650196971
8650201976
8650211070
8650218028
8650227306
8650231883
8650241832
8650246715
8650256908
8650264293
8650274730
8650279490
8650290111
8650298350
8650304881
8650314525
8650320384
8650330394
8650336863
8650345530
8650352549
8650361705
8650366526
8650376109
8650380687
8650392405
8650399913
8650408396
8650417613
8650424143
8650432078
8650438792
8650446543
8650457163
8650464304
8650469004
8650478770
8650487376
8650495676
8650500498
8650511851
8650518442
8650526987
8650534434
8650542918
8650549753
8650555918
8650563608
8650573069
8650580332
8650586619
8650594980
8650600779
8650608347
8650617502
8650624827
8650631296
8650639597
8650648264
8650654245
8650662546
8650668344
8650676035
8650683603
8650691538
8650699594
8650707895
8650714426
8650722544
8650728403
8650736093
8650743784
8650754099
8650760812
8650769479
8650776743
8650783273
8650790781
8650796884
8650804819
8650813913
8650822153
8650828683
8650836618
8650843271
8650850412
8650856576
8650865854
8650872751
8650882272
8650888986
8650896005
8650903756
8650912240
8650919076
8650927804
8650936105
8650944833
8650951669
8650961740
8650966684
8650975412
8650982614
8650993905
8651002633
8651009286
8651017831
8651025521
8651033273
8651039071
8651046700
8651054025
8651061715
8651066659
8651074044
8651080636
8651086800
8651091744
8651100228
8651106454
8651112069
8651119515
8651123971
8651131173
8651135567
8651143380
8651148263
8651155831
8651159554
8651167611
8651173104
8651179024
8651185067
8651192330
8651200448
8651205819
8651213082
8651219185
8651224740
8651230477
8651236580
8651242745
8651248909
8651256050
8651261238
8651271370
8651279915
8651286507
8651292122
8651297554
8651303292
8651308907
8651315132
8651322396
8651327095
8651334541
8651340767
8651346504
8651352120
8651356026
8651362373
8651367500
8651374153
8651380196
8651385933
8651391731
8651396919
8651403511
8651407906
8651415047
8651420784
8651426094
8651431709
8651437141
8651442879
8651448494
8651454353
8651460152
8651466499
8651472847
8651478828
8651485115
8651492500
8651498420
8651505928
8651511116
8651518684
8651522102
8651530647
8651537178
8651543708
8651550361
8651556465
8651562263
8651567695
8651575508
8651582649
8651588813
8651594917
8651601753
8651608222
8651614021
8651621528
8651628669
8651635017
8651640876
8651646613
8651652778
8651659309
8651666999
8651673774
8651681098
8651686958
8651693061
8651699531
8651706000
8651713630
8651719611
8651726691
8651731574
8651737983
8651744147
8651750556
8651756965
8651764350
8651769172
8651775763
8651780524
8651788276
8651794196
8651801886
8651807502
8651813849
8651819709
8651825324
8651833014
8651839423
8651846259
8651852484
8651859442
8651865973
8651871100
8651877448
8651885016
8651892646
8651899604
8651904669
8651911627
8651916571
8651924201
8651930060
8651936408
8651943427
8651950324
8651956732
8651962470
8651968939
8651974860
8651981268
8651988959
8651993964
8652000311
8652005377
8652013800
8652020270
8652027777
8652034003
8652041205
8652048773
8652052923
8652061590
8652065497
8652076361
8652083441
8652091131
8652099859
8652106085
8652114752
8652122442
8652130316
8652138556
8652144659
8652153204
8652160040
8652167669
8652172125
8652181463
8652189154
8652196295
8652202032
8652208196
8652215338
8652220465
8652228033
8652236212
8652242986
8652250738
8652257635
8652265997
8652272466
8652279607
8652285467
8652295415
8652302251
8652309148
8652316228
8652323675
8652329839
8652340215
8652347600
8652353765
8652360845
8652367132
8652373906
8652381292
8652389165
8652395879
8652404912
8652409246
8652417852
8652425969
8652432988
8652438420
8652445623
8652453984
8652459905
8652467046
8652474004
8652480657
8652486882
8652494939
8652501287
8652511174
8652516057
8652524114
8652530156
8652538518
8652546208
8652554387
8652559880
8652570317
8652578069
8652583989
8652591862
8652599492
8652605778
8652614751
8652622502
8652630376
8652639287
8652647526
8652656376
8652666020
8652676396
8652682622
8652692265
8652700017
8652709416
8652716374
8652723881
8652731205
8652740544
8652749089
8652757511
8652765080
8652773991
8652779240
8652788578
8652795902
8652805729
8652814518
8652822453
8652827213
8652837284
8652845890
8652853092
8652862492
8652869511
8652878361
8652886051
8652895267
8652902470
8652911808
8652916874
8652926639
8652932194
8652943058
8652948368
8652957584
8652964237
8652972416
8652979252
8652987369
8652994022
8653002445
8653008915
8653017032
8653023502
8653030826
8653037113
8653045536
8653055728
8653062870
8653069400
8653076725
8653085269
8653091312
8653099552
8653106632
8653113468
8653122318
8653128787
8653136478
8653144656
8653151859
8653159305
8653167300
8653172244
8653182010
8653186832
8653196658
8653204715
8653210513
8653218265
8653224979
8653229800
8653241214
8653245791
8653255191
8653262942
8653269290
8653276004
8653287234
8653295779
8653302005
8653306460
8653316897
8653325747
8653332705
8653340884
8653348269
8653356509
8653364199
8653370730
8653379153
8653387698
8653396121
8653403567
8653410952
8653419802
8653426577
8653434817
8653442080
8653450808
8653458132
8653467104
8653474551
8653483767
8653490481
8653497561
8653504763
8653512209
8653518618
8653526980
8653536806
8653543154
8653551882
8653559267
8653565920
8653573305
8653579348
8653586611
8653597109
8653605593
8653612490
8653619814
8653628664
8653636415
8653643434
8653652407
8653660036
8653667848
8653676027
8653682009
8653690676
8653697756
8653705507
8653712160
8653722109
8653729555
8653737856
8653745546
8653752382
8653760683
8653767519
8653775636
8653783205
8653791017
8653798952
8653804750
8653813051
8653821229
8653830995
8653838685
8653847047
8653854249
8653862855
8653870241
8653876771
8653884157
8653893312
8653900514
8653910524
8653915284
8653924195
8653931031
8653938844
8653945375
8653955079
8653959779
8653969667
8653977967
8653986024
8653994081
8654000062
8654009706
8654016664
8654022767
8654028016
8654036744
8654041871
8654049928
8654055848
8654061890
8654068787
8654074769
8654080994
8654087342
8654093201
8654100159
8654108338
8654114747
8654120667
8654126588
8654132081
8654137818
8654144044
8654150330
8654157471
8654163697
8654169983
8654175843
8654181641
8654188416
8654194581
8654201661
8654208313
8654215088
8654220581
8654226990
8654234497
8654239319
8654247925
8654253174
8654258484
8654264771
8654270325
8654277649
8654283692
8654288758
8654295471
8654299866
8654306702
8654312744
8654318970
8654325012
8654332214
8654337341
8654344177
8654349670
8654355652
8654360718
8654368408
8654374390
8654380005
8654385620
8654390137
8654397461
8654403625
8654413452
8654418945
8654425720
8654431274
8654436889
8654443664
8654451416
8654456787
8654462280
8654469299
8654473938
8654481872
8654487488
8654493469
8654498718
8654504150
8654510254
8654516723
8654522155
8654528930
8654535949
8654539978
8654548095
8654554809
8654560730
8654566284
8654575683
8654582275
8654587890
8654593688
8654598815
8654606262
8654613403
8654620361
8654627136
8654633788
8654639709
8654644714
8654651916
8654657897
8654664428
8654670898
8654677734
8654684447
8654689696
8654696899
8654702148
8654710204
8654717528
8654723327
8654729980
8654736754
8654742553
8654749572
8654756103
8654762389
8654771422
8654777465
8654784240
8654791076
8654797789
8654805419
8654810912
8654819579
8654826659
8654833678
8654839415
8654844664
8654852111
8654857909
8654865233
8654870970
8654878295
8654883788
8654890135
8654896849
8654904173
8654911131
8654916380
8654924315
8654927916
8654936034
8654942809
8654949522
8654957030
8654962157
8654969847
8654976561
8654982664
8654990843
8654996703
8655003477
8655011168
8655017454
8655023619
8655030638
8655038939
8655044493
8655052794
8655059202
8655065611
8655072325
8655078795
8655086607
8655093077
8655100706
8655104857
8655113279
8655121092
8655127684
8655134397
8655141417
8655148008
8655156004
8655163511
8655168150
8655177427
8655185667
8655191526
8655195860
8655207151
8655214597
8655220213
8655227537
8655234983
8655239500
8655248899
8655256162
8655263792
8655271238
8655277036
8655282651
8655291013
8655295774
8655305479
8655312559
8655320188
8655327146
8655334714
8655342466
8655349485
8655356260
8655362607
8655370908
8655375547
8655385923
8655390683
8655400144
8655404660
8655414182
8655422605
8655430356
8655437986
8655446347
8655454770
8655463254
8655471433
8655475888
8655485471
8655492734
8655499753
8655507199
8655514096
8655522519
8655529416
8655537290
8655545407
8655551877
8655558225
8655565671
8655572018
8655581540
8655586423
8655597470
8655605099
8655613278
8655621152
8655627072
8655634884
8655643918
8655651608
8655659909
8655670224
8655676510
8655685788
8655693112
8655702633
8655710080
8655717892
8655724301
8655733212
8655739926
8655746579
8655753170
8655761959
8655769711
8655779415
8655785946
8655793575
8655800656
8655808956
8655815365
8655824459
8655831539
8655840633
8655848385
8655854855
8655861813
8655869930
8655876705
8655884273
8655891048
8655900265
8655907162
8655915462
8655921993
8655929073
8655935665
8655942989
8655952450
8655959896
8655966793
8655974971
8655981624
8655989437
8655996883
8656006099
8656013607
8656022579
8656029110
8656036251
8656042293
8656050472
8656057369
8656067134
8656074459
8656083980
8656091121
8656098445
8656104976
8656112789
8656119380
8656127681
8656136043
8656145869
8656152705
8656159053
8656168330
8656175288
8656184199
8656192012
8656200557
8656209163
8656214229
8656224483
8656229182
8656238704
8656245357
8656252864
8656260310
8656270808
8656275691
8656284724
8656291194
8656299128
8656305903
8656315120
8656323176
8656330256
8656337031
8656345332
8656352168
8656360835
8656366084
8656376887
8656385554
8656392146
8656400141
8656408076
8656412592
8656422541
8656427241
8656438410
8656443720
8656453486
8656461909
8656469965
8656475947
8656485957
8656490778
8656500544
8656508173
8656518305
8656523066
8656533015
8656538202
8656547663
8656555109
8656563227
8656571589
8656578180
8656586786
8656594538
8656602900
8656609064
8656617365
8656625421
8656632318
8656641230
8656649042
8656654901
8656662775
8656670282
8656678156
8656684992
8656692682
8656700311
8656708307
8656717279
8656724481
8656731012
8656741144
8656749811
8656758173
8656763239
8656772882
8656777521
8656788019
8656792718
8656803033
8656811334
8656817560
8656826410
8656832757
8656839288
8656847467
8656854059
8656863519
8656871942
8656878106
8656884881
8656894647
8656899835
8656908990
8656918695
8656925409
8656933465
8656942803
8656950189
8656957879
8656965570
8656972405
8656981011
8656989861
8656995477
8657003961
8657010247
8657017449
8657022942
8657027947
8657035699
8657042779
8657048150
8657054803
8657059563
8657066521
8657072442
8657078851
8657084283
8657090874
8657097588
8657102471
8657108391
8657115838
8657122735
8657129387
8657134698
8657141656
8657147576
8657153252
8657159112
8657165764
8657171502
8657178215
8657184685
8657190789
8657196526
8657200066
8657210625
8657215630
8657220147
8657226982
8657232354
8657237664
8657243279
8657249932
8657256096
8657260796
8657266716
8657271904
8657277947
8657283623
8657290215
8657296318
8657300652
8657307060
8657312126
8657318352
8657323540
8657329948
8657335808
8657341667
8657346916
8657351311
8657357597
8657362846
8657368401
8657374687
8657382439
8657387443
8657393303
8657398735
8657404167
8657411796
8657418449
8657423210
8657430229
8657435905
8657441215
8657448234
8657455009
8657461784
8657466667
8657474296
8657481193
8657486503
8657493156
8657501030
8657508171
8657512504
8657520439
8657527824
8657534172
8657541313
8657546501
8657554679
8657558403
8657566520
8657572502
8657578178
8657584281
8657592033
8657600089
8657607231
8657613151
8657618827
8657624870
8657633231
8657638358
8657646781
8657653190
8657659110
8657665214
8657671806
8657677543
8657684013
8657691337
8657696525
8657703971
8657707694
8657716239
8657722343
8657729911
8657737174
8657742911
8657750602
8657757193
8657763907
8657770011
8657777457
8657783988
8657789115
8657796805
8657801871
8657809073
8657816153
8657821280
8657829459
8657835013
8657842398
8657847342
8657853812
8657859854
8657865592
8657873038
8657879447
8657885916
8657892203
8657898367
8657902823
8657909903
8657918204
8657925833
8657931082
8657938162
8657942618
8657950613
8657957571
8657964896
8657972281
8657978690
8657985342
8657989004
8657998038
8658004080
8658012808
8658018240
8658023306
8658030813
8658036612
8658044974
8658048880
8658059683
8658066153
8658071463
8658079886
8658085806
8658092276
8658098867
8658106192
8658113089
8658119436
8658126821
8658133108
8658139395
8658146231
8658151663
8658160696
8658166067
8658171926
8658178762
8658187002
8658192861
8658199941
8658209890
8658214773
8658224111
8658228384
8658237295
8658243276
8658251272
8658257803
8658267263
8658274282
8658281545
8658288198
8658295278
8658300893
8658308462
8658316884
8658325490
8658333608
8658341726
8658350087
8658360097
8658368825
8658374807
8658382497
8658388601
8658394704
8658400808
8658408132
8658414846
8658422658
8658429860
8658436025
8658442983
8658449636
8658456471
8658463796
8658472707
8658479787
8658486318
8658492970
8658499440
8658505971
8658514394
8658521352
8658527638
8658535634
8658541554
8658550282
8658556203
8658563283
8658570424
8658579518
8658583974
8658594777
8658601063
8658608937
8658617543
8658624806
8658631215
8658640736
8658647389
8658654103
8658661976
8658667897
8658676320
8658683644
8658691761
8658700734
8658707081
8658717640
8658724842
8658734120
8658741261
8658749623
8658758229
8658765980
8658772633
8658780811
8658785877
8658796253
8658802357
8658810047
8658817921
8658825611
8658832630
8658839100
8658848194
8658852406
8658861988
8658869678
8658878590
8658883106
8658892444
8658897571
8658906971
8658915027
8658924488
8658932422
8658941150
8658948536
8658954456
8658962330
8658970508
8658978199
8658985035
8658993885
8659000537
8659007312
8659013843
8659023548
8659030384
8659038684
8659045886
8659054370
8659060901
8659069751
8659074268
8659083972
8659089221
8659099963
8659105029
8659115283
8659120166
8659129749
8659134326
8659145374
8659153857
8659161975
8659170032
8659177844
8659184375
8659192126
8659199390
8659207080
8659214465
8659224353
8659231921
8659238513
8659247607
8659254077
8659260730
8659266772
8659275012
8659282885
8659291491
8659299792
8659306567
8659313037
8659321765
8659328418
8659335925
8659342883
8659353747
8659359179
8659369616
8659374865
8659385302
8659393359
8659400317
8659409472
8659416979
8659423815
8659430712
8659437975
8659446825
8659455675
8659466906
8659475451
8659482470
8659491869
8659500109
8659506090
8659513720
8659522448
8659530993
8659538073
8659542772
8659552477
8659560778
8659566637
8659575121
8659582140
8659590563
8659598253
8659604784
8659613085
8659622606
8659629259
8659637499
8659644640
8659654650
8659661058
8659668505
8659675096
8659682665
8659689440
8659697801
8659704942
8659714525
8659721910
8659729540
8659734361
8659743456
8659749986
8659757982
8659765306
8659775316
8659782762
8659788988
8659795946
8659803697
8659811082
8659818712
8659828782
8659835191
8659842698
8659850511
8659858140
8659866441
8659871141
8659879991
8659890184
8659896348
8659900560
8659909532
8659916795
8659922776
8659929856
8659936204
8659942613
8659947251
8659954576
8659959886
8659966660
8659973741
8659980821
8659987473
8659994920
8660000596
8660006638
8660012986
8660019517
8660026353
8660032700
8660038682
8660044968
8660051133
8660057420
8660063462
8660070847
8660077500
8660083481
8660089341
8660095139
8660101121
8660106370
8660114731
8660199448
8660204880
8660209885
8660215134
8660220383
8660227341
8660233261
8660238938
8660243943
8660250290
8660255966
8660261337
8660265549
8660273361
8660278427
8660285080
8660290573
8660295090
8660302109
8660307724
8660313522
8660318893
8660327988
8660333969
8660338547
8660346176
8660351425
8660357223
8660363083
8660369919
8660376144
8660380844
8660387558
8660394394
8660399826
8660404648
8660411728
8660418869
8660423507
8660430954
8660436569
8660442062
8660448044
8660454147
8660459518
8660465683
8660470993
8660475509
8660483200
8660490402
8660496749
8660503463
8660509933
8660516159
8660520492
8660529220
8660537094
8660545639
8660551864
8660556991
8660565780
8660572189
8660578536
8660585739
8660591232
8660597946
8660604415
8660610824
8660617538
8660624007
8660630355
8660638168
8660644088
8660650375
8660656661
8660662826
8660667403
8660673263
8660681624
8660687057
8660692061
8660699508
8660705062
8660710860
8660716659
8660723739
8660730269
8660736922
8660742782
8660748153
8660756881
8660764205
8660771712
8660777999
8660782943
8660792159
8660798445
8660805526
8660812545
8660817610
8660825850
8660831710
8660837996
8660845564
8660849166
8660857710
8660864852
8660870345
8660878035
8660884322
8660889510
8660896101
8660902388
8660907576
8660915999
8660919600
8660928023
8660932845
8660938521
8660945296
8660953474
8660960921
8660966109
8660973494
8660977278
8660985518
8660989424
8660998518
8661007002
8661014387
8661021834
8661030745
8661036787
8661043379
8661052717
8661059370
8661066938
8661074995
8661082319
8661089888
8661095930
8661105329
8661113081
8661120405
8661128096
8661135298
8661141889
8661146955
8661156294
8661163069
8661171003
8661177412
8661183271
8661190107
8661199629
8661204328
8661215070
8661223615
8661231184
8661237714
8661245283
8661252363
8661259260
8661268354
8661275739
8661282331
8661290327
8661297468
8661300092
8661310590
8661317609
8661325605
8661332685
8661340192
8661347516
8661353498
8661361921
8661370588
8661378156
8661385663
8661394635
8661401471
8661409101
8661416425
8661423444
8661430890
8661437665
8661445905
8661451764
8661461408
8661465802
8661474042
8661481183
8661488446
8661494550
8661502118
8661510480
8661518353
8661526288
8661533795
8661542889
8661547711
8661557721
8661563214
8661573834
8661580975
8661588421
8661596539
8661605450
8661613080
8661621136
8661628521
8661635418
8661643536
8661650250
8661658734
8661665692
8661675518
8661680035
8661689679
8661694134
8661703472
8661710858
8661720013
8661727947
8661736675
8661741558
8661749554
8661757244
8661764141
8661770550
8661779217
8661786419
8661794232
8661801373
8661809307
8661816875
8661824749
8661831707
8661839825
8661847942
8661857525
8661866558
8661874615
8661881634
8661887310
8661895855
8661905865
8661914776
8661921062
8661927959
8661935589
8661941936
8661949566
8661957134
8661966106
8661973491
8661981304
8661987224
8661995342
8662003643
8662010295
8662015666
8662026531
8662035503
8662042583
8662050273
8662058513
8662066387
8662072551
8662081035
8662087932
8662096660
8662101421
8662111247
8662116435
8662125407
8662134502
8662143596
8662150676
8662159038
8662165507
8662173137
8662179851
8662187724
8662194316
8662202678
8662210978
8662219218
8662226664
8662234904
8662242412
8662248820
8662257914
8662263163
8662274394
8662279033
8662287028
8662293742
8662303691
8662308573
8662319071
8662324259
8662335246
8662343730
8662355387
8662363932
8662371806
8662380351
8662387980
8662396220
8662403239
8662413310
8662418009
8662426554
8662431254
8662440897
8662447367
8662457072
8662464823
8662470804
8662478678
8662485941
8662493265
8662500406
8662507731
8662517923
8662522501
8662532267
8662536844
8662546854
8662552042
8662561319
8662568216
8662577433
8662582987
8662593668
8662599344
8662608377
8662616434
8662624246
8662633890
8662639810
8662647745
8662656534
8662665140
8662671365
8662679483
8662686685
8662694376
8662701456
8662707071
8662713785
8662718607
8662724710
8662732645
8662737833
8662743265
8662749368
8662755106
8662760721
8662767313
8662772195
8662779397
8662784097
8662791788
8662797769
8662803201
8662808816
8662814798
8662822549
8662827493
8662834268
8662839944
8662845926
8662850991
8662857827
8662864785
8662870828
8662878274
8662881814
8662890908
8662896340
8662903237
8662910379
8662916177
8662921975
8662927957
8662934915
8662941506
8662946633
8662953530
8662958962
8662965676
8662970010
8662974832
8662982949
8662987954
8662994180
8663000100
8663006692
8663011880
8663017190
8663024331
8663030556
8663036050
8663042397
8663047097
8663053872
8663060586
8663065713
8663072976
8663078591
8663084206
8663089394
8663094155
8663101235
8663107277
8663113320
8663119118
8663123269
8663130898
8663136696
8663144448
8663151589
8663158059
8663163308
8663168984
8663175698
8663181618
8663188027
8663193032
8663201271
8663207680
8663214150
8663220864
8663225991
8663233376
8663241432
8663248024
8663253090
8663259010
8663265053
8663271156
8663277565
8663285011
8663292458
8663298256
8663304298
8663310402
8663316200
8663320168
8663327797
8663334816
8663340736
8663348305
8663353432
8663360878
8663367653
8663374306
8663379982
8663386391
8663393593
8663399086
8663405922
8663411049
8663418861
8663426002
8663432960
8663440284
8663444984
8663452064
8663458351
8663466346
8663471962
8663478370
8663484474
8663491005
8663497413
8663504005
8663511085
8663517433
8663523353
8663529762
8663535560
8663542701
8663549293
8663555518
8663561073
8663568092
8663575660
8663581580
8663587501
