7625892159
7625901559
7625910165
7625918893
7625926888
7625935128
7625944283
7625953011
7625960885
7625970345
7625977852
7625985543
7625992928
7626001839
7626006417
7626016976
7626024178
7626032296
7626038399
7626045540
7626053597
7626060921
7626069588
7626076912
7626083077
7626090462
7626098336
7626103524
7626111885
7626119576
7626126106
7626132515
7626140511
7626146370
7626154366
7626163033
7626171272
7626179817
7626187996
7626193367
7626204109
7626212471
7626220100
7626226814
7626233955
7626241707
7626249702
7626257088
7626266487
7626278023
7626289680
7626306160
7626313606
7626323311
7626331855
7626341865
7626350776
7626356880
7626365486
7626372810
7626378425
7626388435
7626395942
7626401802
7626410285
7626417549
7626424629
7626433662
7626441169
7626450019
7626457649
7626466132
7626473823
7626482002
7626492011
7626499824
7626508308
7626515205
7626523322
7626531318
7626539863
7626547370
7626555610
7626561835
7626570136
7626579535
7626585944
7626593940
7626602851
7626609870
7626617499
7626628669
7626634955
7626643744
7626651862
7626658942
7626665961
7626673835
7626685004
7626691230
7626700812
7626709296
7626716681
7626725470
7626733100
7626741766
7626751715
7626761603
7626769476
7626775519
7626784674
7626794501
7626802069
7626810126
7626819525
7626825507
7626834723
7626844488
7626852606
7626861822
7626869452
7626876288
7626883978
7626893377
7626901434
7626907232
7626917486
7626926764
7626938299
7626946478
7626957159
7626965155
7626974432
7626983770
7626994818
7627002508
7627012274
7627018987
7627029547
7627038641
7627047369
7627053167
7627061407
7627070013
7627075628
7627082525
7627091009
7627099615
7627105413
7627115240
7627121343
7627130437
7627136602
7627146123
7627155584
7627163274
7627169256
7627178899
7627185125
7627194890
7627201055
7627210882
7627217107
7627227117
7627236150
7627243901
7627250249
7627259771
7627265935
7627275823
7627284490
7627292180
7627298406
7627307500
7627313542
7627320378
7627329228
7627338323
7627347173
7627354802
7627364690
7627373235
7627382268
7627391057
7627397466
7627409184
7627418278
7627435063
7627448247
7627464055
7627480290
7627490971
7627500737
7627514470
7627525883
7627537602
7627547551
7627553532
7627563176
7627571598
7627578617
7627586735
7627595951
7627604435
7627612431
7627619694
7627629399
7627635136
7627642948
7627652775
7627659855
7627669254
7627677067
7627685917
7627692448
7627701359
7627712711
7627723026
7627729801
7627738956
7627745609
7627754642
7627761844
7627770023
7627778080
7627785648
7627794498
7627801639
7627809696
7627816898
7627824100
7627832584
7627839481
7627847599
7627854557
7627861148
7627869266
7627877689
7627883121
7627891361
7627898319
7627906253
7627911991
7627920108
7627925601
7627933658
7627941593
7627948184
7627956668
7627963687
7627971133
7627979678
7627987491
7627995364
7628002017
7628009769
7628018314
7628025699
7628033572
7628040530
7628048465
7628055362
7628061893
7628069949
7628076968
7628084964
7628092044
7628099978
7628106753
7628115298
7628119937
7628128482
7628138430
7628144412
7628153933
7628161807
7628166690
7628175723
7628182192
7628188723
7628197940
7628204348
7628212954
7628220095
7628227297
7628234866
7628242068
7628247683
7628257937
7628265505
7628272341
7628280032
7628287051
7628295107
7628302920
7628311282
7628317629
7628327090
7628333498
7628341433
7628347658
7628355471
7628361757
7628369387
7628378725
7628386171
7628391054
7628400698
7628406557
7628414675
7628421450
7628429262
7628436647
7628441103
7628451174
7628456423
7628463442
7628470095
7628475649
7628483766
7628489870
7628495607
7628501589
7628508608
7628513429
7628518984
7628526369
7628533083
7628537966
7628544435
7628548952
7628555483
7628561525
7628567018
7628574892
7628579408
7628584718
7628591188
7628597536
7628603334
7628609499
7628614503
7628621706
7628626344
7628633180
7628638002
7628645021
7628650819
7628656495
7628663698
7628671083
7628677308
7628683046
7628688051
7628693605
7628699525
7628705079
7628711854
7628719484
7628724000
7628729982
7628735353
7628743348
7628749330
7628756105
7628762941
7628770265
7628776795
7628783570
7628790284
7628796998
7628802308
7628809449
7628816407
7628825379
7628830995
7628840150
7628847291
7628856568
7628863953
7628871766
7628877930
7628887025
7628892884
7628901124
7628908631
7628915284
7628921693
7628927918
7628936646
7628945252
7628952454
7628958863
7628965760
7628971985
7628979676
7628986084
7628992066
7629000245
7629005616
7629013672
7629019715
7629025879
7629032044
7629039063
7629047791
7629057740
7629062805
7629072205
7629077698
7629086609
7629092591
7629100403
7629108765
7629117554
7629123718
7629132263
7629138489
7629144959
7629152222
7629158569
7629166748
7629175110
7629180481
7629188293
7629194519
7629200500
7629205872
7629214661
7629222046
7629228638
7629235290
7629241455
7629247558
7629254272
7629261902
7629268554
7629275268
7629282470
7629289184
7629295837
7629302002
7629308715
7629316345
7629323120
7629331359
7629338562
7629345703
7629350708
7629357788
7629364379
7629371643
7629378478
7629384399
7629390747
7629398864
7629406249
7629411559
7629418334
7629424743
7629432800
7629439819
7629449035
7629456359
7629462524
7629469970
7629476440
7629483825
7629490539
7629497924
7629507506
7629515014
7629521850
7629529113
7629536010
7629541503
7629549193
7629554626
7629563720
7629571776
7629577758
7629584838
7629591491
7629597472
7629606688
7629611693
7629619017
7629627501
7629635070
7629641845
7629649230
7629655089
7629663573
7629669310
7629677306
7629683776
7629694518
7629700987
7629707152
7629715575
7629721983
7629728514
7629734374
7629744139
7629753722
7629760985
7629766600
7629774535
7629781065
7629791258
7629799315
7629806944
7629814329
7629822203
7629828795
7629835997
7629843992
7629850828
7629857420
7629864195
7629871336
7629878538
7629886534
7629893980
7629902830
7629909788
7629916136
7629925413
7629931395
7629937620
7629944944
7629951170
7629957395
7629964048
7629971006
7629977659
7629985716
7629994383
7630000547
7630007627
7630013304
7630019956
7630025327
7630033994
7630040403
7630049436
7630054990
7630062376
7630067808
7630074644
7630082395
7630087278
7630096189
7630104551
7630111753
7630118284
7630124937
7630131650
7630139219
7630146238
7630153684
7630161374
7630169248
7630175046
7630182432
7630190549
7630195127
7630203550
7630211484
7630217710
7630225644
7630232846
7630240781
7630247373
7630254209
7630260861
7630266538
7630275876
7630283628
7630291196
7630297605
7630304807
7630310544
7630318784
7630326840
7630331174
7630340207
7630349789
7630355710
7630364072
7630369809
7630375790
7630384396
7630391476
7630398434
7630404904
7630412167
7630419919
7630425229
7630430966
7630440243
7630446103
7630454648
7630460751
7630467099
7630475705
7630482113
7630488827
7630496579
7630503354
7630516842
7630524655
7630536496
7630547848
7630557064
7630564633
7630572384
7630580990
7630590756
7630597836
7630604305
7630612911
7630621029
7630626644
7630632931
7630641354
7630648983
7630655209
7630661922
7630670345
7630677181
7630682980
7630690304
7630696896
7630703670
7630711788
7630718136
7630724666
7630731685
7630740108
7630746273
7630754818
7630761898
7630769161
7630776241
7630782039
7630789547
7630795162
7630803768
7630810238
7630818782
7630826717
7630834224
7630840389
7630848445
7630854610
7630864498
7630871150
7630879024
7630887203
7630894344
7630901790
7630908809
7630916744
7630926082
7630933406
7630940547
7630948055
7630955196
7630961177
7630967464
7630974788
7630981685
7630987117
7630994502
7630999751
7631004512
7631011104
7631018733
7631024226
7631031489
7631035640
7631042171
7631049129
7631056636
7631062800
7631068355
7631074885
7631080684
7631086055
7631095515
7631103450
7631109858
7631115901
7631121211
7631127070
7631133540
7631141413
7631147700
7631154170
7631161128
7631166438
7631173396
7631180171
7631186946
7631194575
7631199824
7631205744
7631211909
7631218806
7631225398
7631231928
7631239008
7631245051
7631250666
7631255793
7631262690
7631268000
7631274470
7631279780
7631284541
7631290278
7631296564
7631302302
7631307978
7631314142
7631320490
7631325800
7631331660
7631336970
7631342524
7631347773
7631352839
7631359797
7631364924
7631372065
7631378168
7631383417
7631389093
7631395563
7631402399
7631408258
7631415583
7631421015
7631426508
7631433283
7631438837
7631444757
7631450190
7631455439
7631462213
7631468256
7631474665
7631480646
7631485590
7631491815
7631498468
7631503900
7631511408
7631517023
7631524103
7631529718
7631536005
7631541742
7631548822
7631554620
7631559991
7631565668
7631572748
7631577875
7631583917
7631589227
7631597589
7631602777
7631608758
7631615350
7631620782
7631627252
7631631952
7631638788
7631645257
7631650018
7631655328
7631661676
7631668145
7631672418
7631678949
7631685907
7631692254
7631699517
7631705194
7631709954
7631715387
7631722467
7631730279
7631737970
7631745843
7631753289
7631758538
7631769036
7631774591
7631781121
7631787957
7631795648
7631802178
7631807733
7631815728
7631821832
7631827996
7631835076
7631840264
7631847405
7631853387
7631860406
7631866265
7631871819
7631878655
7631884209
7631890435
7631897576
7631902154
7631909234
7631915276
7631922173
7631927849
7631935174
7631943413
7631949944
7631955926
7631960564
7631966912
7631973748
7631979851
7631984978
7631993279
7631999688
7632006035
7632011834
7632017998
7632024834
7632030999
7632038445
7632044487
7632051018
7632057061
7632062798
7632068840
7632075676
7632081719
7632089653
7632096184
7632102226
7632108879
7632115044
7632121697
7632129997
7632136650
7632142754
7632150810
7632155876
7632164970
7632170525
7632176994
7632184563
7632191276
7632197990
7632204887
7632211540
7632217766
7632223991
7632230583
7632239433
7632247612
7632254143
7632261345
7632269767
7632275444
7632282280
7632288566
7632297172
7632305961
7632311393
7632319267
7632324638
7632331962
7632340080
7632346672
7632352958
7632360527
7632368339
7632375236
7632382865
7632390434
7632397758
7632403983
7632410209
7632423209
7632429130
7632436820
7632445365
7632453178
7632459281
7632466239
7632474296
7632482535
7632487662
7632496024
7632502921
7632508903
7632516715
7632523307
7632531547
7632538016
7632544303
7632551505
7632558463
7632565787
7632573111
7632580253
7632587943
7632595084
7632600943
7632608329
7632616324
7632623465
7632629203
7632636954
7632642997
7632652213
7632657950
7632665396
7632673819
7632679190
7632687552
7632694510
7632701224
7632711844
7632720023
7632726248
7632732962
7632740286
7632746634
7632755118
7632762076
7632769156
7632776480
7632782278
7632790701
7632795462
7632803885
7632810110
7632816702
7632823660
7632830923
7632837881
7632844717
7632850332
7632857046
7632862295
7632870596
7632876455
7632885733
7632892019
7632899405
7632905020
7632911734
7632920217
7632927114
7632934378
7632941214
7632950796
7632957510
7632964285
7632970510
7632977835
7632985525
7632992788
7633000234
7633008230
7633016470
7633023672
7633030691
7633036184
7633043691
7633048940
7633057790
7633065908
7633071767
7633078664
7633087209
7633094167
7633100698
7633106863
7633114248
7633125478
7633132924
7633141469
7633150136
7633156911
7633166738
7633172353
7633179921
7633187673
7633196096
7633202138
7633210683
7633219594
7633226369
7633234120
7633243032
7633249868
7633256032
7633263417
7633268971
7633277089
7633282704
7633292531
7633298451
7633305470
7633314382
7633321584
7633327992
7633335255
7633343190
7633350819
7633358022
7633367238
7633375417
7633381703
7633388783
7633395314
7633401539
7633411122
7633417897
7633424794
7633431752
7633441090
7633446827
7633455128
7633462269
7633469777
7633477345
7633484974
7633492604
7633500660
7633507985
7633515553
7633524525
7633533863
7633540211
7633550038
7633556263
7633565418
7633572743
7633581165
7633588734
7633594898
7633604847
7633611866
7633620106
7633630665
7633638050
7633647511
7633654469
7633662586
7633669056
7633677418
7633683460
7633692982
7633699573
7633706714
7633716053
7633722828
7633731983
7633737415
7633747547
7633755359
7633762562
7633771106
7633778248
7633783619
7633791431
7633800525
7633806568
7633815479
7633823291
7633829700
7633837329
7633846851
7633854785
7633863269
7633869617
7633878467
7633887073
7633894519
7633907031
7633912097
7633921008
7633928455
7633933948
7633938892
7633946216
7633951160
7633960925
7633965442
7633972217
7633979175
7633983630
7633990954
7633995593
7634002917
7634007678
7634016711
7634022021
7634027820
7634033984
7634039782
7634047290
7634052539
7634058154
7634065478
7634069629
7634076892
7634081836
7634089221
7634095019
7634101672
7634106372
7634112658
7634116992
7634122851
7634127673
7634133898
7634141040
7634145007
7634151232
7634157092
7634161914
7634166796
7634173266
7634179736
7634185595
7634190478
7634196276
7634201586
7634206774
7634212756
7634219225
7634225878
7634230273
7634235888
7634240893
7634246508
7634251147
7634257250
7634263232
7634269030
7634273974
7634279589
7634284350
7634289477
7634294421
7634301623
7634307787
7634311449
7634318773
7634323839
7634329149
7634333361
7634339953
7634347521
7634352282
7634357348
7634363085
7634368151
7634374315
7634379503
7634386705
7634392992
7634397081
7634402941
7634409288
7634413378
7634420214
7634426378
7634432665
7634443651
7634450914
7634457689
7634464647
7634472643
7634479784
7634486681
7634493028
7634497667
7634504137
7634511461
7634518663
7634523973
7634531603
7634536546
7634545213
7634550035
7634556627
7634563829
7634569749
7634576524
7634582384
7634588670
7634594591
7634601121
7634607103
7634613267
7634619127
7634626756
7634632738
7634638536
7634644639
7634651048
7634657029
7634663194
7634669175
7634675096
7634682542
7634688951
7634694444
7634702073
7634707566
7634714769
7634720445
7634727037
7634734056
7634740037
7634745469
7634751329
7634758470
7634764207
7634771348
7634776780
7634784043
7634791184
7634797349
7634802171
7634809129
7634816270
7634823838
7634829881
7634835191
7634840684
7634845017
7634852097
7634858994
7634864609
7634870469
7634876939
7634882859
7634890000
7634896775
7634902817
7634909104
7634916245
7634922715
7634927414
7634934067
7634939255
7634946763
7634953721
7634960068
7634967026
7634973130
7634981064
7634986802
7634992844
7635000595
7635007004
7635015976
7635024521
7635030991
7635037216
7635044724
7635052231
7635057541
7635068894
7635075913
7635083481
7635094528
7635101425
7635106003
7635113815
7635123581
7635129746
7635136948
7635144516
7635148972
7635157516
7635163315
7635171249
7635178574
7635185348
7635194748
7635200973
7635208786
7635214340
7635221786
7635228744
7635235519
7635242294
7635249984
7635256210
7635263107
7635269821
7635278183
7635283249
7635291122
7635298629
7635306076
7635314437
7635321823
7635329452
7635337265
7635343307
7635351242
7635357589
7635365707
7635373763
7635380233
7635386154
7635394515
7635400924
7635407638
7635416610
7635422897
7635431136
7635436996
7635443771
7635451827
7635460067
7635468001
7635475082
7635482467
7635490645
7635496688
7635505050
7635511886
7635520492
7635525985
7635534102
7635541671
7635548995
7635555098
7635563887
7635572188
7635580794
7635586898
7635595443
7635601302
7635609603
7635616744
7635626204
7635633712
7635642501
7635648787
7635656417
7635664168
7635673079
7635680342
7635689436
7635696639
7635705489
7635715498
7635728865
7635736189
7635749434
7635758833
7635765364
7635774580
7635782393
7635792036
7635797774
7635806868
7635813338
7635819807
7635827192
7635835798
7635842451
7635849165
7635855940
7635865034
7635871809
7635880293
7635885481
7635892683
7635899885
7635907148
7635915205
7635922529
7635929365
7635936567
7635944197
7635951521
7635958051
7635965437
7635971052
7635978803
7635984724
7635994611
7636003339
7636010603
7636017683
7636025190
7636032270
7636038679
7636047590
7636055830
7636061384
7636068220
7636077192
7636082319
7636091535
7636097272
7636107404
7636114423
7636121747
7636129560
7636137433
7636144635
7636152692
7636156904
7636167157
7636173810
7636181501
7636190778
7636197492
7636204816
7636212384
7636219831
7636229047
7636238324
7636245954
7636253095
7636261640
7636269025
7636275861
7636283551
7636290692
7636298627
7636307782
7636315778
7636327313
7636335126
7636342694
7636348431
7636354901
7636364484
7636374371
7636381879
7636388959
7636397015
7636405743
7636413617
7636420636
7636428570
7636434918
7636443646
7636449994
7636458905
7636468975
7636479901
7636487652
7636496930
7636505413
7636515972
7636524578
7636533734
7636541607
7636549114
7636558819
7636564617
7636577313
7636583782
7636592083
7636598675
7636607891
7636613628
7636622967
7636630108
7636636456
7636644756
7636652996
7636659954
7636665935
7636673077
7636680096
7636689007
7636694927
7636702068
7636709453
7636716533
7636720440
7636731914
7636739971
7636749004
7636755901
7636762066
7636770305
7636775859
7636784038
7636793377
7636799846
7636808269
7636814250
7636820293
7636827556
7636834209
7636840068
7636846904
7636853191
7636858501
7636864543
7636868694
7636876567
7636883464
7636889995
7636894450
7636902568
7636907878
7636913554
7636920573
7636926250
7636932964
7636938518
7636945293
7636951335
7636958171
7636967082
7636972392
7636980266
7636986857
7636992534
7636998576
7637006267
7637013774
7637019755
7637025920
7637032817
7637037272
7637046000
7637052409
7637058024
7637065226
7637070353
7637076457
7637082316
7637090617
7637097575
7637103434
7637110697
7637117472
7637124064
7637128886
7637134867
7637141459
7637150126
7637155802
7637164591
7637171000
7637175456
7637182780
7637188151
7637194315
7637199503
7637205485
7637209452
7637215861
7637221720
7637228373
7637233988
7637237955
7637245463
7637249430
7637256937
7637263956
7637269388
7637273905
7637280436
7637284769
7637291117
7637296122
7637302408
7637308939
7637313273
7637318766
7637324686
7637331217
7637335245
7637342447
7637347879
7637355448
7637361490
7637366983
7637373209
7637379068
7637386087
7637394083
7637399759
7637406473
7637412577
7637418375
7637423807
7637428141
7637435465
7637444010
7637451029
7637456034
7637462564
7637467508
7637473978
7637480264
7637486063
7637495340
7637500711
7637507913
7637515115
7637521036
7637526407
7637532388
7637539102
7637546304
7637552713
7637558145
7637564920
7637570474
7637578592
7637585794
7637592203
7637598550
7637604593
7637611307
7637616372
7637622476
7637629251
7637637368
7637642862
7637650430
7637655862
7637663369
7637671060
7637676797
7637684121
7637690896
7637697122
7637703347
7637712381
7637716897
7637724771
7637733377
7637739419
7637747048
7637751809
7637759255
7637764993
7637770913
7637777261
7637784097
7637788735
7637795327
7637803262
7637808938
7637817300
7637823586
7637830422
7637838296
7637843423
7637851113
7637856789
7637864846
7637870705
7637878396
7637885842
7637891823
7637898537
7637904824
7637910256
7637917031
7637925210
7637931435
7637937844
7637943886
7637952675
7637959084
7637967507
7637975441
7637980873
7637987954
7637996804
7638002053
7638010109
7638017128
7638023964
7638030739
7638037941
7638044228
7638052040
7638058144
7638066200
7638073158
7638079567
7638085671
7638092934
7638101479
7638108986
7638116066
7638124001
7638131264
7638139809
7638147987
7638154030
7638162208
7638168800
7638176369
7638186073
7638192665
7638199318
7638209389
7638216835
7638224525
7638232338
7638240455
7638247291
7638255287
7638262672
7638270301
7638278541
7638286537
7638295936
7638302528
7638311805
7638319984
7638324989
7638333473
7638341041
7638349098
7638356361
7638363685
7638371314
7638378089
7638385108
7638390785
7638399207
7638404945
7638413245
7638420509
7638426978
7638433753
7638441199
7638448218
7638455970
7638462928
7638471961
7638478614
7638486182
7638493567
7638501319
7638507239
7638516822
7638523597
7638529151
7638538611
7638545813
7638553626
7638560157
7638568213
7638575110
7638581092
7638587928
7638595862
7638603369
7638610205
7638617896
7638624732
7638632239
7638638770
7638645239
7638653540
7638659888
7638666235
7638672522
7638680762
7638688391
7638695776
7638704810
7638711340
7638720801
7638726599
7638735937
7638744238
7638753027
7638762671
7638770666
7638777014
7638783667
7638792273
7638802405
7638806494
7638815588
7638824438
7638831457
7638837805
7638846777
7638853979
7638861303
7638868139
7638876806
7638885290
7638891149
7638899816
7638907141
7638916662
7638923010
7638931860
7638939794
7638945715
7638955053
7638963232
7638969335
7638982397
7638990087
7638998083
7639006139
7639014623
7639021764
7639028356
7639038122
7639047826
7639055761
7639063207
7639070653
7639080175
7639085790
7639095128
7639100377
7639110509
7639118078
7639125402
7639131871
7639139867
7639144017
7639154760
7639161229
7639169225
7639177648
7639183873
7639191198
7639198644
7639205968
7639212743
7639222814
7639229589
7639237645
7639241857
7639252782
7639259984
7639267980
7639274205
7639281712
7639288915
7639296178
7639305699
7639313756
7639320897
7639327672
7639335606
7639342808
7639350743
7639359288
7639365147
7639374241
7639379185
7639389073
7639394688
7639404698
7639412510
7639419957
7639426487
7639434544
7639441441
7639451512
7639458287
7639464451
7639472813
7639480564
7639487034
7639495945
7639502354
7639508641
7639518040
7639525242
7639532322
7639539463
7639547581
7639556431
7639564549
7639572178
7639580174
7639587864
7639593967
7639602695
7639610691
7639616917
7639625462
7639632236
7639639683
7639648716
7639655613
7639664951
7639672275
7639679416
7639686985
7639694309
7639701694
7639710727
7639716831
7639725681
7639732517
7639739048
7639746189
7639754551
7639760471
7639767917
7639775852
7639783237
7639789951
7639794956
7639804477
7639815708
7639822177
7639827670
7639833896
7639841342
7639847263
7639854953
7639863193
7639867832
7639874728
7639879367
7639887363
7639892978
7639898776
7639903476
7639910739
7639917087
7639923068
7639929111
7639934848
7639939487
7639948215
7639953891
7639961032
7639966403
7639972140
7639978244
7639983920
7639989047
7639997409
7640002414
7640008761
7640014865
7640019259
7640026400
7640030612
7640037997
7640044528
7640049899
7640054477
7640061251
7640066256
7640072909
7640077548
7640084262
7640089877
7640094699
7640101107
7640105868
7640111178
7640117465
7640122775
7640129000
7640134493
7640141207
7640146639
7640151400
7640157870
7640162264
7640169650
7640175692
7640181979
7640189181
7640193636
7640200411
7640205050
7640212069
7640219515
7640224215
7640231844
7640236788
7640242281
7640248629
7640255770
7640261873
7640267122
7640274752
7640282137
7640288668
7640295809
7640301668
7640308260
7640315279
7640320223
7640326876
7640337008
7640342745
7640350252
7640357882
7640365816
7640372347
7640377962
7640387056
7640393953
7640400179
7640406465
7640414095
7640419893
7640427339
7640433931
7640439546
7640445223
7640452303
7640458528
7640465547
7640469759
7640476900
7640483064
7640490083
7640496736
7640501863
7640508394
7640515413
7640520601
7640528291
7640535371
7640541841
7640547883
7640554841
7640560884
7640567842
7640573945
7640580415
7640586885
7640592561
7640600068
7640606294
7640612275
7640617769
7640625459
7640632539
7640638276
7640643708
7640651765
7640657563
7640667146
7640673616
7640682893
7640690278
7640698518
7640706452
7640713899
7640719819
7640726045
7640732636
7640738679
7640744660
7640751435
7640757111
7640764741
7640771088
7640777497
7640783295
7640789216
7640795502
7640802216
7640809480
7640816010
7640821442
7640828828
7640834443
7640841218
7640847748
7640853120
7640860688
7640865388
7640874238
7640879731
7640885590
7640892365
7640899994
7640906586
7640911347
7640919648
7640924530
7640931977
7640938996
7640945343
7640953461
7640959137
7640965424
7640973297
7640979706
7640987702
7640994599
7641002411
7641014008
7641018707
7641025910
7641030914
7641037995
7641044281
7641053375
7641059662
7641066803
7641073090
7641079193
7641085175
7641090485
7641098053
7641104767
7641110687
7641116974
7641123260
7641130646
7641136932
7641143768
7641149994
7641156097
7641162323
7641168426
7641175018
7641182159
7641188751
7641195709
7641202240
7641209503
7641215973
7641223541
7641230316
7641236480
7641243133
7641250824
7641257415
7641265289
7641272186
7641279327
7641286102
7641292816
7641299468
7641306426
7641313262
7641319488
7641326202
7641333404
7641340911
7641348113
7641355377
7641361175
7641370208
7641376983
7641386749
7641393401
7641400787
7641406585
7641414458
7641422027
7641429229
7641435638
7641442840
7641451324
7641457061
7641465667
7641472808
7641479583
7641485381
7641492766
7641502105
7641508758
7641516021
7641522796
7641528655
7641537505
7641544890
7641553679
7641559294
7641567900
7641575652
7641582427
7641587676
7641597075
7641603301
7641611357
7641618926
7641626677
7641634490
7641641814
7641645598
7641655058
7641665190
7641677214
7641687468
7641695280
7641704253
7641711699
7641721831
7641729033
7641737212
7641745878
7641755400
7641762785
7641773833
7641782133
7641789580
7641798185
7641805693
7641814055
7641821318
7641826811
7641836882
7641843840
7641851652
7641858610
7641866423
7641875029
7641879972
7641889311
7641895780
7641904875
7641912504
7641919523
7641926176
7641933195
7641941129
7641948148
7641954496
7641962064
7641970365
7641977567
7641983488
7641990873
7642000211
7642008146
7642013822
7642021452
7642029142
7642033781
7642043485
7642050138
7642057523
7642066434
7642073392
7642079313
7642086820
7642092618
7642100126
7642107816
7642116178
7642126371
7642133268
7642138700
7642146329
7642153043
7642160245
7642168363
7642173062
7642184171
7642192472
7642200650
7642209012
7642216764
7642225125
7642232877
7642241788
7642250272
7642258511
7642266202
7642272122
7642280789
7642286771
7642295377
7642303067
7642310086
7642319241
7642325345
7642332486
7642339322
7642346524
7642353360
7642360257
7642367825
7642374844
7642384610
7642390774
7642398160
7642405301
7642412625
7642416836
7642425686
7642432400
7642440884
7642450650
7642458767
7642464993
7642474026
7642480374
7642489590
7642496304
7642504971
7642511440
7642519619
7642526394
7642534512
7642541226
7642547817
7642555996
7642563686
7642573391
7642579983
7642587490
7642594387
7642602566
7642612820
7642620266
7642627529
7642635097
7642641018
7642649380
7642655178
7642661953
7642670620
7642677089
7642684047
7642694179
7642701320
7642707363
7642714687
7642722622
7642730007
7642735988
7642743435
7642753749
7642761745
7642768276
7642772548
7642780727
7642786098
7642793849
7642799770
7642808620
7642814479
7642821987
7642828273
7642832179
7642837612
7642844020
7642850124
7642857448
7642863063
7642868739
7642875636
7642880092
7642887050
7642891444
7642898585
7642903712
7642910976
7642915431
7642922145
7642927882
7642932887
7642938563
7642943812
7642950099
7642956752
7642961391
7642967677
7642972987
7642979335
7642984096
7642991725
7642998317
7643004664
7643010035
7643014247
7643020411
7643024806
7643032374
7643040797
7643046351
7643050807
7643057093
7643062281
7643066676
7643072657
7643078578
7643083216
7643089442
7643094691
7643100489
7643106288
7643112391
7643118983
7643125514
7643131678
7643137110
7643143092
7643149378
7643154017
7643161585
7643168604
7643174525
7643179652
7643185450
7643190394
7643195704
7643201563
7643208887
7643214259
7643219813
7643226527
7643233057
7643239344
7643246241
7643252588
7643257960
7643263392
7643269861
7643275110
7643281153
7643286707
7643292933
7643299585
7643304590
7643311304
7643314051
7643323267
7643328882
7643334558
7643341761
7643349024
7643353968
7643359644
7643366663
7643371790
7643378260
7643383997
7643390222
7643397119
7643401636
7643408167
7643414087
7643420618
7643426660
7643431665
7643439905
7643444788
7643452295
7643456934
7643463281
7643467859
7643475855
7643482935
7643490137
7643494653
7643502039
7643507532
7643514123
7643522180
7643527490
7643534570
7643540002
7643547204
7643552148
7643559289
7643564721
7643570215
7643577844
7643584985
7643590173
7643596704
7643601342
7643607934
7643614282
7643619165
7643626672
7643631189
7643637597
7643643457
7643649072
7643653527
7643662561
7643670373
7643676416
7643682397
7643688561
7643694116
7643702477
7643708947
7643715539
7643722924
7643727441
7643736718
7643742639
7643749963
7643754540
7643762780
7643769311
7643775109
7643781396
7643787988
7643793420
7643800011
7643805199
7643812402
7643818566
7643824670
7643830712
7643837243
7643842797
7643847191
7643853722
7643861352
7643867760
7643874108
7643879662
7643885155
7643892113
7643896630
7643906884
7643913598
7643920617
7643925194
7643933129
7643938195
7643945336
7643952538
7643958519
7643964684
7643972252
7643976891
7643984764
7643990685
7643997887
7644002892
7644010826
7644018273
7644023461
7644031700
7644036827
7644043236
7644050438
7644055321
7644062950
7644071068
7644078331
7644085411
7644091942
7644101341
7644108055
7644116295
7644126243
7644133263
7644139366
7644148704
7644155418
7644163414
7644171226
7644179100
7644187462
7644195091
7644202049
7644208946
7644214866
7644221519
7644226768
7644235313
7644243370
7644250389
7644256614
7644263450
7644268882
7644276268
7644282066
7644290855
7644298362
7644305320
7644310935
7644321433
7644328330
7644335777
7644343162
7644352866
7644361655
7644369041
7644375449
7644384666
7644390830
7644399985
7644410850
7644417319
7644427573
7644433005
7644443625
7644450522
7644460471
7644466697
7644475974
7644482444
7644492392
7644498801
7644507102
7644514304
7644520041
7644530234
7644535727
7644543601
7644551413
7644559470
7644565940
7644574851
7644581137
7644589499
7644598654
7644603659
7644613059
7644621237
7644628500
7644636496
7644643881
7644651328
7644659384
7644666220
7644674216
7644681052
7644689108
7644695334
7644704550
7644710776
7644718527
7644727682
7644734884
7644742880
7644750082
7644759970
7644767233
7644774496
7644780844
7644788778
7644795797
7644803671
7644812155
7644819967
7644826437
7644833456
7644842977
7644850119
7644857443
7644863729
7644873983
7644880697
7644888693
7644895040
7644903036
7644912679
7644918722
7644925070
7644934042
7644940572
7644951620
7644959127
7644964132
7644973226
7644980978
7644986959
7644993673
7645003744
7645011739
7645020101
7645028402
7645034688
7645041891
7645049276
7645056112
7645064473
7645073812
7645081991
7645089986
7645095907
7645105001
7645111104
7645117330
7645127401
7645134664
7645143148
7645152364
7645160176
7645168233
7645176351
7645184651
7645191609
7645200215
7645208699
7645216573
7645225728
7645233540
7645240437
7645247762
7645256307
7645262898
7645274007
7645281270
7645288106
7645295369
7645303731
7645309529
7645318257
7645326131
7645333638
7645342671
7645348713
7645358235
7645367634
7645375935
7645383809
7645391926
7645398274
7645406514
7645415425
7645423359
7645429707
7645436909
7645446308
7645452351
7645461872
7645469013
7645478413
7645485554
7645493244
7645499714
7645507832
7645514607
7645522724
7645529194
7645538349
7645544697
7645553364
7645561726
7645567524
7645576801
7645584003
7645591267
7645598164
7645608845
7645620075
7645628010
7645633808
7645641620
7645648945
7645656940
7645665058
7645673053
7645680927
7645689411
7645698200
7645706318
7645712909
7645720905
7645729877
7645738117
7645745868
7645753803
7645758502
7645769184
7645776935
7645784931
7645795612
7645801410
7645810626
7645818805
7645826251
7645834796
7645841632
7645848224
7645858356
7645864520
7645873126
7645879962
7645885394
7645892230
7645898273
7645902972
7645911273
7645918048
7645924151
7645929767
7645934955
7645941180
7645946185
7645951556
7645960040
7645967242
7645972186
7645978717
7645986163
7645991717
7645996112
7646006060
7646014239
7646019671
7646024554
7646031634
7646037371
7646042315
7646047564
7646055743
7646060565
7646067584
7646073138
7646079547
7646085467
7646091204
7646095355
7646102252
7646108294
7646114886
7646120318
7646126055
7646131365
7646135943
7646142352
7646148638
7646153460
7646158648
7646164385
7646169085
7646174883
7646179034
7646185137
7646191180
7646196978
7646202105
7646208025
7646213030
7646218157
7646224749
7646230730
7646237566
7646242205
7646248003
7646252459
7646258135
7646262713
7646268755
7646274370
7646278521
7646285601
7646289629
7646295549
7646301592
7646306902
7646314837
7646319719
7646324358
7646330950
7646336260
7646342668
7646347368
7646353777
7646359697
7646366167
7646371355
7646377214
7646382585
7646386858
7646393572
7646400835
7646406816
7646412187
7646419389
7646425371
7646431169
7646436418
7646442217
7646450273
7646455827
7646460954
7646468034
7646472185
7646479387
7646485307
7646492387
7646497331
7646504533
7646510026
7646518388
7646524309
7646531022
7646536577
7646545305
7646551286
7646558732
7646564592
7646570634
7646577409
7646583452
7646591264
7646596879
7646603593
7646609086
7646615739
7646621293
7646627458
7646633500
7646640885
7646647355
7646653764
7646659562
7646663590
7646670487
7646675614
7646682511
7646690080
7646695390
7646701188
7646707475
7646713212
7646719254
7646724992
7646732316
7646739335
7646745683
7646751054
7646757523
7646762711
7646769120
7646776017
7646783952
7646787492
7646796159
7646801469
7646807206
7646814408
7646820389
7646826676
7646832413
7646839127
7646844193
7646849320
7646856278
7646861039
7646868424
7646874344
7646879960
7646885819
7646892472
7646897538
7646904068
7646909256
7646916092
7646921219
7646928238
7646934769
7646941239
7646947464
7646953934
7646960099
7646968765
7646975113
7646980606
7646989517
7646996903
7647003678
7647011429
7647018814
7647025589
7647033707
7647039749
7647047012
7647054337
7647059097
7647067398
7647072891
7647082046
7647088455
7647094986
7647100601
7647107559
7647113296
7647122085
7647128860
7647136612
7647147354
7647152908
7647160782
7647167251
7647174576
7647180801
7647190262
7647197891
7647205276
7647212600
7647219558
7647228408
7647234146
7647243728
7647251541
7647256607
7647262893
7647270400
7647277664
7647282546
7647288772
7647294937
7647304214
7647310012
7647318191
7647327468
7647335708
7647344009
7647352187
7647359512
7647367202
7647373122
7647379897
7647387832
7647392898
7647399917
7647406814
7647412673
7647421218
7647429214
7647436110
7647441543
7647448745
7647455947
7647460586
7647469619
7647476333
7647484633
7647490371
7647498732
7647503981
7647511977
7647517409
7647526076
7647533278
7647540053
7647547011
7647553054
7647560500
7647566603
7647573989
7647580580
7647588454
7647595961
7647599745
7647611159
7647616957
7647623854
7647631117
7647638319
7647646132
7647652968
7647660109
7647665541
7647673720
7647678236
7647686903
7647693617
7647700819
7647708082
7647717116
7647724013
7647730787
7647736586
7647745802
7647751845
7647759169
7647766981
7647774977
7647781691
7647789076
7647796339
7647805128
7647810743
7647819166
7647826124
7647833021
7647842298
7647849195
7647859327
7647866773
7647875318
7647884962
7647893934
7647902906
7647909925
7647919813
7647927198
7647934766
7647941969
7647950575
7647961439
7647968031
7647978040
7647983350
7647992261
7647999341
7648006544
7648012342
7648022291
7648029859
7648037122
7648044690
7648051465
7648057325
7648064832
7648071424
7648080762
7648087354
7648095227
7648102063
7648109449
7648116101
7648124768
7648130628
7648137159
7648147718
7648153577
7648162793
7648168530
7648177197
7648184949
7648191602
7648198010
7648208630
7648216748
7648223889
7648231336
7648238171
7648245435
7648252759
7648260022
7648265576
7648274976
7648283032
7648289197
7648296643
7648302685
7648309704
7648318371
7648323193
7648332348
7648339184
7648348462
7648354992
7648362011
7648369030
7648375988
7648382153
7648389538
7648398266
7648405957
7648414318
7648422802
7648431652
7648438793
7648446606
7648454357
7648462597
7648472546
7648480602
7648487255
7648494396
7648501171
7648507397
7648515514
7648525341
7648532665
7648539013
7648547131
7648556652
7648563732
7648571178
7648580334
7648586437
7648595531
7648600719
7648610119
7648615368
7648622814
7648631481
7648637462
7648647350
7648653026
7648662975
7648669079
7648678356
7648686535
7648692577
7648701915
7648710704
7648718639
7648726696
7648731761
7648741344
7648750560
7648756908
7648764049
7648773631
7648781139
7648789684
7648797496
7648803722
7648813060
7648822276
7648830516
7648838939
7648846690
7648855052
7648860423
7648866283
7648875072
7648880443
7648888988
7648895152
7648903087
7648910716
7648917369
7648923900
7648931102
7648936229
7648943553
7648949473
7648956126
7648961985
7648967784
7648972178
7648978648
7648984813
7648989940
7648997264
7649001658
7649008555
7649014598
7649020945
7649025889
7649031382
7649039805
7649045176
7649050303
7649056773
7649065013
7649071787
7649078196
7649083262
7649090342
7649096690
7649102366
7649107493
7649114268
7649119822
7649127207
7649132456
7649139536
7649144480
7649150340
7649155955
7649161570
7649166392
7649173594
7649178843
7649183237
7649189585
7649195566
7649200083
7649205637
7649211924
7649216624
7649222788
7649227732
7649232859
7649238352
7649243662
7649249888
7649254465
7649261362
7649266062
7649272898
7649277781
7649284861
7649291697
7649297190
7649304636
7649309641
7649318613
7649325083
7649331980
7649338388
7649345285
7649352548
7649359506
7649365915
7649372141
7649378916
7649384348
7649390939
7649396127
7649401987
7649408151
7649413034
7649419321
7649424875
7649431711
7649438242
7649443185
7649450143
7649456796
7649462656
7649467416
7649474252
7649481027
7649487253
7649493661
7649501047
7649506723
7649512582
7649519967
7649525644
7649533700
7649539071
7649544259
7649550912
7649556283
7649562753
7649568002
7649575204
7649581735
7649586557
7649592965
7649598886
7649604684
7649610849
7649616464
7649625192
7649631051
7649637033
7649642770
7649648263
7649654000
7649659860
7649665658
7649673959
7649679208
7649683969
7649691110
7649695809
7649703317
7649708566
7649714181
7649721871
7649728951
7649733590
7649740182
7649745004
7649751656
7649757455
7649765145
7649771615
7649776559
7649783517
7649788216
7649795357
7649801827
7649807564
7649814828
7649820687
7649826241
7649833321
7649838631
7649844246
7649849801
7649855721
7649862679
7649871041
7649877449
7649882698
7649889595
7649896187
7649900093
7649907601
7649916024
7649920601
7649927498
7649934822
7649941536
7649949532
7649955391
7649963692
7649970162
7649977303
7649983589
7649989266
7649996651
7650002144
7650009407
7650013863
7650021858
7650026436
7650033150
7650037788
7650046577
7650052742
7650060371
7650067512
7650073128
7650080940
7650086555
7650094002
7650100105
7650106270
7650113899
7650119026
7650126228
7650131538
7650138740
7650145149
7650151191
7650157356
7650164924
7650170784
7650177986
7650182624
7650189949
7650195686
7650203376
7650210456
7650217781
7650222419
7650230415
7650236518
7650242988
7650250923
7650257881
7650265388
7650272102
7650279060
7650285163
7650290901
7650299384
7650305366
7650312629
7650321052
7650329902
7650334602
7650341987
7650349738
7650357307
7650363227
7650370856
7650379401
7650387458
7650393622
7650401252
7650407050
7650414130
7650422675
7650428901
7650436042
7650443366
7650452277
7650459357
7650466010
7650474006
7650480780
7650487311
7650493110
7650502326
7650510260
7650518134
7650525458
7650533271
7650540778
7650548041
7650556220
7650566535
7650575263
7650581976
7650590582
7650597968
7650605170
7650612982
7650620245
7650630560
7650639105
7650645819
7650651678
7650660101
7650667548
7650673285
7650681097
7650687628
7650695074
7650704291
7650709234
7650717840
7650723639
7650732428
7650737860
7650745306
7650752203
7650761847
7650766851
7650774298
7650782537
7650789923
7650796881
7650802557
7650813665
7650821600
7650828253
7650835638
7650841436
7650848944
7650854742
7650861761
7650871465
7650878851
7650886236
7650892950
7650901373
7650908392
7650915838
7650922918
7650932012
7650939336
7650947088
7650954473
7650962774
7650977117
7650984075
7650991277
7650997625
7651007085
7651015630
7651021306
7651028936
7651036382
7651043645
7651051885
7651058721
7651066777
7651073064
7651078862
7651087163
7651094365
7651103582
7651111211
7651120916
7651127751
7651134282
7651142705
7651148015
7651158452
7651166997
7651175298
7651182622
7651189641
7651198430
7651204289
7651214909
7651224736
7651232976
7651241582
7651249394
7651254399
7651262822
7651271428
7651281438
7651291447
7651300114
7651306767
7651315434
7651322819
7651334172
7651340336
7651350285
7651356328
7651365300
7651374211
7651380070
7651386723
7651395939
7651405400
7651411686
7651420170
7651427006
7651435063
7651442997
7651453312
7651462467
7651468510
7651476627
7651482548
7651490116
7651498844
7651508915
7651517155
7651527287
7651534367
7651541386
7651551151
7651558475
7651567081
7651576176
7651584293
7651593082
7651599064
7651605961
7651614872
7651624149
7651630924
7651638920
7651647159
7651655338
7651662357
7651669376
7651677799
7651684391
7651693119
7651699466
7651707828
7651715396
7651723209
7651731815
7651739505
7651746952
7651753482
7651760318
7651770084
7651777835
7651787235
7651794864
7651801578
7651808109
7651815616
7651822330
7651829288
7651837283
7651843204
7651851810
7651858523
7651863284
7651870547
7651877872
7651883670
7651889041
7651895755
7651902347
7651907535
7651913760
7651920413
7651924991
7651931338
7651938479
7651945254
7651951724
7651958316
7651964053
7651969668
7651978152
7651984866
7651991336
7651997988
7652003482
7652010806
7652017886
7652025271
7652030276
7652036379
7652041323
7652048098
7652052981
7652060244
7652065615
7652069521
7652076541
7652082522
7652088992
7652095034
7652100039
7652105349
7652110842
7652117251
7652121951
7652128176
7652133242
7652139529
7652144961
7652149355
7652156130
7652162173
7652168337
7652172304
7652177492
7652183657
7652188845
7652195681
7652201296
7652206179
7652212771
7652216799
7652223696
7652231142
7652237490
7652243471
7652250612
7652255739
7652262880
7652269838
7652276369
7652281679
7652288820
7652295351
7652300295
7652308412
7652316164
7652325624
7652332460
7652338564
7652344911
7652353029
7652359804
7652365785
7652371645
7652378237
7652385622
7652392458
7652398988
7652405214
7652411623
7652418214
7652423341
7652431398
7652439272
7652447389
7652455385
7652461610
7652471071
7652477113
7652485780
7652491517
7652498170
7652504396
7652512208
7652519166
7652524354
7652531801
7652538392
7652545961
7652552919
7652559449
7652566591
7652573671
7652580201
7652586854
7652593751
7652599610
7652604676
7652611085
7652619325
7652624635
7652631043
7652637086
7652643617
7652650941
7652655824
7652663453
7652669923
7652676515
7652682801
7652688050
7652695741
7652702699
7652709412
7652716370
7652722779
7652728944
7652736634
7652744141
7652750977
7652756592
7652763550
7652769471
7652776612
7652782288
7652789612
7652795472
7652802613
7652809022
7652815613
7652821839
7652830567
7652835938
7652844056
7652851807
7652858338
7652867127
7652873658
7652881470
7652890381
7652896851
7652904541
7652912110
7652920166
7652927246
7652933777
7652942017
7652951111
7652958374
7652965332
7652976013
7652984131
7652992310
7652997253
7653007935
7653015320
7653024109
7653031799
7653041321
7653048706
7653057068
7653066772
7653073303
7653081604
7653090271
7653099792
7653107666
7653115234
7653122009
7653131836
7653138550
7653147033
7653152649
7653159851
7653166687
7653175293
7653180664
7653192260
7653197204
7653205871
7653213806
7653220336
7653228881
7653235961
7653243163
7653249999
7653258666
7653267272
7653276489
7653282836
7653290649
7653299011
7653311706
7653318420
7653327941
7653334289
7653341735
7653350646
7653356139
7653364745
7653372619
7653380187
7653387633
7653395202
7653404296
7653410216
7653419921
7653427184
7653436705
7653444823
7653451171
7653459349
7653468688
7653474364
7653484191
7653491881
7653498961
7653506774
7653512999
7653522338
7653529723
7653537474
7653546385
7653554015
7653561217
7653569151
7653576293
7653584044
7653591612
7653599608
7653606627
7653616270
7653622435
7653630309
7653637144
7653644591
7653653563
7653659239
7653668394
7653676085
7653683592
7653691038
7653698118
7653705809
7653712095
7653722532
7653734984
7653741209
7653751585
7653758482
7653764647
7653774961
7653782103
7653793089
7653800047
7653809507
7653816404
7653823728
7653831175
7653839720
7653846983
7653855039
7653863889
7653871946
7653878233
7653887144
7653895567
7653900755
7653910032
7653917844
7653925230
7653932859
7653940122
7653947263
7653955991
7653965147
7653971006
7653977415
7653987852
7653996763
7654008237
7654015683
7654023923
7654032834
7654039548
7654047910
7654056150
7654063352
7654070310
7654079709
7654085691
7654095212
7654101682
7654111081
7654116818
7654125058
7654132871
7654140988
7654148618
7654156491
7654164243
7654172421
7654178830
7654185239
7654195248
7654203488
7654210202
7654217526
7654226926
7654233762
7654241391
7654247678
7654258420
7654266110
7654274594
7654281735
7654287045
7654292782
7654301694
7654309384
7654315487
7654326840
7654338498
7654346066
7654356076
7654362118
7654371212
7654377011
7654382870
7654392086
7654399838
7654406918
7654414425
7654421017
7654428890
7654435726
7654439572
7654448788
7654458553
7654466671
7654473202
7654480526
7654489132
7654496456
7654503048
7654513180
7654520626
7654528622
7654536800
7654542721
7654558346
7654564815
7654572506
7654584041
7654596615
7654604915
7654612179
7654620540
7654630245
7654638240
7654647640
7654654781
7654664425
7654671016
7654680294
7654685421
7654695430
7654701595
7654710140
7654718563
7654726619
7654735042
7654741146
7654750545
7654755611
7654764583
7654772334
7654780574
7654788509
7654793208
7654799007
7654806148
7654811397
7654818233
7654825313
7654830989
7654837642
7654844356
7654850276
7654856746
7654862544
7654869319
7654875423
7654883174
7654888728
7654894038
7654901545
7654907222
7654914180
7654919978
7654927119
7654932368
7654939326
7654945430
7654952266
7654958735
7654963435
7654970698
7654975459
7654984919
7654990718
7654996516
7655002131
7655007929
7655014033
7655021723
7655026728
7655032710
7655039240
7655044978
7655050044
7655056025
7655061457
7655066767
7655073542
7655077937
7655083918
7655088862
7655094660
7655100398
7655108088
7655114619
7655118586
7655126276
7655131403
7655137202
7655143610
7655148554
7655153864
7655161371
7655166804
7655172846
7655176996
7655183527
7655191279
7655201960
7655206904
7655213678
7655220270
7655227167
7655233637
7655241266
7655246454
7655253595
7655258356
7655267084
7655272882
7655278803
7655284357
7655290827
7655297846
7655304315
7655310541
7655315973
7655322565
7655330622
7655337580
7655344293
7655350580
7655356928
7655363825
7655369013
7655374872
7655382562
7655387994
7655394525
7655401422
7655407770
7655413995
7655419061
7655426202
7655433466
7655439691
7655445795
7655454095
7655460016
7655468072
7655475824
7655481805
7655487848
7655493829
7655499566
7655506646
7655514581
7655522882
7655527948
7655532281
7655540033
7655546075
7655551324
7655558221
7655565423
7655571405
7655578790
7655584405
7655591241
7655598138
7655604608
7655611016
7655617059
7655622979
7655629022
7655634942
7655641107
7655648492
7655652947
7655661431
7655666558
7655674004
7655680474
7655686883
7655693780
7655698663
7655705682
7655713860
7655720025
7655727959
7655733147
7655741875
7655748589
7655755364
7655760918
7655769646
7655777032
7655783257
7655789239
7655796929
7655802483
7655808953
7655814812
7655821770
7655829522
7655835747
7655840020
7655849907
7655856133
7655862053
7655870781
7655876824
7655884148
7655889702
7655898064
7655904778
7655910271
7655918083
7655924187
7655932366
7655938957
7655948235
7655954277
7655961296
7655969475
7655975884
7655981865
7655991875
7656000847
7656010063
7656015556
7656023125
7656031425
7656036674
7656046257
7656055900
7656062980
7656070976
7656078666
7656084465
7656091545
7656099968
7656109001
7656115410
7656123344
7656131828
7656139335
7656146110
7656151786
7656159721
7656166923
7656172660
7656182487
7656187004
7656195426
7656206718
7656215202
7656221183
7656228752
7656236259
7656244682
7656251945
7656258598
7656267692
7656274040
7656281974
7656290031
7656296439
7656304618
7656314017
7656322806
7656329215
7656339652
7656348197
7656355155
7656363090
7656371940
7656381705
7656388968
7656394584
7656402762
7656411673
7656422171
7656429496
7656437430
7656447501
7656454459
7656462149
7656469779
7656478568
7656485709
7656492972
7656502555
7656511954
7656521109
7656530387
7656537406
7656544180
7656551566
7656561392
7656568045
7656574149
7656582755
7656589285
7656599173
7656607718
7656616690
7656623587
7656630118
7656638846
7656646902
7656652457
7656662222
7656669058
7656677359
7656684256
7656691092
7656698843
7656706167
7656717337
7656722769
7656731070
7656735952
7656745047
7656751638
7656760427
7656768118
7656775747
7656784780
7656790640
7656799673
7656805654
7656812612
7656821401
7656829885
7656838369
7656845693
7656854116
7656861440
7656870840
7656877248
7656885732
7656892019
7656899770
7656910696
7656917593
7656923086
7656931142
7656939138
7656946401
7656953542
7656961049
7656971792
7656980398
7656989370
7656996389
7657003530
7657013295
7657021108
7657029775
7657038015
7657049489
7657056691
7657066030
7657074941
7657082692
7657090688
7657098867
7657111135
7657118154
7657126210
7657132985
7657140614
7657149648
7657157155
7657165273
7657172902
7657179005
7657185536
7657194630
7657201405
7657207509
7657216420
7657225514
7657231679
7657238881
7657246815
7657253529
7657262745
7657268178
7657278248
7657285084
7657294117
7657300892
7657309315
7657319020
7657325856
7657334279
7657340687
7657348866
7657355641
7657364735
7657372059
7657379750
7657387867
7657395558
7657400807
7657409535
7657418873
7657426624
7657435841
7657442433
7657451161
7657459766
7657467274
7657474903
7657483936
7657491505
7657497120
7657505238
7657513294
7657520801
7657527149
7657535938
7657542469
7657550709
7657556324
7657563587
7657568958
7657575428
7657582630
7657589100
7657593189
7657601429
7657606861
7657614185
7657620044
7657625232
7657632923
7657637867
7657643970
7657650928
7657655933
7657664173
7657670948
7657679004
7657685779
7657692798
7657698474
7657706226
7657712512
7657718860
7657728504
7657735156
7657741565
7657749255
7657754199
7657759204
7657766101
7657771472
7657777881
7657785876
7657791187
7657794910
7657801868
7657808826
7657815539
7657821460
7657827991
7657833240
7657837817
7657844653
7657849475
7657856250
7657863330
7657868640
7657874011
7657879199
7657885425
7657891345
7657899463
7657903918
7657909594
7657916125
7657921252
7657927173
7657933825
7657940478
7657945910
7657953112
7657957446
7657964221
7657970385
7657977465
7657984912
7657990954
7657997668
7658002612
7658009631
7658016955
7658021960
7658027941
7658034289
7658040148
7658048510
7658054675
7658060900
7658067492
7658075671
7658083056
7658090441
7658097155
7658103503
7658109911
7658115893
7658121874
7658130968
7658137255
7658144091
7658149889
7658156115
7658161669
7658169970
7658175585
7658184191
7658190477
7658197924
7658203966
7658211840
7658218432
7658224840
7658232531
7658241381
7658247240
7658252306
7658258715
7658265978
7658273424
7658281176
7658286974
7658293016
7658298632
7658304247
7658311327
7658318102
7658325121
7658330980
7658336107
7658342516
7658348924
7658356798
7658362779
7658370897
7658378282
7658385667
7658390855
7658397630
7658404405
7658412035
7658418077
7658426622
7658431871
7658438829
7658446336
7658451890
7658458421
7658465379
7658470201
7658477342
7658483140
7658491746
7658498155
7658506212
7658512010
7658518052
7658524583
7658530992
7658536607
7658544480
7658552842
7658557908
7658566209
7658572862
7658581773
7658588365
7658595445
7658602830
7658609056
7658617051
7658624925
7658633225
7658642198
7658648423
7658655930
7658662705
7658672593
7658682114
7658688462
7658696152
7658703171
7658711472
7658718613
7658726426
7658738145
7658746689
7658755051
7658766038
7658774888
7658783249
7658791306
7658800705
7658808396
7658816147
7658827317
7658835434
7658840744
7658850937
7658858750
7658863510
7658871140
7658879319
7658888779
7658894821
7658903000
7658909592
7658917343
7658925278
7658931381
7658938461
7658948593
7658954819
7658963791
7658971787
7658977219
7658985703
7658994858
7659002426
7659008896
7659014877
7659024521
7659031662
7659038376
7659045456
7659054001
7659062301
7659069443
7659078293
7659084457
7659091415
7659100204
7659108627
7659115219
7659123336
7659130111
7659137619
7659147018
7659154037
7659162521
7659168930
7659176742
7659184921
7659192062
7659198715
7659207443
7659212386
7659222885
7659230758
7659238754
7659245773
7659255477
7659264571
7659270675
7659277816
7659285140
7659294357
7659301681
7659310287
7659317062
7659325362
7659333297
7659341842
7659347579
7659356551
7659365035
7659372848
7659380172
7659387313
7659397262
7659405684
7659413497
7659420821
7659436446
7659443099
7659450179
7659460005
7659466353
7659475875
7659485213
7659493331
7659502364
7659510298
7659516585
7659524092
7659534712
7659541426
7659550276
7659556807
7659565230
7659573714
7659582442
7659587630
7659597395
7659602949
7659611189
7659619246
7659627119
7659633711
7659642866
7659651900
7659656965
7659665327
7659673262
7659678938
7659688398
7659695295
7659704329
7659712446
7659720198
7659727339
7659733198
7659741560
7659750288
7659758955
7659765974
7659771955
7659781111
7659788496
7659796491
7659804792
7659812238
7659819929
7659828535
7659835310
7659841657
7659848554
7659859235
7659867902
7659875776
7659880476
7659890607
7659897504
7659903974
7659911176
7659919721
7659925397
7659935651
7659942243
7659949079
7659958845
7659966657
7659974714
7659981061
7659986554
7659996442
7660001874
7660008466
7660018293
7660026777
7660032392
7660040204
7660048139
7660055768
7660062848
7660071271
7660080426
7660089398
7660099164
7660105634
7660115827
7660123334
7660131390
7660141644
7660150678
7660155560
7660163861
7660171552
7660180585
7660190594
7660199200
7660207562
7660214947
7660223553
7660230511
7660239606
7660248273
7660253216
7660260724
7660268841
7660275860
7660282025
7660288556
7660295331
7660300885
7660306012
7660312664
7660318524
7660324078
7660331463
7660337262
7660342572
7660348675
7660354595
7660361065
7660367962
7660374798
7660380596
7660384564
7660392071
7660398297
7660403546
7660411724
7660418499
7660423504
7660429669
7660435345
7660441876
7660447064
7660454449
7660458965
7660465618
7660473125
7660477093
7660483257
7660488262
7660495586
7660500591
7660506695
7660511822
7660517010
7660523846
7660529888
7660534466
7660539532
7660545452
7660551372
7660557659
7660563335
7660568218
7660575054
7660580303
7660586590
7660591472
7660598064
7660603679
7660609356
7660613567
7660618999
7660626567
7660637127
7660642070
7660649395
7660653972
7660663127
7660668071
7660674419
7660683696
7660689067
7660696269
7660701274
7660710002
7660718181
7660724101
7660729961
7660735637
7660740398
7660747112
7660754497
7660761272
7660767436
7660775188
7660782207
7660789226
7660795390
7660801921
7660808757
7660814250
7660822124
7660830791
7660835979
7660842570
7660850383
7660855449
7660862224
7660867412
7660873942
7660880900
7660888408
7660894755
7660900859
7660904643
7660911296
7660918925
7660924662
7660931803
7660938212
7660945170
7660950907
7660955363
7660963542
7660971232
7660977275
7660985270
7660992900
7660998332
7661006022
7661013102
7661020121
7661026408
7661030192
7661037821
7661044291
7661053446
7661057780
7661065287
7661071879
7661077677
7661084696
7661092692
7661098490
7661107401
7661113871
7661121928
7661127848
7661134928
7661141581
7661148478
7661155985
7661163431
7661170084
7661177408
7661186075
7661194132
7661202677
7661207315
7661213236
7661222635
7661229593
7661236185
7661242166
7661249613
7661255533
7661261515
7661268900
7661276773
7661283365
7661287638
7661295633
7661301737
7661308267
7661314188
7661319559
7661327676
7661334512
7661341470
7661347330
7661355569
7661363321
7661368326
7661375894
7661383462
7661390543
7661397134
7661404825
7661411905
7661419961
7661427713
7661434732
7661440530
