12885468477
12885474886
12885480013
12885484591
12885490267
12885495516
12885500521
12885505465
12885510775
12885516878
12885521700
12885526461
12885531893
12885536837
12885542208
12885546907
12885551790
12885557466
12885562654
12885570101
12885576082
12885583467
12885590120
12885598299
12885604830
12885611727
12885617647
12885623995
12885631319
12885639681
12885646822
12885656221
12885664766
12885670442
12885680391
12885687410
12885694002
12885701326
12885707368
12885717378
12885726778
12885738557
12885744966
12885750520
12885755281
12885762849
12885769258
12885774934
12885781404
12885787568
12885793733
12885799043
12885806489
12885812288
12885818086
12885824617
12885829194
12885835176
12885842500
12885848359
12885854646
12885860749
12885867158
12885871858
12885880342
12885888093
12885894502
12885899995
12885903840
12885911897
12885916963
12885924348
12885931306
12885937592
12885944306
12885949616
12885956391
12885962739
12885969636
12885976228
12885982148
12885988129
12885995026
12886001618
12886006928
12886015168
12886021332
12886027314
12886033723
12886040559
12886046723
12886053437
12886059724
12886066987
12886072114
12886077302
12886083893
12886089570
12886099762
12886105317
12886112336
12886121247
12886127045
12886135895
12886142914
12886148652
12886156647
12886160675
12886169220
12886178315
12886183075
12886189667
12886196381
12886203400
12886209564
12886220734
12886227326
12886232514
12886241547
12886246857
12886254974
12886262055
12886268707
12886274750
12886279755
12886287079
12886292145
12886299530
12886305572
12886313141
12886317230
12886325409
12886329315
12886336700
12886344269
12886350616
12886355987
12886363434
12886369232
12886376556
12886382538
12886387237
12886395172
12886397918
12886407196
12886414337
12886419342
12886428375
12886433075
12886439422
12886444183
12886450775
12886457489
12886463592
12886468475
12886475189
12886482025
12886488372
12886494232
12886502410
12886507659
12886515289
12886520782
12886528045
12886534026
12886542510
12886546600
12886555511
12886559478
12886569122
12886573394
12886582122
12886589385
12886595855
12886603118
12886609893
12886616485
12886623199
12886630096
12886635039
12886642791
12886647674
12886656646
12886662139
12886669280
12886676848
12886685149
12886691070
12886699553
12886705779
12886710235
12886720916
12886725493
12886734465
12886742583
12886750823
12886755339
12886764495
12886771514
12886780059
12886787078
12886795806
12886803252
12886808684
12886815398
12886823149
12886830412
12886839812
12886846831
12886854155
12886861113
12886868071
12886876555
12886883147
12886889067
12886897185
12886905669
12886912382
12886918120
12886925322
12886933195
12886940153
12886947844
12886957426
12886963652
12886971831
12886977934
12886983244
12886989226
12886995390
12887000090
12887008207
12887013029
12887018889
12887023527
12887029570
12887033903
12887039091
12887044340
12887051054
12887054594
12887063139
12887069181
12887075163
12887080351
12887086882
12887093778
12887099760
12887107755
12887113615
12887119291
12887125395
12887128935
12887136747
12887143156
12887147611
12887152799
12887158231
12887162992
12887169706
12887175443
12887181486
12887185514
12887193571
12887198637
12887203825
12887208829
12887214872
12887220304
12887224943
12887231901
12887237577
12887243436
12887249174
12887254667
12887259366
12887266385
12887272550
12887276822
12887284208
12887287870
12887295560
12887299039
12887305753
12887310758
12887316190
12887320585
12887329557
12887336637
12887341092
12887348050
12887353360
12887358426
12887363797
12887369352
12887377042
12887381620
12887386441
12887392179
12887397550
12887403470
12887406766
12887414273
12887422147
12887428128
12887433133
12887439664
12887444669
12887450894
12887454434
12887462430
12887469327
12887479642
12887487820
12887494168
12887499478
12887505093
12887509793
12887515408
12887521390
12887527249
12887532437
12887538235
12887543240
12887548855
12887554776
12887559537
12887567044
12887572171
12887578274
12887584927
12887590786
12887595974
12887602444
12887607327
12887613797
12887619107
12887626431
12887631680
12887637173
12887641873
12887648342
12887652981
12887662075
12887667324
12887673184
12887678005
12887683132
12887687893
12887694180
12887699307
12887706753
12887712551
12887719937
12887725125
12887730496
12887735378
12887742519
12887746243
12887753811
12887760220
12887766018
12887770290
12887775906
12887781155
12887787502
12887795193
12887800137
12887806301
12887811977
12887816189
12887823574
12887831570
12887838039
12887844814
12887853725
12887860683
12887867580
12887876308
12887882595
12887891201
12887896999
12887904751
12887914638
12887920742
12887928920
12887935146
12887942592
12887950771
12887959194
12887966884
12887974636
12887983486
12887992275
12887998866
12888005886
12888013698
12888018398
12888029750
12888035060
12888046779
12888049831
12888060817
12888065395
12888074977
12888081630
12888089503
12888095851
12888105800
12888113002
12888122340
12888129298
12888137416
12888144435
12888151454
12888159572
12888169276
12888178492
12888185267
12888190883
12888198329
12888206630
12888214808
12888220668
12888226466
12888237269
12888246058
12888252711
12888260951
12888268702
12888273524
12888284083
12888294459
12888302943
12888309901
12888319544
12888325953
12888333888
12888338465
12888349329
12888358241
12888366236
12888374964
12888380824
12888389857
12888395838
12888404322
12888412073
12888420435
12888428797
12888435694
12888443812
12888451990
12888459803
12888467127
12888473597
12888482264
12888490442
12888498560
12888506617
12888511377
12888521021
12888529200
12888537745
12888547693
12888554224
12888561853
12888569727
12888577722
12888583704
12888591699
12888599817
12888610681
12888617090
12888621607
12888633020
12888637537
12888648645
12888656641
12888662927
12888671777
12888680139
12888685144
12888695764
12888700281
12888711572
12888716272
12888726404
12888731348
12888743493
12888750390
12888758325
12888762903
12888773462
12888781396
12888787744
12888795739
12888806176
12888815210
12888823510
12888830651
12888839013
12888848230
12888854516
12888865075
12888871484
12888879785
12888888146
12888896691
12888902917
12888910790
12888919030
12888924340
12888934655
12888944116
12888950646
12888959985
12888966088
12888974145
12888982079
12888991906
12888998498
12889007104
12889013146
12889021447
12889029381
12889035363
12889043358
12889052209
12889060631
12889068566
12889076439
12889084435
12889090355
12889098656
12889106530
12889115563
12889124291
12889132836
12889140831
12889146874
12889154808
12889162743
12889170616
12889179161
12889187584
12889195458
12889203392
12889210594
12889218834
12889225975
12889234093
12889241417
12889247765
12889253807
12889260399
12889266624
12889272301
12889276756
12889282066
12889289391
12889295921
12889301536
12889304344
12889311424
12889314659
12889322349
12889325950
12889333519
12889339744
12889345726
12889351158
12889355797
12889361290
12889367698
12889373802
12889377586
12889384788
12889390220
12889395714
12889400963
12889406578
12889412986
12889419395
12889424888
12889429527
12889434410
12889438987
12889446312
12889449913
12889458580
12889464561
12889468711
12889475730
12889480735
12889486900
12889491111
12889499534
12889504966
12889510764
12889515830
12889521201
12889525108
12889532432
12889541221
12889547691
12889553916
12889559104
12889565574
12889571372
12889577964
12889583335
12889591209
12889595664
12889602073
12889606589
12889612693
12889618796
12889624534
12889629050
12889635642
12889641501
12889647178
12889652976
12889657310
12889663474
12889669211
12889675132
12889681113
12889687278
12889693259
12889699241
12889703452
12889709250
12889715232
12889721030
12889727439
12889733847
12889739402
12889745078
12889750693
12889756552
12889762107
12889766440
12889773154
12889778952
12889784506
12889789267
12889796713
12889802451
12889805991
12889815146
12889822043
12889826865
12889833579
12889839011
12889846213
12889851035
12889857260
12889862448
12889868491
12889876791
12889880698
12889889304
12889893332
12889901633
12889905417
12889911276
12889916403
12889923788
12889927511
12889933798
12889938986
12889946554
12889950278
12889957785
12889963278
12889970663
12889974386
12889982199
12889987631
12889992392
12889997274
12890004355
12890009848
12890017233
12890021933
12890028585
12890033590
12890040426
12890045309
12890051290
12890057211
12890063803
12890070516
12890076559
12890085043
12890091085
12890099386
12890104940
12890115438
12890121114
12890129354
12890136617
12890146627
12890154867
12890161642
12890168111
12890176107
12890186239
12890194906
12890202047
12890209432
12890216268
12890225118
12890234884
12890243978
12890250570
12890259298
12890267965
12890276082
12890284627
12890293050
12890299520
12890309163
12890315877
12890325826
12890332357
12890337545
12890349080
12890354146
12890363973
12890371297
12890380269
12890388082
12890396016
12890405477
12890413350
12890421102
12890429707
12890436116
12890445882
12890452962
12890461629
12890470296
12890477925
12890486348
12890491597
12890502644
12890507588
12890518513
12890523823
12890534688
12890541890
12890549092
12890558552
12890565205
12890571064
12890580281
12890586262
12890595540
12890604512
12890611409
12890618855
12890626057
12890633992
12890642353
12890648701
12890657978
12890666157
12890673481
12890681477
12890686054
12890695393
12890699909
12890709309
12890716206
12890725361
12890733418
12890740376
12890747700
12890755756
12890762409
12890770527
12890777241
12890788105
12890795246
12890802509
12890808308
12890817341
12890825153
12890832844
12890838947
12890849994
12890856220
12890863178
12890871418
12890876239
12890885517
12890892963
12890900226
12890907917
12890917865
12890923175
12890934223
12890939106
12890948444
12890955158
12890963947
12890971515
12890980487
12890988239
12890996173
12891002887
12891011920
12891017841
12891027911
12891034442
12891044330
12891050678
12891058795
12891066852
12891074847
12891080829
12891085529
12891095904
12891101581
12891113055
12891120990
12891129596
12891141742
12891148334
12891157184
12891163958
12891172198
12891180560
12891188800
12891195392
12891203814
12891212725
12891217913
12891228411
12891238299
12891247821
12891255023
12891263812
12891272174
12891278704
12891287493
12891296221
12891303546
12891312029
12891320452
12891328753
12891334307
12891344256
12891349749
12891361285
12891367266
12891377337
12891384783
12891393267
12891400530
12891408709
12891416216
12891424273
12891431963
12891439898
12891449419
12891457537
12891464678
12891474138
12891481524
12891489641
12891496172
12891504656
12891513689
12891520281
12891528826
12891535845
12891542131
12891544146
12891553362
12891557451
12891566240
12891570024
12891578691
12891585161
12891590898
12891596208
12891602129
12891607195
12891612932
12891618059
12891622392
12891626054
12891633196
12891637468
12891642839
12891649248
12891653581
12891658342
12891664079
12891668718
12891674516
12891677568
12891685808
12891691423
12891697587
12891704423
12891709917
12891716875
12891724382
12891729448
12891735795
12891742204
12891748247
12891753923
12891760270
12891767778
12891772661
12891778703
12891783464
12891788774
12891794206
12891797868
12891803727
12891808366
12891814592
12891820573
12891825822
12891831132
12891838273
12891843583
12891849931
12891854814
12891860551
12891865190
12891870317
12891876054
12891881852
12891888322
12891892228
12891898149
12891903886
12891908341
12891913651
12891919511
12891926286
12891930985
12891937272
12891942094
12891948563
12891954911
12891959916
12891965714
12891973222
12891979142
12891985795
12891992081
12891996415
12892002701
12892007523
12892011918
12892018143
12892022965
12892028824
12892035294
12892040665
12892046097
12892052933
12892059525
12892068436
12892073258
12892078446
12892084671
12892091263
12892096390
12892100174
12892107132
12892113480
12892119034
12892124588
12892131974
12892138199
12892144303
12892149308
12892153824
12892159195
12892167252
12892172196
12892178482
12892184403
12892190079
12892196732
12892201309
12892207230
12892211075
12892219071
12892222794
12892231033
12892234818
12892241104
12892246109
12892251785
12892257645
12892265213
12892271439
12892276993
12892281570
12892288528
12892294754
12892300613
12892307571
12892312820
12892321182
12892328201
12892333999
12892340469
12892346756
12892352432
12892358169
12892364151
12892369827
12892374954
12892381424
12892386673
12892391128
12892398758
12892404556
12892413040
12892419571
12892424026
12892434219
12892441177
12892448623
12892455398
12892463943
12892472061
12892481033
12892488540
12892497085
12892504714
12892512283
12892518630
12892526626
12892533828
12892544021
12892551955
12892558425
12892563369
12892574783
12892580581
12892590407
12892597671
12892605971
12892613174
12892621291
12892628982
12892635695
12892642409
12892651076
12892658217
12892667190
12892673110
12892681289
12892687087
12892695266
12892702224
12892710646
12892716872
12892726943
12892735671
12892741957
12892749587
12892755751
12892763320
12892769667
12892777297
12892785231
12892791091
12892795912
12892806716
12892811598
12892823134
12892828017
12892836195
12892843031
12892851149
12892856032
12892865675
12892872816
12892881483
12892888930
12892896498
12892904433
12892913344
12892919569
12892928114
12892934950
12892943068
12892952955
12892960524
12892967726
12892979384
12892987623
12892995497
12893005018
12893013624
12893021376
12893031568
12893039320
12893048597
12893056410
12893065016
12893073011
12893082899
12893090040
12893100233
12893106703
12893117201
12893123670
12893131117
12893138685
12893146070
12893153394
12893160413
12893168226
12893175855
12893184217
12893192396
12893200513
12893207960
12893214124
12893222791
12893228712
12893237928
12893246229
12893253248
12893261487
12893266675
12893275342
12893281995
12893290906
12893298413
12893308240
12893313550
12893323011
12893329724
12893338697
12893345288
12893353772
12893361157
12893370618
12893379895
12893388501
12893395947
12893404920
12893412000
12893422009
12893430371
12893441541
12893447034
12893457410
12893464917
12893473340
12893480237
12893490124
12893496594
12893505505
12893512219
12893522046
12893530469
12893537793
12893544385
12893549756
12893561474
12893566967
12893577893
12893583447
12893593029
12893601208
12893607129
12893613781
12893622570
12893650524
12893658154
12893665539
12893672924
12893679089
12893687817
12893694164
12893702648
12893709972
12893717907
12893726086
12893732433
12893741222
12893746899
12893755627
12893762524
12893771740
12893778637
12893786510
12893794201
12893802685
12893809643
12893816967
12893824047
12893833141
12893841808
12893847484
12893852001
12893858593
12893863353
12893869396
12893873424
12893883129
12893890819
12893895824
12893901744
12893907848
12893913707
12893921154
12893926952
12893934642
12893938915
12893943614
12893949474
12893954112
12893959789
12893965282
12893970287
12893977794
12893983409
12893990672
12893995494
12894000743
12894011241
12894014903
12894022411
12894026073
12894035228
12894038951
12894044749
12894049449
12894055003
12894060313
12894065623
12894071910
12894077281
12894083140
12894088451
12894094249
12894100596
12894105296
12894111522
12894115855
12894124156
12894132518
12894137828
12894142283
12894149180
12894153880
12894160655
12894166514
12894174510
12894181651
12894188487
12894193797
12894200267
12894206614
12894208750
12894218150
12894223033
12894232432
12894237315
12894242747
12894248545
12894253916
12894257640
12894264414
12894270030
12894276072
12894281992
12894286326
12894292063
12894297862
12894301402
12894309336
12894315562
12894322459
12894326487
12894332163
12894339243
12894344736
12894350474
12894355723
12894360789
12894369822
12894375193
12894381419
12894385569
12894390940
12894396372
12894401377
12894407358
12894413889
12894419748
12894424326
12894429514
12894435068
12894439219
12894444407
12894449656
12894455515
12894459971
12894465708
12894471628
12894477243
12894482615
12894488962
12894493479
12894503244
12894508432
12894514170
12894521067
12894525888
12894531687
12894537790
12894543894
12894548899
12894553659
12894559946
12894564462
12894569406
12894575266
12894580210
12894585153
12894594492
12894599558
12894605661
12894609445
12894615305
12894619699
12894626230
12894630808
12894638681
12894643564
12894649850
12894655649
12894659738
12894665170
12894671091
12894675119
12894681100
12894687265
12894692453
12894696481
12894704294
12894712655
12894715402
12894726999
12894736398
12894745187
12894752694
12894761056
12894767953
12894775766
12894780648
12894791085
12894795968
12894806771
12894811776
12894821847
12894826181
12894834725
12894840890
12894848397
12894855111
12894864450
12894870980
12894878793
12894885079
12894893990
12894900521
12894907601
12894913339
12894923898
12894930795
12894938180
12894944161
12894950936
12894958627
12894965829
12894971566
12894981637
12894988106
12894995431
12895003670
12895011239
12895017342
12895024422
12895029915
12895040291
12895046700
12895053841
12895062325
12895068306
12895077279
12895083931
12895091805
12895101632
12895108467
12895118050
12895123970
12895132393
12895140511
12895146736
12895154976
12895166146
12895172981
12895180489
12895188606
12895195442
12895203682
12895211739
12895217659
12895226448
12895234261
12895241707
12895248848
12895255135
12895262703
12895265022
12895277046
12895281929
12895293037
12895298286
12895309334
12895314277
12895323799
12895330391
12895338142
12895345894
12895355476
12895364692
12895374641
12895380561
12895390205
12895397224
12895406135
12895416084
12895422615
12895430976
12895439155
12895444465
12895455085
12895462409
12895470405
12895477180
12895484992
12895492133
12895500434
12895503181
12895516792
12895524970
12895533820
12895536750
12895550056
12895557929
12895564338
12895573920
12895580878
12895585883
12895597724
12895607856
12895616584
12895623298
12895631843
12895639716
12895648200
12895655280
12895663764
12895669989
12895679999
12895687079
12895694709
12895702887
12895709357
12895714301
12895724860
12895733405
12895741645
12895748847
12895756964
12895765570
12895771796
12895780585
12895786810
12895797003
12895804144
12895813727
12895821173
12895829901
12895834601
12895842780
12895850409
12895860358
12895867682
12895874884
12895881659
12895889654
12895896979
12895905646
12895911322
12895923041
12895928106
12895935858
12895943792
12895954168
12895959539
12895968329
12895976324
12895984808
12895991583
12895999945
12896007391
12896016119
12896023382
12896029730
12896036993
12896047186
12896054449
12896063848
12896071356
12896080206
12896086920
12896096807
12896103765
12896112066
12896118475
12896124639
12896128118
12896135076
12896141363
12896147466
12896153387
12896157476
12896164922
12896168890
12896175359
12896179571
12896185552
12896190618
12896197210
12896203130
12896207036
12896211919
12896222661
12896226018
12896235601
12896240545
12896250860
12896256658
12896262761
12896268682
12896274480
12896279424
12896285222
12896291326
12896295598
12896301458
12896307256
12896312871
12896317815
12896325688
12896330327
12896337834
12896342534
12896348699
12896355107
12896360967
12896366460
12896372319
12896377568
12896384648
12896389653
12896395818
12896401555
12896407536
12896413823
12896419988
12896425420
12896430913
12896437321
12896442021
12896449345
12896454777
12896460210
12896465153
12896472905
12896479069
12896483647
12896489628
12896495488
12896499028
12896506169
12896510258
12896517827
12896521611
12896529606
12896539616
12896545842
12896549748
12896558171
12896562321
12896571049
12896578434
12896585270
12896589909
12896596867
12896602421
12896608586
12896614689
12896621586
12896626530
12896632145
12896636296
12896642216
12896645207
12896651737
12896655094
12896664066
12896669682
12896675419
12896680546
12896685246
12896690800
12896696110
12896702030
12896709538
12896713810
12896720463
12896725529
12896731632
12896737980
12896743412
12896748905
12896756412
12896762943
12896769413
12896773685
12896779423
12896783817
12896791202
12896795292
12896802799
12896808964
12896814091
12896820133
12896825992
12896830570
12896834598
12896843631
12896853519
12896858341
12896864627
12896868961
12896875431
12896881473
12896884769
12896891727
12896899478
12896906314
12896912235
12896916629
12896920169
12896932071
12896937259
12896943118
12896948123
12896952945
12896956546
12896969241
12896974429
12896983646
12896988895
12896997318
12897004153
12897013187
12897019595
12897028323
12897037112
12897044131
12897050662
12897055667
12897064944
12897074466
12897083255
12897089053
12897098514
12897103580
12897112735
12897120608
12897128726
12897135074
12897143924
12897150637
12897160159
12897166690
12897175235
12897182193
12897190127
12897198977
12897206973
12897215396
12897220339
12897229434
12897234011
12897243899
12897250064
12897258853
12897266116
12897277346
12897285586
12897291811
12897298892
12897307070
12897313967
12897321535
12897329409
12897335451
12897344851
12897352602
12897359011
12897367922
12897374087
12897382082
12897387758
12897396120
12897402346
12897410402
12897419802
12897428042
12897434511
12897439638
12897451174
12897456484
12897466860
12897472292
12897482241
12897489321
12897497988
12897505251
12897512758
12897519472
12897528139
12897534853
12897543703
12897550417
12897555910
12897566774
12897571962
12897581545
12897587404
12897599123
12897606691
12897612856
12897622011
12897629152
12897638551
12897645570
12897655214
12897662965
12897670106
12897678407
12897685609
12897693666
12897700319
12897709474
12897716249
12897721437
12897732545
12897737916
12897749147
12897754335
12897762269
12897768922
12897779176
12897785524
12897793153
12897799562
12897804689
12897816346
12897823487
12897830018
12897837342
12897846131
12897853700
12897861756
12897869019
12897876649
12897883912
12897891969
12897898499
12897906739
12897915284
12897923707
12897930238
12897939149
12897946290
12897951478
12897961854
12897967713
12897976258
12897983643
12897990174
12897997864
12898007996
12898015320
12898021729
12898027955
12898038331
12898045472
12898057312
12898064942
12898074280
12898080994
12898089539
12898096375
12898105591
12898112427
12898121704
12898128479
12898136719
12898143799
12898149109
12898160034
12898165161
12898174988
12898180908
12898189758
12898197144
12898204529
12898211304
12898221313
12898227722
12898235657
12898244995
12898253174
12898259766
12898268005
12898275452
12898280517
12898291748
12898297058
12898306762
12898312256
12898321655
12898328979
12898336487
12898343567
12898353637
12898359985
12898368164
12898375549
12898385009
12898391540
12898399169
12898405456
12898413208
12898419921
12898426940
12898432617
12898438537
12898445617
12898449096
12898455688
12898459106
12898464782
12898469604
12898475219
12898483581
12898487914
12898493285
12898498595
12898503478
12898507446
12898513366
12898520019
12898525329
12898531860
12898537475
12898542724
12898549987
12898555053
12898562255
12898567687
12898575744
12898580993
12898587585
12898592284
12898598937
12898603759
12898609984
12898614928
12898622313
12898627562
12898633239
12898638305
12898643859
12898648803
12898654906
12898660155
12898665831
12898669432
12898675658
12898680358
12898685485
12898690184
12898695128
12898700194
12898705260
12898710936
12898717650
12898721495
12898728758
12898735106
12898740904
12898747740
12898753966
12898759886
12898768004
12898774230
12898785338
12898797301
12898806639
12898814330
12898823973
12898829100
12898840453
12898849791
12898857786
12898867918
12898875548
12898883665
12898890501
12898898009
12898904722
12898912169
12898919005
12898926878
12898936094
12898944456
12898951536
12898958982
12898967894
12898974546
12898982908
12898991575
12898998838
12899006285
12899013914
12899021421
12899029295
12899034422
12899043943
12899051145
12899060972
12899070188
12899078672
12899083372
12899094175
12899101560
12899109129
12899116636
12899124448
12899131467
12899139219
12899146665
12899152402
12899160337
12899168027
12899177915
12899184751
12899192441
12899199155
12899208127
12899214719
12899223935
12899228513
12899240781
12899246396
12899259702
12899270444
12899278318
12899288266
12899298215
12899308286
12899315061
12899323117
12899330991
12899338437
12899346127
12899352963
12899362058
12899369992
12899378049
12899385861
12899393124
12899401059
12899408627
12899417661
12899427731
12899436703
12899446042
12899455380
12899465695
12899470944
12899485470
12899494931
12899504941
12899513974
12899524106
12899534909
12899545529
12899554135
12899564938
12899575619
12899583676
12899592892
12899600277
12899612301
12899622006
12899631161
12899641537
12899652035
12899663876
12899672726
12899682430
12899690548
12899701473
12899710690
12899720577
12899731014
12899739620
12899748836
12899758175
12899767696
12899776913
12899786983
12899795345
12899803951
12899814144
12899822689
12899832027
12899839656
12899851558
12899861873
12899872066
12899880733
12899891719
12899903072
12899913326
12899923824
12899933895
12899943904
12899954402
12899961788
12899973140
12899984859
12899994197
12900004207
12900013911
12900024837
12900032100
12900045222
12900054805
12900063960
12900073421
12900083064
12900093013
12900104121
12900113521
12900123713
12900133540
12900144282
12900153804
12900161738
12900171199
12900181514
12900191767
12900200984
12900208064
12900218257
12900228510
12900236750
12900247309
12900257136
12900265070
12900277338
12900288996
12900297846
12900304987
12900311762
12900319514
12900324213
12900332636
12900338373
12900345209
12900350825
12900360285
12900368403
12900375971
12900382014
12900389460
12900399042
12900407160
12900413935
12900421686
12900429133
12900437128
12900442560
12900449762
12900454828
12900461542
12900466547
12900473810
12900479303
12900488642
12900494989
12900501215
12900508051
12900514582
12900522211
12900528620
12900536615
12900541498
12900548334
12900554804
12900560846
12900567316
12900572504
12900579218
12900585382
12900590997
12900598749
12900604547
12900610223
12900615655
12900627801
12900638483
12900646600
12900656976
12900663751
12900670831
12900678460
12900685846
12900693109
12900698663
12900706231
12900711786
12900719964
12900727594
12900734124
12900741815
12900747613
12900755304
12900761407
12900771173
12900775994
12900786309
12900795343
12900802606
12900810662
12900816705
12900825860
12900832513
12900841180
12900850152
12900857598
12900866448
12900872918
12900882378
12900889825
12900898186
12900905144
12900910210
12900915581
12900920953
12900925957
12900931390
12900935662
12900942742
12900948723
12900953728
12900959283
12900965264
12900971123
12900976494
12900982354
12900987847
12900994317
12900999993
12901004998
12901008904
12901016839
12901020806
12901028435
12901034172
12901039544
12901044732
12901050042
12901055107
12901060662
12901066338
12901071770
12901077080
12901081719
12901087090
12901091728
12901097649
12901103508
12901108025
12901112786
12901117546
12901124443
12901129753
12901135246
12901141289
12901147148
12901154045
12901159355
12901165703
12901170464
12901176445
12901181206
12901187309
12901193047
12901198784
12901205070
12901210319
12901215141
12901222038
12901228691
12901234917
12901242973
12901247978
12901254387
12901259636
12901265068
12901269707
12901276054
12901283256
12901288994
12901295524
12901301567
12901305900
12901312309
12901316398
12901323295
12901328727
12901334648
12901340202
12901346367
12901351066
12901356071
12901360221
12901365226
12901369621
12901376762
12901381340
12901387016
12901392265
12901396781
12901402214
12901405876
12901413444
12901417716
12901424003
12901431022
12901435111
12901439628
12901445182
12901450431
12901455863
12901459892
12901470023
12901475394
12901480827
12901485038
12901490287
12901494926
12901502250
12901506583
12901513297
12901518363
12901523856
12901528312
12901531486
12901540519
12901547965
12901555106
12901563773
12901570426
12901576896
12901585929
12901592399
12901596549
12901599906
12901607291
12901613822
12901618094
12901623771
12901627555
12901630423
12901637076
12901642691
12901648368
12901655997
12901660819
12901666983
12901671195
12901678458
12901683402
12901690848
12901697318
12901705130
12901715262
12901725089
12901729971
12901739493
12901749625
12901756583
12901763358
12901771597
12901779288
12901785880
12901795523
12901802298
12901812308
12901823477
12901832754
12901844290
12901848624
12901859549
12901869009
12901878348
12901888785
12901895010
12901903677
12901910818
12901920279
12901926748
12901936209
12901945181
12901952139
12901958975
12901966787
12901975393
12901981497
12901990896
12901996755
12902005178
12902010916
12902018972
12902024587
12902035330
12902043508
12902052358
12902059622
12902067129
12902073293
12902082082
12902089101
12902096731
12902106252
12902114492
12902122060
12902129690
12902137014
12902142934
12902151601
12902159231
12902171621
12902179799
12902187551
12902195302
12902202077
12902210317
12902216848
12902226247
12902233327
12902242177
12902251516
12902257436
12902267568
12902275380
12902284780
12902293874
12902301259
12902307668
12902314504
12902321889
12902329946
12902337941
12902344594
12902353627
12902358327
12902368092
12902372731
12902384023
12902389455
12902400502
12902408253
12902416737
12902425465
12902432362
12902439747
12902446400
12902456227
12902460560
12902470936
12902480092
12902485768
12902494191
12902500355
12902510060
12902518727
12902524830
12902533253
12902540333
12902548817
12902556996
12902563893
12902574330
12902581715
12902588185
12902593434
12902600270
12902606800
12902614063
12902622486
12902630787
12902638538
12902646778
12902654774
12902658924
12902669239
12902676991
12902684864
12902691761
12902697926
12902707508
12902714466
12902722523
12902733021
12902741382
12902749012
12902760120
12902766163
12902773792
12902783985
12902792164
12902798145
12902807361
12902816333
12902823902
12902832935
12902840808
12902852588
12902859363
12902869190
12902874317
12902885242
12902891590
12902900257
12902908435
12902916370
12902923938
12902930652
12902940112
12902958057
12902964954
12902976794
12902982715
12902991809
12903001025
12903008166
12903017261
12903023608
12903030688
12903036792
12903045947
12903049609
12903056201
12903058398
12903065478
12903068957
12903075488
12903080310
12903085620
12903090869
12903097583
12903103137
12903107348
12903115405
12903120166
12903126269
12903129626
12903136462
12903140307
12903147265
12903152575
12903157397
12903163806
12903169909
12903175219
12903180407
12903185107
12903190966
12903198352
12903202014
12903208850
12903215319
12903222033
12903229357
12903235583
12903241503
12903248522
12903252795
12903259936
12903263659
12903271288
12903275378
12903283251
12903287768
12903294482
12903300036
12903307848
12903312487
12903317675
12903322802
12903328112
12903335253
12903341295
12903346178
12903350878
12903356859
12903363634
12903368761
12903374010
12903380114
12903387987
12903393847
12903400255
12903406115
12903412462
12903417528
12903421679
12903429186
12903435900
12903443956
12903448229
12903454882
12903460253
12903467333
12903473253
12903479540
12903485582
12903493456
12903499681
12903506700
12903513292
12903520250
12903526293
12903533006
12903538988
12903548265
12903558336
12903566209
12903572679
12903580003
12903586412
12903593126
12903600755
12903608263
12903613451
12903617540
12903622240
12903627367
12903631944
12903639696
12903644578
12903650743
12903654344
12903661119
12903664598
12903671434
12903675218
12903683336
12903688768
12903694322
12903700120
12903704149
12903710801
12903715318
12903722764
12903726548
12903733934
12903738511
12903744920
12903748338
12903754991
12903761399
12903767076
12903772508
12903777940
12903783555
12903788987
12903794663
12903801011
12903808213
12903814073
12903819749
12903824632
12903831834
12903837754
12903842332
12903850388
12903854722
12903860337
12903864671
12903870408
12903877122
12903885361
12903892747
12903900437
12903907883
12903917893
12903924668
12903932847
12903941880
12903947983
12903958603
12903965928
12903977707
12903984238
12903991684
12903998398
12904006089
12904013352
12904024704
12904034470
12904043137
12904051865
12904058823
12904067917
12904075547
12904083847
12904090683
12904100388
12904107956
12904115708
12904123032
12904130600
12904138657
12904145432
12904153793
12904161972
12904170029
12904176743
12904192184
12904202255
12904213669
12904224045
12904230636
12904241806
12904251327
12904258224
12904268295
12904274521
12904284530
12904293503
12904301254
12904308029
12904317550
12904327743
12904336288
12904342208
12904348495
12904356979
12904364425
12904371871
12904382797
12904391220
12904398422
12904407272
12904415328
12904423873
12904431991
12904443527
12904448837
12904459457
12904468124
12904474532
12904484908
12904491805
12904501205
12904511520
12904519332
12904529525
12904539474
12904546187
12904557113
12904562484
12904573470
12904580916
12904587935
12904596053
12904601973
12904611739
12904618331
12904626815
12904634261
12904642195
12904651229
12904662215
12904672957
12904681624
12904690840
12904700667
12904707625
12904716780
12904723616
12904733931
12904741133
12904752669
12904760542
12904770064
12904780440
12904789351
12904797652
12904804854
12904816328
12904822188
12904833662
12904842695
12904851118
12904854292
12904865034
12904874922
12904884443
12904894087
12904901655
12904912642
12904922224
12904931379
12904939314
12904949324
12904958601
12904968000
12904979231
12904985273
12904998640
12905009870
12905018232
12905027998
12905036665
12905043989
12905050520
12905059003
12905066084
12905075544
12905080610
12905090253
12905097394
12905107770
12905115278
12905121686
12905132917
12905139203
12905148298
12905155012
12905162763
12905171552
12905177839
12905186689
12905195234
12905202131
12905211286
12905217939
12905226117
12905233930
12905240338
12905248090
12905253583
12905259564
12905264264
12905271344
12905276776
12905285565
12905293256
12905299542
12905306500
12905311261
12905316510
12905323590
12905329083
12905334149
12905338056
12905344952
12905347943
12905354413
12905357159
12905363934
12905370648
12905375958
12905380780
12905385724
12905390240
12905395062
12905401410
12905406110
12905412762
12905419354
12905424786
12905429364
12905435589
12905440167
12905446698
12905451397
12905459515
12905464581
12905469952
12905474896
12905480572
12905485760
12905490887
12905497418
12905503155
12905508587
12905515362
12905518963
12905525372
12905530377
12905538189
12905546673
12905553509
12905559674
12905565350
12905573712
12905579205
12905586712
12905594464
12905602093
12905605999
12905612774
12905618878
12905625652
12905630657
12905638531
12905642498
12905649639
12905653057
12905658916
12905664715
12905669292
12905675640
12905681194
12905687054
12905693829
12905697979
12905704815
12905709087
12905716473
12905720867
12905727703
12905733745
12905740215
12905746013
12905752056
12905756511
12905764812
12905768963
12905776043
12905781597
12905788921
12905795696
12905800823
12905807659
12905813701
12905820476
12905827556
12905833293
12905838176
12905844463
12905850444
12905856975
12905864482
12905870098
12905875957
12905882793
12905888469
12905894267
12905899333
12905906047
12905911846
12905917644
12905921672
12905928020
12905934184
12905940471
12905946147
12905950725
12905957805
12905962444
12905971294
12905976115
12905981609
12905986003
12905991923
12905994792
12906000957
12906005962
12906013042
12906017680
12906022929
12906025920
12906033488
12906038798
12906044169
12906050212
12906057597
12906067058
12906077495
12906084575
12906093608
12906103801
12906111918
12906119120
12906127238
12906135295
12906147074
12906154216
12906164958
12906173808
12906182170
12906195292
12906205180
12906214274
12906221903
12906232829
12906242411
12906251139
12906259318
12906266154
12906274027
12906281107
12906289103
12906297526
12906304179
12906311564
12906319193
12906327921
12906336161
12906344645
12906351359
12906360941
12906368937
12906375162
12906383158
12906391886
12906401163
12906408365
12906417521
12906427530
12906435831
12906442362
12906451395
12906458597
12906467264
12906474771
12906482401
12906491190
12906497415
12906505411
12906513712
12906525430
12906534647
12906545023
12906553262
12906558939
12906568521
12906576273
12906584329
12906589761
12906598978
12906604166
12906614236
12906622842
12906629495
12906639749
12906646585
12906655435
12906663736
12906670816
12906676919
12906685952
12906693033
12906702005
12906707437
12906717447
12906726785
12906735635
12906743569
12906751931
12906758218
12906766763
12906777566
12906785501
12906795022
12906802346
12906810037
12906817788
12906829385
12906839028
12906850137
12906858498
12906865517
12906873269
12906882973
12906890359
12906898110
12906906106
12906913735
12906919900
12906927041
12906934853
12906948525
12906958474
12906964577
12906973916
12906983437
12906992958
12907004433
12907013283
12907019692
12907027687
12907032936
12907043862
12907052346
12907060707
12907067238
12907075051
12907079872
12907089394
12907094155
12907105385
12907113014
12907120339
12907128944
12907136452
12907144936
12907152382
12907159584
12907166176
12907174660
12907181496
12907190712
12907198891
12907206764
12907214332
12907220192
12907229164
12907237160
12907245338
12907252846
12907264137
12907272072
12907282142
12907291603
12907302040
12907309059
12907316749
12907323158
12907331153
12907337440
12907345069
12907356056
12907362159
12907371803
12907379005
12907382667
12907391212
12907394813
12907405433
12907413368
12907419837
12907427406
12907433753
12907438575
12907443275
12907448280
12907452918
12907456886
12907462257
12907466041
12907472694
12907477027
12907482093
12907486365
12907493873
12907498756
12907505469
12907509986
12907515052
12907518958
12907523963
12907527869
12907533484
12907539222
12907545447
12907549720
12907554358
12907559363
12907563758
12907570228
12907574927
12907579078
12907587012
12907592139
12907599768
12907605933
12907614478
12907622168
12907627784
12907634009
12907640967
12907645362
12907650794
12907656958
12907662757
12907668799
12907674353
12907678504
12907686438
12907691992
12907698096
12907703406
12907710547
12907715003
12907720679
12907725867
12907731543
12907736914
12907741492
12907747595
12907752783
12907756384
12907765173
12907768957
12907775244
12907780249
12907786658
12907793127
12907799231
12907803992
12907808142
12907814123
12907820288
12907824682
12907829077
12907837866
12907844580
12907850927
12907857824
12907863257
12907869543
12907873144
12907880957
12907887426
12907892248
12907895971
12907903540
12907908056
12907916174
12907920019
12907926733
12907931189
12907939611
12907945837
12907950415
12907956030
12907962744
12907966528
12907973913
12907979223
12907984655
12907991735
12907997717
12908005834
12908010656
12908017858
12908022680
12908030492
12908035192
12908041845
12908048498
12908054967
12908061254
12908066503
12908071752
12908077611
12908082555
12908088720
12908093420
12908098058
12908103918
12908109838
12908115941
12908120946
12908128515
12908133092
12908138891
12908143041
12908148534
12908155675
12908162938
12908167394
12908173253
12908179784
12908186010
12908191625
12908201390
12908211278
12908218053
12908224828
12908233129
12908240453
12908248326
12908254796
12908262853
12908269872
12908278478
12908284764
12908292027
12908298802
12908307103
12908313390
12908320165
12908327611
12908334935
12908340733
12908348485
12908356725
12908364049
12908369847
12908377660
12908383519
12908392125
12908398839
12908403172
12908415074
12908420140
12908429844
12908435460
12908444554
12908451817
12908460118
12908466893
12908475132
12908482518
12908492711
12908498509
12908509007
12908517125
12908525425
12908532322
12908538548
12908543431
12908555149
12908560154
12908569554
12908576451
12908584202
12908590672
12908598972
12908610020
12908618260
12908623203
12908632542
12908637608
12908647556
12908652073
12908661961
12908668064
12908677097
12908682163
12908693943
12908699253
12908710422
12908715061
12908724705
12908729221
12908738071
12908743503
12908753513
12908760837
12908770664
12908776828
12908785434
12908793430
12908802890
12908809909
12908815952
12908822788
12908833164
12908842441
12908851535
12908858615
12908866428
12908873386
12908881259
12908888767
12908897861
12908904880
12908916843
12908929660
12908939059
12908947238
12908958041
12908966708
12908974704
12908982394
12908990573
12908998508
12909005466
12909013217
12909019687
12909029330
12909033908
12909043612
12909050631
12909059604
12909069430
12909076144
12909084262
12909093173
12909104586
12909111666
12909118075
12909128878
12909136386
12909145785
12909150241
12909159274
12909163546
12909173495
12909178561
12909189120
12909198763
12909205477
12909215548
12909222933
12909233859
12909246432
12909253329
12909263460
12909268893
12909280123
12909289400
12909295809
12909304537
12909312411
12909319613
12909325655
12909334322
12909340609
12909348909
12909358919
12909368074
12909375765
12909383028
12909393892
12909401461
12909411531
12909422335
12909431002
12909438692
12909445284
12909452974
12909459749
12909467562
12909476229
12909484468
12909494234
12909503816
12909512972
12909520418
12909531465
12909541597
12909547334
12909552644
12909559419
12909562898
12909570406
12909576387
12909584993
12909589021
12909595674
12909598665
12909606477
12909609590
12909617586
12909627229
12909632722
12909639680
12909647065
12909653779
12909660066
12909667207
12909673066
12909678071
12909683809
12909688142
12909693574
12909696199
12909703340
12909711702
12909718049
12909723359
12909729585
12909734468
12909738923
12909745759
12909750947
12909756990
12909761933
12909768098
12909772920
12909778779
12909783479
12909790437
12909796540
12909802033
12909805756
12909812348
12909818086
12909823212
12909827546
12909832856
12909838410
12909844209
12909849824
12909855012
12909860810
12909866914
12909872468
12909879487
12909888154
12909892853
12909898163
12909902314
12909907746
12909913361
12909918732
12909922700
12909930451
12909935273
12909940644
12909945099
12909951386
12909955780
12909960724
12909966645
12909973725
12909978730
12909984223
12909988861
12909995270
12910000031
12910005768
12910012726
12910018891
12910022309
12910029022
12910033600
12910039398
12910043915
12910049835
12910054596
12910061737
12910067108
12910072968
12910078095
12910085663
12910089081
12910097260
12910101105
12910109955
12910115997
12910123444
12910128204
12910133820
12910139252
12910145905
12910151398
12910157989
12910163422
12910171478
12910179352
12910186310
12910192596
12910198517
12910205108
12910214508
12910220794
12910225738
12910230133
12910237518
12910240936
12910248138
12910253204
12910258209
12910262909
12910267791
12910270538
12910277679
12910285980
12910291107
12910295806
12910300750
12910306732
12910310882
12910316619
12910322113
12910328826
12910334808
12910339813
12910346343
12910360076
12910366790
12910374969
12910381927
12910389434
12910397735
12910404449
12910413299
12910419891
12910425811
12910433196
12910440948
12910451934
12910460723
12910469878
12910474517
12910485198
12910493682
12910499663
12910507293
12910517791
12910524260
12910535125
12910542205
12910549956
12910557952
12910565764
12910573394
12910581694
12910588652
12910596465
12910605010
12910611052
12910621123
12910627104
12910637358
12910643889
12910651274
12910661040
12910667632
12910675932
12910682951
12910688567
12910699553
12910705901
12910712737
12910720976
12910727568
12910735930
12910742278
12910751433
12910760527
12910765349
12910775114
12910780730
12910791228
12910796660
12910807219
12910815825
12910823881
12910833159
12910838713
12910851469
12910858793
12910865141
12910877958
12910885771
12910894987
12910902922
12910913603
12910922758
12910930570
12910939054
12910949797
12910959562
12910967436
12910973478
12910983061
12910989408
12910997343
12911004667
12911013029
12911019743
12911028959
12911036710
12911044279
12911052702
12911058439
12911067350
12911072416
12911080472
12911089200
12911096342
12911102811
12911112333
12911117032
12911127103
12911135526
12911142789
12911150174
12911157132
12911164823
12911173185
12911181363
12911187223
12911197171
12911203885
12911214139
12911223477
12911231107
12911237638
12911246732
12911251615
12911261685
12911271329
12911276700
12911286649
12911293424
12911301663
12911310147
12911318631
12911325955
12911332791
12911340726
12911348172
12911357632
12911366055
12911371487
12911379666
12911388821
12911397732
12911403836
12911413113
12911421292
12911429165
12911435940
12911443875
12911452420
12911459195
12911469876
12911474209
12911483303
12911490933
12911498806
12911508389
12911517178
12911525112
12911531887
12911542446
12911547756
12911559170
12911565579
12911573757
12911581997
12911589199
12911598721
12911605557
12911616543
12911624416
12911634914
12911643459
12911651272
12911659084
12911668911
12911673733
12911684109
12911689602
12911702236
12911706875
12911714077
12911720852
12911726467
12911730190
12911736965
12911741115
12911747951
12911755825
12911760341
12911765712
12911770534
12911777614
12911782314
12911791408
12911796718
12911803615
12911810390
12911812770
12911821010
12911827297
12911831874
12911835658
12911844020
12911850551
12911855922
12911862331
12911868862
12911874416
12911880885
12911889552
12911894679
12911902980
12911907130
12911913295
12911918483
12911925197
12911930751
12911936916
12911941310
12911948878
12911952724
12911959621
12911965968
12911970912
12911978786
12911984584
12911989162
12911995875
12912001307
12912008449
12912014308
12912019923
12912024501
12912031703
12912037562
12912044581
12912049769
12912055568
12912063502
12912069484
12912074794
12912081202
12912087977
12912093104
12912100184
12912105738
12912110255
12912118922
12912123316
12912131922
12912139002
12912146083
12912151026
12912158656
12912164027
12912169642
12912177393
12912179957
12912187830
12912192103
12912202052
12912206080
12912212916
12912218409
12912226588
12912231776
12912238001
12912243677
12912248377
12912258692
12912261072
12912271754
12912277369
12912283716
12912287867
12912297449
12912302515
12912310450
12912314173
12912321131
12912324915
12912331690
12912337854
12912343714
12912350489
12912359400
12912364466
12912370508
12912373926
12912381433
12912384973
12912390833
12912396753
12912403833
12912409265
12912414820
12912419886
12912427332
12912433863
12912438989
12912446131
12912453028
12912458277
12912464746
12912468469
12912474573
12912480005
12912486292
12912491907
12912498926
12912504236
12912509607
12912514551
12912521326
12912528650
12912533777
12912542322
12912549158
12912555383
12912561121
12912567407
12912572595
12912578515
12912585473
12912590784
12912596643
12912601221
12912607751
12912613061
12912621911
12912627771
12912636255
12912642053
12912650049
12912659021
12912665796
12912674890
12912682885
12912690637
12912700769
12912708947
12912718164
12912726586
12912733300
12912741845
12912750634
12912755578
12912765466
12912774072
12912782189
12912788842
12912797143
12912805566
12912811913
12912821923
12912829003
12912838708
12912847619
12912854882
12912861169
12912870934
12912877953
12912886193
12912894066
12912905663
12912913292
12912923546
12912932641
12912940636
12912949608
12912958458
12912969689
12912976403
12912986657
12912995262
12913004662
12913009484
12913019310
12913027672
12913037987
12913046288
12913052696
12913061974
12913067406
12913078758
12913084007
12913093041
12913101708
12913110130
12913119835
12913126305
12913134727
12913140709
12913149803
12913155540
12913164818
12913172996
12913182396
12913189293
12913200462
12913208519
12913216209
12913223778
12913232322
12913240928
12913247398
12913257103
12913264732
12913278831
12913284935
12913294883
12913303672
12913312400
12913321006
12913328514
12913338584
12913343406
12913354576
12913363792
12913370872
12913379966
12913388938
12913396812
12913405418
12913414756
12913421226
12913429954
12913436301
12913444968
12913455588
12913462363
12913471091
12913479270
12913486167
12913494468
12913501792
12913510032
12913519736
12913526816
12913533530
12913542624
12913547629
12913557944
12913566794
12913575644
12913584555
12913592551
12913602805
12913615256
12913627524
12913638022
12913648398
12913655844
12913665305
12913670432
12913681235
12913686789
12913693991
12913698264
12913708579
12913718100
12913727499
12913736288
12913744406
12913754965
12913760702
12913773276
12913782980
12913789633
12913796103
12913804648
12913813742
12913818564
12913829550
12913838705
12913847372
12913856283
12913864767
12913873373
12913879782
12913888021
12913896261
12913904928
12913913168
12913919699
12913928976
12913938192
12913946432
12913952963
12913961080
12913968405
12913975973
12913985983
12913994466
12914000021
12914007894
12914015218
12914021383
12914025716
12914033773
12914039022
12914045553
12914050924
12914055318
12914060811
12914067464
12914073812
12914079732
12914084920
12914088704
12914097921
12914103780
12914110616
12914116170
12914122091
12914129110
12914134359
12914140340
12914145162
12914151510
12914156026
12914161702
12914166768
12914173116
12914178670
12914182271
12914191365
12914195333
12914203206
12914207234
12914213887
12914219747
12914227193
12914233357
12914242269
12914248494
12914254842
12914260274
12914269246
12914274922
12914280476
12914286824
12914295308
12914303426
12914314290
12914323689
12914332295
12914338826
12914346760
12914350911
12914358052
12914361470
12914368672
12914373250
12914381917
12914389485
12914395283
12914399739
12914409199
12914415364
12914420735
12914427388
12914431233
12914436604
12914441060
12914447102
12914451313
12914456562
12914461140
12914466877
12914472309
12914477192
12914482746
12914488301
12914493977
12914498677
12914502583
12914507221
12914512593
12914517231
12914522297
12914530537
12914535664
12914542561
12914547077
12914551777
12914558369
12914564106
12914568745
12914572773
12914581013
12914584492
12914590656
12914596149
12914601948
12914606892
12914612934
12914617939
12914629047
12914631977
12914640522
12914645100
12914651691
12914655048
12914662800
12914666584
12914673542
12914678669
12914684528
12914688007
12914695087
12914700458
12914706867
12914712177
12914717121
12914722309
12914729816
12914734821
12914739521
12914745807
12914750873
12914757099
12914761982
12914767658
12914772907
12914779010
12914784259
12914788715
12914794940
12914800983
12914804706
12914812458
12914816120
12914824176
12914829547
12914834674
12914839130
12914845783
12914850849
12914858600
12914864398
12914869586
12914874469
12914883868
12914892474
12914895282
12914907672
12914912738
12914922076
12914929279
12914939532
12914944965
12914954547
12914961688
12914969684
12914976764
12914988910
12914996722
12915006610
12915013202
12915026446
12915035418
12915042132
12915048053
12915061541
12915069598
12915078936
12915084063
12915093707
12915100848
12915109454
12915116412
12915127886
12915134417
12915142291
12915151568
12915157977
12915167071
12915174761
12915183184
12915190325
12915199358
12915204485
12915215289
12915220965
12915230303
12915237444
12915246477
12915253802
12915264788
12915269976
12915279558
12915287249
12915294939
12915304155
12915311663
12915318743
12915328020
12915336443
12915344255
12915351946
12915359819
12915368975
12915376909
12915386064
12915396624
12915403398
12915411821
12915420427
12915428057
12915435198
12915440141
12915451128
12915461443
12915469804
12915474931
12915485368
12915490739
12915500749
12915507402
12915515520
12915522172
12915531206
12915537858
12915544694
12915553972
12915560441
12915570146
12915576799
12915583269
12915593706
12915600053
12915609819
12915616533
12915621415
12915632524
12915641191
12915648210
12915656877
12915663469
12915670671
12915679216
12915688554
12915695268
12915704911
12915712113
12915718827
12915730241
12915737687
12915749467
12915755387
12915765458
12915772660
12915782731
12915788041
12915797990
12915805863
12915813798
12915820756
12915829911
12915837357
12915848099
12915854203
12915868912
12915875260
12915884842
12915895157
12915901749
12915908890
12915917191
12915924881
12915936356
12915943802
12915951981
12915959244
12915968155
12915975235
12915983597
12915993058
12916000626
12916006546
12916016068
12916022965
12916033035
12916039444
12916047623
12916055863
12916064285
12916071976
12916078384
12916086075
12916094437
12916102859
12916110672
12916116592
12916125748
12916134109
12916141006
12916149490
12916158218
12916164688
12916169876
12916180923
12916190140
12916203628
12916211990
12916226700
12916232742
12916240860
12916248611
12916255081
12916263321
12916272293
12916278213
12916286026
12916293716
12916298843
12916308059
12916314529
12916323440
12916330642
12916340103
12916344680
12916353408
12916360915
12916368362
12916373122
12916381850
12916387344
12916392165
12916396804
12916403823
12916408828
12916414504
12916420974
12916429092
12916434585
12916440566
12916447341
12916453994
12916459182
12916465774
12916473159
12916480483
12916485610
12916491836
12916498122
12916504592
12916510024
12916517775
12916521743
12916528823
12916534011
12916540114
12916544631
12916549697
12916554763
12916560927
12916566970
12916573745
12916580153
12916587416
12916593337
12916601149
12916607497
12916613845
12916621047
12916626723
12916632765
12916639113
12916644057
12916651320
12916656691
12916663039
12916668410
12916676039
12916681105
12916685805
12916690077
12916696730
12916702101
12916710036
12916715773
12916721510
12916725905
12916731825
12916736830
12916740370
12916747755
12916751784
12916758070
12916761793
12916769057
12916772719
12916779982
12916784193
12916790846
12916796278
12916803663
12916809279
12916813490
12916817823
12916825148
12916831495
12916840101
12916847181
12916853590
12916859449
12916865797
12916871473
12916876417
12916887098
12916892897
12916900160
12916903700
12916909498
12916914198
12916920606
12916923780
12916930250
12916935316
12916942396
12916946180
12916952345
12916957594
12916963575
12916969068
12916973768
12916979200
12916984693
12916989271
12916994825
12917001295
12917007032
12917011243
12917020093
12917026502
12917033155
12917038831
12917044874
12917049146
12917053968
12917060438
12917063856
12917070203
12917075879
12917080579
12917086377
12917091443
12917096265
12917102552
12917107679
12917112928
12917117322
12917124585
12917129956
12917135328
12917140088
12917149060
12917155957
12917162793
12917170240
12917177930
12917184156
12917191175
12917197888
12917204419
12917209546
12917214917
12917221692
12917229993
12917235791
12917241589
12917250501
12917256970
12917266003
12917271924
12917280957
12917286755
12917293164
12917301221
12917308545
12917316235
12917323071
12917332165
12917335217
12917347546
12917352551
12917361645
12917370068
12917377759
12917384839
12917394055
12917402050
12917410717
12917418530
12917427868
12917435131
12917441967
12917448620
12917457836
12917464306
12917474316
12917481945
12917489392
12917495556
12917500927
12917513317
12917518444
12917527599
12917536083
12917545422
12917553173
12917559033
12917565563
12917575268
12917581738
12917589977
12917598522
12917606457
12917615856
12917622265
12917631176
12917636974
12917646252
12917651256
12917661938
12917669933
12917676586
12917685558
12917692882
12917700573
12917709179
12917715648
12917722728
12917731212
12917739940
12917746593
12917751964
12917761913
12917766796
12917778148
12917784191
12917793163
12917800426
12917807750
12917814708
12917823497
12917832836
12917840831
12917847240
12917854625
12917863963
12917871593
12917880016
12917886119
12917894969
12917900340
12917910655
12917915721
12917924754
12917932078
12917939586
12917947032
12917956248
12917962962
12917971812
12917978526
12917988658
12917995433
12918004649
12918013560
12918022654
12918029795
12918039561
12918045848
12918050853
12918061961
12918069834
12918079844
12918085215
12918095591
12918102488
12918110423
12918117137
12918124034
12918132578
12918142344
12918149119
12918158030
12918164866
12918174509
12918180735
12918190073
12918196665
12918207102
12918213755
12918223093
12918230112
12918238474
12918247751
12918254404
12918263010
12918274546
12918281931
12918290842
12918298166
12918305735
12918312388
12918321421
12918328074
12918337717
12918347239
12918354013
12918360605
12918370127
12918376596
12918384836
12918391184
12918399790
12918409311
12918416025
12918425119
12918432382
12918439951
12918447885
12918457040
12918465158
12918470956
12918480356
12918487436
12918496713
12918501535
12918510812
12918515756
12918527475
12918536325
12918544748
12918551340
12918559518
12918565256
12918576059
12918582467
12918592782
12918601205
12918607858
12918616098
12918625070
12918632516
12918641122
12918649301
12918658212
12918665597
12918672616
12918678659
12918683785
12918691903
12918694711
12918703439
12918709786
12918715157
12918722726
12918727548
12918736642
12918740731
12918748177
12918754586
12918761361
12918766549
12918773690
12918778878
12918783700
12918788277
12918797127
12918802010
12918808358
12918813485
12918819100
12918823556
12918829842
12918833810
12918841805
12918847359
12918852547
12918857003
12918863839
12918868905
12918876107
12918880501
12918888314
12918893441
12918900155
12918906197
12918911995
12918917733
12918924202
12918929329
12918936409
12918943062
12918949959
12918955147
12918961068
12918966927
12918970467
12918978524
12918982735
12918991768
12918996529
12919004524
12919009407
12919016731
12919022286
12919027352
12919031807
12919041451
12919046822
12919051827
12919058785
12919064278
12919068672
12919075020
12919081367
12919087898
12919093086
12919098946
12919103462
12919109138
12919115242
12919120918
12919125557
12919129463
12919137703
12919144722
12919149299
12919152778
12919160652
12919166939
12919172676
12919178962
12919185432
12919190437
12919197273
12919200935
12919207527
12919212654
12919219734
12919225593
12919231697
12919238655
12919244453
12919247749
12919254097
12919256965
12919265510
12919269233
12919277473
12919283515
12919288093
12919294624
12919299140
12919306281
12919311347
12919315009
12919324287
12919332771
12919337776
12919344550
12919351264
12919355476
12919363349
12919367500
12919376228
12919382453
12919386542
12919392036
12919397346
12919402778
12919407416
12919412788
12919419746
12919426215
12919431403
12919436164
12919443000
12919447944
12919453437
12919459235
12919467109
12919470893
12919477179
12919482917
12919488166
12919492682
12919499762
12919503425
12919512458
12919516425
12919524176
12919527777
12919535407
12919542609
12919550544
12919557379
12919567084
12919574774
12919583625
12919589850
12919598334
12919604376
12919614386
12919620856
12919631232
12919638129
12919645758
12919653693
12919659857
12919668890
12919674567
12919682623
12919692877
12919701117
12919706305
12919716070
12919720892
12919730719
12919737921
12919745917
12919752936
12919761908
12919768927
12919776800
12919782965
12919792669
12919798956
12919807013
12919813116
12919824041
12919830450
12919838018
12919846075
12919855474
12919862249
12919871282
12919877264
12919888372
12919895025
12919904241
12919910589
12919919500
12919928167
12919934759
12919942632
12919949102
12919958013
12919963201
12919973821
12919981756
12919987859
12919994756
12920005010
12920013250
12920022466
12920030157
12920038885
12920046392
12920054876
12920061773
12920070257
12920077703
12920087285
12920095037
12920105230
12920111943
12920119207
12920125554
12920133794
12920142400
12920154058
12920161687
12920168645
12920175054
12920184453
12920192327
12920199895
12920205937
12920215215
12920224126
12920226689
12920238286
12920242986
12920253056
12920258000
12920269658
12920276921
12920285283
12920292424
12920300236
12920306279
12920316777
12920322758
12920332768
12920339665
12920351140
12920357853
12920367436
12920373478
12920380558
12920388554
12920397404
12920403996
12920412297
12920421147
12920428410
12920436650
12920444035
12920451115
12920455693
12920467167
12920472660
12920483402
12920490910
12920499333
12920505924
12920513371
12920520634
12920530399
12920537846
12920546391
12920554142
12920563541
12920570560
12920577396
12920585880
12920593204
12920599796
12920610294
12920617008
12920625309
12920633915
12920641361
12920647831
12920655826
12920664127
12920671207
12920679447
12920684635
12920694584
12920702335
12920708744
12920716251
12920725711
12920734989
12920743045
12920750370
12920761234
12920768375
12920776248
12920784000
12920793643
12920801761
12920810672
12920818363
12920827091
12920834354
12920843753
12920850833
12920859561
12920867130
12920876590
12920884158
