12806259879
12806266044
12806270926
12806276053
12806280448
12806285636
12806290396
12806295768
12806299979
12806305350
12806310721
12806315848
12806320365
12806325431
12806330191
12806335318
12806340018
12806345267
12806350699
12806356558
12806361014
12806365958
12806372428
12806377127
12806380667
12806386099
12806391226
12806396292
12806403128
12806407889
12806412833
12806418997
12806423941
12806429984
12806436087
12806443289
12806451285
12806457205
12806469168
12806476370
12806484488
12806490164
12806497732
12806505789
12806512320
12806520804
12806528860
12806536673
12806542288
12806549368
12806555227
12806563589
12806569571
12806576345
12806581228
12806588675
12806593862
12806600576
12806610403
12806616690
12806623403
12806628469
12806634939
12806641531
12806645010
12806654348
12806660879
12806667593
12806673086
12806681570
12806687490
12806694143
12806702810
12806709036
12806714346
12806722219
12806726980
12806735464
12806742239
12806748159
12806754018
12806761159
12806766286
12806774038
12806781972
12806786733
12806795949
12806802724
12806808828
12806814626
12806820180
12806825429
12806833852
12806841665
12806846853
12806853444
12806861562
12806869069
12806875844
12806883962
12806890432
12806897512
12806904348
12806911550
12806918141
12806923574
12806930898
12806937429
12806944631
12806951467
12806956349
12806964406
12806969899
12806976247
12806982778
12806989919
12806996266
12807001332
12807007619
12807016164
12807022755
12807028371
12807035390
12807041432
12807047719
12807054127
12807060963
12807068410
12807074391
12807080311
12807087636
12807093739
12807099843
12807106007
12807112538
12807118825
12807124440
12807131825
12807137074
12807144215
12807150502
12807157338
12807163624
12807172291
12807179127
12807184864
12807190541
12807198658
12807203480
12807208668
12807217945
12807224110
12807230213
12807236073
12807243336
12807249012
12807257069
12807264332
12807271168
12807277332
12807283985
12807290638
12807295399
12807302662
12807308033
12807314625
12807320362
12807330128
12807338551
12807345081
12807354114
12807362354
12807366566
12807377735
12807386829
12807393848
12807402820
12807409473
12807417774
12807423938
12807432178
12807440174
12807447803
12807454700
12807462330
12807470203
12807475879
12807483631
12807489185
12807495349
12807504138
12807511158
12807518238
12807525196
12807532154
12807538379
12807547168
12807555347
12807562244
12807568775
12807575427
12807582080
12807590625
12807595996
12807603748
12807611133
12807619922
12807627246
12807633411
12807642810
12807649463
12807656665
12807663806
12807671435
12807678638
12807686023
12807692065
12807699817
12807707446
12807713244
12807722155
12807729419
12807736377
12807743213
12807746997
12807752490
12807758471
12807764697
12807771167
12807776049
12807783801
12807792224
12807797229
12807803149
12807810778
12807817797
12807822558
12807828234
12807833850
12807839648
12807845019
12807849841
12807856005
12807861132
12807865527
12807870898
12807874926
12807880785
12807886645
12807892138
12807897143
12807902941
12807907275
12807912157
12807916186
12807921313
12807926318
12807933276
12807937243
12807944994
12807951403
12807960802
12807967028
12807972094
12807979906
12807984728
12807992418
12807999621
12808005053
12808011339
12808018419
12808025072
12808030443
12808036059
12808041552
12808047411
12808053026
12808058825
12808065050
12808071581
12808076769
12808082018
12808087145
12808092760
12808096971
12808101610
12808108873
12808114244
12808119860
12808124254
12808131517
12808136278
12808141710
12808146898
12808152269
12808156542
12808164537
12808167772
12808175279
12808181322
12808186754
12808192491
12808198228
12808203416
12808209825
12808215623
12808223558
12808228502
12808233629
12808238512
12808244981
12808249193
12808257188
12808262498
12808268480
12808273302
12808278306
12808284654
12808289781
12808296312
12808301866
12808308091
12808313096
12808317857
12808325975
12808330125
12808337205
12808342881
12808350572
12808354661
12808361802
12808367356
12808372544
12808377305
12808384019
12808389573
12808394761
12808401475
12808406785
12808413560
12808418626
12808423326
12808430039
12808435533
12808442246
12808448594
12808453111
12808458116
12808465135
12808471055
12808476304
12808481370
12808488023
12808493760
12808500413
12808506638
12808511094
12808516709
12808523240
12808528184
12808534959
12808540330
12808546006
12808552293
12808559739
12808568650
12808575730
12808582871
12808591965
12808600083
12808607224
12808615403
12808622300
12808628281
12808638230
12808646531
12808655564
12808662156
12808668930
12808675339
12808684616
12808690049
12808700180
12808709030
12808716049
12808725205
12808732407
12808740341
12808747299
12808755051
12808762192
12808771469
12808778854
12808787094
12808795883
12808800949
12808810654
12808817856
12808824753
12808833786
12808843491
12808850449
12808857529
12808865219
12808872360
12808883591
12808891220
12808899154
12808906357
12808913925
12808922897
12808929245
12808937973
12808945724
12808952621
12808961959
12808969406
12808977401
12808986434
12808993881
12809000717
12809008590
12809015487
12809023239
12809032272
12809040511
12809047225
12809054183
12809061141
12809067855
12809077743
12809085067
12809094344
12809100936
12809109786
12809117782
12809124618
12809131820
12809140670
12809148666
12809156356
12809165206
12809172164
12809178878
12809188521
12809193709
12809203353
12809209884
12809220931
12809229110
12809235946
12809244124
12809251448
12809258345
12809266036
12809270003
12809283919
12809292342
12809299422
12809310103
12809320174
12809330367
12809341109
12809350020
12809361006
12809374373
12809385848
12809394331
12809400923
12809409773
12809420210
12809428206
12809434981
12809442488
12809448286
12809458601
12809466597
12809474776
12809481672
12809490095
12809498457
12809505964
12809514021
12809521772
12809529036
12809536848
12809542891
12809553267
12809560530
12809568037
12809574568
12809582197
12809590376
12809598005
12809606001
12809617048
12809624128
12809633772
12809639814
12809649214
12809655195
12809662702
12809670271
12809681684
12809687605
12809697919
12809704877
12809712385
12809720869
12809728254
12809734296
12809746137
12809752790
12809762006
12809768598
12809776838
12809784589
12809792524
12809799726
12809807905
12809816327
12809824140
12809830915
12809838483
12809847577
12809855329
12809863141
12809871076
12809879316
12809886945
12809893659
12809901349
12809908979
12809916547
12809925824
12809933881
12809941327
12809948956
12809956952
12809964398
12809972089
12809979840
12809982587
12809991132
12809997174
12810002240
12810007245
12810013287
12810018353
12810024579
12810029706
12810034528
12810042950
12810047589
12810052838
12810057599
12810063885
12810067364
12810076642
12810082318
12810088727
12810094220
12810099103
12810105389
12810113019
12810120038
12810127484
12810134869
12810140240
12810145611
12810152386
12810159893
12810165264
12810170697
12810177410
12810183270
12810189373
12810194073
12810197857
12810203533
12810209027
12810214764
12810220013
12810226544
12810231671
12810237408
12810241985
12810249004
12810252056
12810260235
12810265850
12810271404
12810277264
12810283184
12810289715
12810295269
12810300518
12810306683
12810313702
12810319256
12810324139
12810330242
12810336651
12810343182
12810348003
12810355389
12810360454
12810365948
12810371746
12810377361
12810382976
12810388775
12810391765
12810400860
12810404278
12810411174
12810417400
12810423137
12810427715
12810433757
12810440471
12810447368
12810453777
12810457988
12810464580
12810470195
12810475078
12810480937
12810485271
12810493694
12810499187
12810504741
12810509319
12810515117
12810520732
12810526225
12810532085
12810541179
12810547038
12810552654
12810557658
12810563030
12810567424
12810573528
12810577922
12810585796
12810590617
12810597514
12810601848
12810607951
12810614055
12810619487
12810623943
12810631511
12810637920
12810643535
12810649028
12810654582
12810658916
12810665019
12810671794
12810678447
12810683513
12810691691
12810696330
12810704509
12810710307
12810716960
12810723063
12810730815
12810734965
12810741801
12810746928
12810752787
12810757670
12810762309
12810767741
12810774028
12810779093
12810785319
12810789653
12810797953
12810804667
12810808940
12810816996
12810821818
12810830241
12810835795
12810845194
12810851298
12810857768
12810866496
12810877482
12810883952
12810893046
12810901408
12810905985
12810914774
12810922587
12810930826
12810938456
12810945048
12810954935
12810961222
12810972086
12810979105
12810988199
12810994791
12811004923
12811011637
12811020853
12811027445
12811034708
12811044413
12811052530
12811057901
12811065165
12811073648
12811082315
12811088663
12811098673
12811105326
12811112894
12811120706
12811128397
12811135355
12811143289
12811149637
12811158182
12811164285
12811173502
12811179666
12811188760
12811197488
12811203653
12811209695
12811219949
12811228128
12811236795
12811243021
12811250528
12811258523
12811266397
12811274637
12811282815
12811290384
12811298440
12811307473
12811316385
12811324746
12811332803
12811340066
12811348428
12811354959
12811364541
12811371499
12811379190
12811389382
12811396340
12811406106
12811415689
12811428262
12811436807
12811443887
12811456704
12811462380
12811471291
12811477517
12811486733
12811492593
12811502297
12811510598
12811517922
12811526772
12811534402
12811540810
12811548440
12811556557
12811564309
12811571084
12811582314
12811588601
12811596230
12811604470
12811612282
12811620156
12811627602
12811634133
12811642311
12811650551
12811658181
12811666970
12811672585
12811681069
12811688332
12811695290
12811705544
12811712380
12811719948
12811727272
12811734902
12811743324
12811749245
12811760292
12811768776
12811776283
12811783791
12811792152
12811799843
12811806496
12811814308
12811821144
12811830360
12811839332
12811846840
12811853798
12811861610
12811867775
12811876381
12811884865
12811896217
12811903358
12811911110
12811919655
12811925758
12811934364
12811941932
12811947914
12811957862
12811966346
12811973976
12811981361
12811988929
12811994972
12812003700
12812011634
12812021095
12812030189
12812038062
12812044898
12812052528
12812060890
12812068397
12812075233
12812083411
12812090553
12812098426
12812107154
12812115211
12812122108
12812130042
12812135963
12812146155
12812155677
12812163245
12812171058
12812178931
12812186194
12812193824
12812200110
12812210486
12812219458
12812227393
12812234473
12812243201
12812249671
12812257605
12812264380
12812268897
12812274817
12812280554
12812285193
12812291358
12812294776
12812301551
12812307349
12812313025
12812318823
12812324378
12812329077
12812334448
12812339087
12812344397
12812351538
12812358496
12812360999
12812368750
12812373389
12812378027
12812380652
12812390906
12812397498
12812401892
12812408850
12812413122
12812419409
12812423804
12812430640
12812437231
12812443945
12812449682
12812455603
12812462134
12812468237
12812473181
12812480749
12812486181
12812491919
12812497046
12812502661
12812509131
12812514502
12812520117
12812525976
12812531164
12812538244
12812543127
12812548437
12812553259
12812558935
12812563269
12812571752
12812575231
12812582800
12812589208
12812593786
12812601599
12812607763
12812614172
12812619787
12812626196
12812632055
12812638281
12812643957
12812649938
12812655554
12812660009
12812668737
12812674413
12812679540
12812685033
12812690771
12812696691
12812702123
12812709753
12812716039
12812722692
12812727819
12812732641
12812739538
12812744176
12812749608
12812754980
12812762914
12812767125
12812774389
12812780187
12812786107
12812791539
12812798192
12812804906
12812812474
12812819616
12812825536
12812831334
12812837987
12812843480
12812850255
12812855016
12812861608
12812865880
12812872045
12812876012
12812882238
12812887059
12812891881
12812898473
12812904881
12812908849
12812914769
12812918920
12812924962
12812930272
12812936742
12812940648
12812949193
12812952916
12812959630
12812964269
12812970982
12812976720
12812981786
12812987950
12812994969
12813002293
12813007298
12813013036
12813020970
12813025365
12813032811
12813038243
12813044835
12813051610
12813055699
12813062779
12813066929
12813072239
12813079258
12813088780
12813094395
12813102818
12813110508
12813117466
12813123143
12813131382
12813139561
12813148533
12813156956
12813164830
12813172093
12813179661
12813186253
12813193699
12813199620
12813211582
12813216099
12813225987
12813232884
12813240391
12813249241
12813256626
12813262119
12813271580
12813280308
12813287754
12813295261
12813302219
12813308750
12813317417
12813324131
12813331699
12813338657
12813347629
12813354404
12813361667
12813369846
12813375950
12813383274
12813392612
12813399997
12813406833
12813414890
12813426731
12813432895
12813440097
12813448520
12813454502
12813463169
12813472080
12813479526
12813487522
12813494846
12813498569
12813511081
12813514804
12813524997
12813531894
12813538730
12813545078
12813552036
12813559604
12813569553
12813574741
12813583591
12813589816
12813600558
12813609103
12813617160
12813625217
12813633761
12813639133
12813647311
12813655673
12813661410
12813670443
12813679294
12813688510
12813694552
12813703463
12813710971
12813717990
12813726168
12813733126
12813739169
12813748812
12813755892
12813763278
12813771029
12813779574
12813792269
12813798068
12813808322
12813814791
12813823519
12813830233
12813840121
12813846591
12813855013
12813864474
12813872897
12813879671
12813887057
12813893648
12813899874
12813907992
12813913302
12813922396
12813928072
12813936739
12813944430
12813954745
12813964266
12813978853
12813992647
12814003634
12814016451
12814027864
12814035921
12814044344
12814050569
12814060274
12814067964
12814073885
12814082002
12814088899
12814095430
12814102266
12814111971
12814121065
12814127535
12814136263
12814144869
12814151949
12814156099
12814168245
12814176973
12814185823
12814194368
12814202669
12814208894
12814216707
12814224885
12814233186
12814243013
12814250520
12814259553
12814267122
12814274263
12814281587
12814290071
12814297944
12814305330
12814311555
12814321138
12814328157
12814336335
12814344392
12814354158
12814360627
12814369477
12814375459
12814384309
12814391694
12814398164
12814406770
12814412934
12814421601
12814431184
12814438935
12814446504
12814452668
12814460297
12814466340
12814472260
12814479096
12814483125
12814488190
12814498994
12814503754
12814511323
12814516999
12814521210
12814526642
12814532868
12814537568
12814544098
12814548493
12814553254
12814559174
12814563325
12814569733
12814574677
12814579194
12814586640
12814590851
12814597138
12814600556
12814606476
12814611481
12814617279
12814623383
12814629547
12814633393
12814641754
12814647553
12814653473
12814657563
12814663422
12814669098
12814674225
12814679718
12814685211
12814691864
12814697235
12814703217
12814708649
12814714325
12814719025
12814725983
12814731415
12814736786
12814742767
12814748261
12814753571
12814760284
12814764557
12814771393
12814775726
12814782745
12814788849
12814793671
12814802521
12814809296
12814816742
12814829254
12814836273
12814843597
12814850616
12814858673
12814864105
12814869354
12814875580
12814880951
12814886566
12814892242
12814897125
12814903473
12814909210
12814914459
12814917389
12814929779
12814933868
12814940338
12814944610
12814950592
12814956024
12814961151
12814965667
12814972259
12814977508
12814982879
12814987640
12814995086
12814998931
12815006133
12815011505
12815017120
12815022003
12815027557
12815033599
12815039398
12815045318
12815051482
12815057037
12815063689
12815068755
12815075347
12815078521
12815086150
12815090423
12815097625
12815102508
12815108306
12815114715
12815120513
12815124908
12815131377
12815137664
12815143157
12815147552
12815153899
12815158355
12815163726
12815170623
12815175933
12815183074
12815187835
12815194487
12815200896
12815206084
12815211882
12815218413
12815223967
12815229094
12815234710
12815241362
12815245757
12815252837
12815257903
12815262969
12815268340
12815274810
12815282195
12815290007
12815297209
12815304839
12815313201
12815320952
12815328154
12815337126
12815345976
12815354155
12815361845
12815370146
12815378203
12815384428
12815391020
12815402067
12815409697
12815414519
12815423308
12815430876
12815437773
12815447355
12815455656
12815463774
12815469999
12815479338
12815485624
12815498137
12815509489
12815522245
12815534941
12815544950
12815552946
12815561674
12815569548
12815577909
12815585783
12815594084
12815602201
12815610624
12815618009
12815625822
12815633146
12815641203
12815649748
12815658353
12815666044
12815675687
12815683866
12815689970
12815699308
12815705778
12815712369
12815721952
12815728666
12815739774
12815746305
12815756132
12815762967
12815773404
12815780118
12815788846
12815795560
12815806791
12815813810
12815822965
12815829618
12815839444
12815845853
12815852689
12815861478
12815868619
12815877835
12815885892
12815892728
12815899930
12815906766
12815912747
12815920133
12815927823
12815939481
12815947049
12815954984
12815961026
12815968594
12815975125
12815983487
12815991421
12815998807
12816008206
12816013577
12816022977
12816030240
12816037198
12816044644
12816051663
12816057034
12816067654
12816074124
12816082303
12816090054
12816097622
12816101590
12816111966
12816117886
12816132901
12816140957
12816147488
12816154080
12816162991
12816170498
12816177822
12816187710
12816195217
12816203945
12816212368
12816219631
12816227078
12816235317
12816240994
12816249172
12816259609
12816266811
12816276211
12816282680
12816289272
12816298855
12816306240
12816312710
12816322964
12816332180
12816338955
12816344387
12816353420
12816360988
12816368923
12816375820
12816383754
12816391567
12816398281
12816406337
12816414638
12816420864
12816429470
12816436367
12816445034
12816451381
12816458827
12816466823
12816473720
12816481594
12816489345
12816498439
12816506374
12816515224
12816523219
12816529628
12816536403
12816545802
12816555690
12816563136
12816569606
12816576320
12816586208
12816593776
12816601039
12816608790
12816616908
12816623134
12816632472
12816640895
12816647181
12816653773
12816664454
12816671046
12816679591
12816686793
12816695948
12816702235
12816710536
12816718043
12816727870
12816737452
12816748011
12816758387
12816769740
12816779078
12816785853
12816789149
12816797572
12816803858
12816809901
12816815272
12816820643
12816825037
12816830042
12816832911
12816845057
12816852320
12816858363
12816861781
12816868006
12816871973
12816878077
12816883265
12816889857
12816894129
12816901026
12816906397
12816912012
12816919092
12816924097
12816929774
12816935755
12816941492
12816946924
12816952845
12816959009
12816964563
12816970423
12816973353
12816981287
12816987268
12816993372
12816997889
12817005213
12817009607
12817016748
12817021509
12817026636
12817034937
12817039820
12817046533
12817052637
12817060694
12817065332
12817069544
12817074854
12817080652
12817084558
12817090051
12817094202
12817100061
12817105005
12817110498
12817117700
12817124353
12817129175
12817135095
12817140039
12817146509
12817151453
12817156824
12817164087
12817169702
12817174036
12817179224
12817184228
12817189966
12817196435
12817202478
12817205835
12817212793
12817217126
12817223047
12817227624
12817239160
12817244653
12817251123
12817256921
12817266626
12817270959
12817277734
12817283288
12817288476
12817293298
12817298425
12817303918
12817309411
12817314111
12817319116
12817324792
12817329736
12817334191
12817339440
12817345483
12817351403
12817356530
12817361596
12817367272
12817372705
12817378198
12817384423
12817388940
12817394982
12817401147
12817406640
12817410912
12817417565
12817422082
12817427514
12817432641
12817440270
12817445947
12817451745
12817458092
12817463403
12817468896
12817475121
12817480065
12817483056
12817492577
12817497521
12817504662
12817508629
12817515710
12817521508
12817527306
12817532067
12817540185
12817544579
12817551354
12817557763
12817563683
12817567955
12817573510
12817578698
12817584008
12817592003
12817597741
12817602990
12817608971
12817615563
12817623619
12817632469
12817639916
12817648705
12817655907
12817662438
12817668968
12817678978
12817686058
12817695397
12817701805
12817709679
12817717491
12817725670
12817732872
12817739098
12817747459
12817754906
12817762901
12817770470
12817776939
12817783531
12817793907
12817800194
12817808006
12817814781
12817822349
12817830040
12817839317
12817846946
12817853843
12817861656
12817868553
12817876854
12817883690
12817891746
12817901207
12817907615
12817914146
12817924217
12817930931
12817940208
12817946739
12817954124
12817964134
12817969993
12817977439
12817986289
12817993675
12818001548
12818009483
12818015220
12818023338
12818030174
12818039878
12818047569
12818055808
12818062034
12818070274
12818078941
12818084251
12818093894
12818099387
12818109092
12818115623
12818123374
12818130942
12818139243
12818146079
12818154197
12818164328
12818171897
12818177451
12818186179
12818194358
12818202231
12818208518
12818216697
12818223654
12818230307
12818239768
12818246054
12818253806
12818261862
12818269370
12818276389
12818284384
12818292380
12818300681
12818308432
12818316916
12818324179
12818332541
12818339560
12818349631
12818356161
12818364889
12818373556
12818379599
12818389365
12818397848
12818405295
12818411703
12818420798
12818425192
12818440329
12818447348
12818455893
12818464315
12818471457
12818478415
12818488424
12818495138
12818505392
12818514486
12818521139
12818528646
12818537191
12818545065
12818550985
12818561361
12818569662
12818577108
12818585287
12818593832
12818598715
12818609335
12818615804
12818625143
12818632467
12818642171
12818649252
12818658041
12818667867
12818673421
12818683370
12818691122
12818698446
12818707296
12818714925
12818723348
12818731527
12818738546
12818746785
12818753682
12818762166
12818769552
12818780782
12818787374
12818793843
12818803975
12818810384
12818819844
12818827840
12818835408
12818843526
12818852498
12818860738
12818868978
12818876424
12818885152
12818892415
12818900594
12818907185
12818916463
12818925374
12818930501
12818940511
12818948018
12818955464
12818964864
12818972493
12818977986
12818987935
12818995991
12819004109
12819011738
12819020100
12819024495
12819033894
12819041157
12819049214
12819060200
12819066914
12819075276
12819082417
12819089680
12819096943
12819105732
12819111775
12819119404
12819125752
12819131733
12819135639
12819142414
12819147724
12819153767
12819159931
12819163899
12819170002
12819176228
12819181111
12819187702
12819192219
12819198383
12819205891
12819211506
12819217732
12819224934
12819231770
12819238300
12819244831
12819251789
12819257526
12819263996
12819269977
12819275715
12819282123
12819288593
12819294147
12819299824
12819304890
12819311115
12819315449
12819320942
12819325702
12819333210
12819337909
12819344196
12819349079
12819353656
12819361225
12819365986
12819373249
12819377826
12819383869
12819390766
12819396198
12819400959
12819408832
12819413654
12819418781
12819425861
12819429706
12819436237
12819440814
12819448688
12819455829
12819461505
12819467731
12819473895
12819479633
12819486163
12819490253
12819498432
12819501910
12819510028
12819515826
12819522357
12819525531
12819533710
12819538348
12819545917
12819550616
12819557819
12819562945
12819571735
12819576617
12819581439
12819587176
12819593707
12819599017
12819605975
12819612567
12819617938
12819623309
12819628802
12819635455
12819642047
12819646991
12819652667
12819658954
12819664203
12819670489
12819675799
12819682391
12819686908
12819693194
12819698687
12819704058
12819709307
12819714984
12819720843
12819725054
12819731463
12819737872
12819742816
12819747637
12819755633
12819760882
12819767474
12819773638
12819777422
12819784258
12819789629
12819795489
12819801714
12819807085
12819813189
12819819476
12819825030
12819831316
12819835284
12819842791
12819847735
12819857378
12819864886
12819869952
12819875750
12819884295
12819887713
12819895220
12819900103
12819908465
12819913042
12819919756
12819924334
12819929461
12819935564
12819941362
12819945391
12819950640
12819957048
12819961504
12819967730
12819973223
12819978106
12819983294
12819989458
12819995195
12820002520
12820010271
12820017107
12820024065
12820032671
12820038103
12820046221
12820055132
12820062151
12820068987
12820077471
12820085771
12820093767
12820101335
12820108171
12820118364
12820124529
12820131425
12820138872
12820146440
12820154863
12820164079
12820169084
12820179277
12820185808
12820195085
12820202409
12820210039
12820217302
12820225236
12820232072
12820240434
12820244767
12820256547
12820263017
12820271684
12820278093
12820287309
12820293901
12820302995
12820310136
12820318315
12820325395
12820332536
12820340653
12820347734
12820355790
12820362748
12820371293
12820380814
12820388200
12820397294
12820405167
12820409440
12820419083
12820425431
12820433732
12820442643
12820452836
12820460770
12820468034
12820474442
12820483842
12820490128
12820497391
12820505753
12820511002
12820519486
12820525956
12820533280
12820540787
12820550248
12820555191
12820562760
12820569962
12820578019
12820585709
12820594681
12820602921
12820611588
12820619034
12820627457
12820634354
12820644913
12820651810
12820659378
12820666519
12820674698
12820682022
12820689591
12820695511
12820704971
12820711380
12820719925
12820726456
12820734634
12820742813
12820749771
12820761002
12820766617
12820775711
12820781998
12820791275
12820797378
12820803970
12820811600
12820818985
12820827774
12820835769
12820841079
12820849075
12820857193
12820863235
12820872573
12820879287
12820886123
12820897659
12820904007
12820910415
12820920852
12820927932
12820935745
12820942398
12820952163
12820960159
12820967910
12820975051
12820982375
12820988845
12820997756
12821006057
12821014663
12821022048
12821028640
12821036880
12821045364
12821050246
12821058974
12821068252
12821073562
12821083144
12821092422
12821099013
12821107375
12821115127
12821123305
12821130385
12821138503
12821146438
12821151259
12821160476
12821168654
12821176589
12821183303
12821191909
12821199233
12821207595
12821214003
12821221816
12821229750
12821237807
12821245009
12821252638
12821260390
12821267409
12821275710
12821285109
12821293593
12821299208
12821308119
12821315199
12821323073
12821331740
12821338576
12821345167
12821355910
12821362318
12821371168
12821378493
12821386183
12821394240
12821402357
12821409926
12821419020
12821427504
12821435621
12821443373
12821450453
12821458509
12821464796
12821470778
12821476332
12821483107
12821489515
12821497206
12821505445
12821516432
12821523085
12821532545
12821543287
12821550916
12821560560
12821566358
12821578626
12821588514
12821597852
12821605177
12821612745
12821620374
12821628065
12821634779
12821644361
12821651319
12821659009
12821667860
12821678419
12821687330
12821694715
12821703443
12821710584
12821717908
12821725171
12821733594
12821741163
12821748548
12821755445
12821763868
12821771619
12821778882
12821787427
12821795301
12821801648
12821809461
12821815381
12821824170
12821831250
12821839551
12821847058
12821855603
12821864087
12821872632
12821880383
12821889478
12821898145
12821906140
12821915479
12821923230
12821930127
12821937268
12821943799
12821953198
12821957288
12821966748
12821974255
12821981824
12821988721
12821996411
12822005261
12822012585
12822019726
12822028882
12822034985
12822044140
12822051465
12822058484
12822065991
12822075451
12822083264
12822089367
12822098278
12822107312
12822114880
12822124218
12822130993
12822140576
12822146862
12822157238
12822165966
12822174450
12822185253
12822192700
12822201366
12822208752
12822217419
12822227306
12822234753
12822242504
12822252575
12822260387
12822267895
12822274486
12822281383
12822289501
12822299267
12822306835
12822315319
12822325329
12822331920
12822339245
12822345836
12822355053
12822363109
12822370555
12822378490
12822385204
12822393810
12822401561
12822408763
12822416271
12822423290
12822430736
12822439342
12822447276
12822456737
12822465282
12822472545
12822480602
12822489696
12822497264
12822504405
12822511974
12822520824
12822527293
12822537425
12822549937
12822554820
12822568980
12822577037
12822588573
12822598155
12822606761
12822615550
12822625987
12822636302
12822643565
12822653209
12822660899
12822674510
12822683299
12822695323
12822704539
12822712901
12822721263
12822731944
12822740550
12822750865
12822760874
12822770579
12822779612
12822789072
12822797984
12822806406
12822818552
12822827036
12822837717
12822849375
12822857127
12822867258
12822876658
12822883311
12822890757
12822897593
12822904551
12822909495
12822917429
12822923472
12822931833
12822937998
12822943979
12822951181
12822959421
12822964792
12822972239
12822977732
12822983164
12822992685
12822998484
12823006662
12823012155
12823017893
12823025644
12823031198
12823038706
12823044809
12823050974
12823056284
12823064768
12823070749
12823077768
12823085092
12823090952
12823098947
12823104013
12823112314
12823118845
12823128122
12823134653
12823143259
12823149972
12823157297
12823165597
12823171396
12823179391
12823185556
12823194162
12823200876
12823208505
12823215280
12823222543
12823230417
12823236825
12823242868
12823253244
12823258676
12823267892
12823273141
12823282235
12823288095
12823296579
12823304879
12823313302
12823320016
12823327951
12823336068
12823342904
12823349130
12823355599
12823363534
12823370004
12823376168
12823384652
12823390572
12823398080
12823405892
12823412667
12823422128
12823428231
12823438546
12823445443
12823454354
12823461007
12823468331
12823476266
12823483163
12823492623
12823499215
12823506783
12823513924
12823523263
12823530282
12823538216
12823545418
12823552987
12823562142
12823571175
12823576424
12823584786
12823593453
12823600045
12823608895
12823616280
12823625191
12823632637
12823641976
12823650643
12823660225
12823666695
12823677132
12823685494
12823693794
12823701485
12823710518
12823718452
12823724617
12823733040
12823742256
12823747078
12823757759
12823764412
12823773201
12823780769
12823787605
12823795112
12823802559
12823811287
12823819160
12823827217
12823833931
12823842537
12823849434
12823857429
12823865791
12823874458
12823881721
12823890632
12823896980
12823907173
12823913703
12823920783
12823930122
12823936958
12823944892
12823950508
12823955207
12823961616
12823968635
12823972968
12823978401
12823983772
12823987739
12823994758
12824000251
12824005012
12824009223
12824015266
12824018500
12824025275
12824031135
12824036933
12824040900
12824046760
12824050910
12824056830
12824062568
12824068854
12824074286
12824079474
12824084540
12824088996
12824094001
12824099738
12824107612
12824113288
12824120490
12824124885
12824132026
12824137153
12824142463
12824147223
12824155402
12824160590
12824166571
12824171271
12824177191
12824182379
12824187873
12824193061
12824199042
12824204962
12824209113
12824214789
12824220221
12824225287
12824230292
12824236762
12824242072
12824247077
12824251898
12824257575
12824263739
12824268134
12824275031
12824280951
12824287848
12824293951
12824299506
12824306158
12824312018
12824318915
12824324530
12824332465
12824337286
12824344000
12824349005
12824355414
12824359442
12824364325
12824370306
12824376654
12824381048
12824386542
12824390753
12824397894
12824402533
12824408636
12824413702
12824420233
12824425665
12824430975
12824437445
12824442022
12824447638
12824453253
12824458563
12824464605
12824471014
12824474188
12824481451
12824487677
12824493780
12824499273
12824504827
12824510259
12824518316
12824524603
12824530157
12824534551
12824539434
12824546392
12824550176
12824556768
12824562628
12824569830
12824575384
12824580511
12824586309
12824591985
12824598089
12824603033
12824607793
12824615362
12824619695
12824627142
12824632391
12824638128
12824643560
12824648992
12824654851
12824662176
12824667364
12824672674
12824677678
12824684087
12824689641
12824693731
12824700078
12824706426
12824713750
12824718084
12824725164
12824730047
12824735051
12824740911
12824746038
12824751775
12824757390
12824763250
12824769719
12824777227
12824784673
12824791509
12824799016
12824805059
12824816045
12824824834
12824833318
12824836980
12824846929
12824852971
12824860478
12824869878
12824877568
12824887578
12824894353
12824904179
12824910649
12824917485
12824925359
12824932561
12824941777
12824949834
12824960148
12824967412
12824974064
12824981694
12824988591
12824996586
12825002568
12825012883
12825019841
12825027409
12825033329
12825042546
12825048527
12825057438
12825065800
12825075260
12825081425
12825091130
12825096989
12825103642
12825112736
12825118412
12825127995
12825135563
12825144413
12825152104
12825159184
12825166996
12825173893
12825180424
12825189701
12825194279
12825206425
12825213627
12825221867
12825230411
12825239017
12825246036
12825253971
12825257877
12825270756
12825277347
12825285465
12825291691
12825300907
12825306827
12825315311
12825321720
12825331669
12825338138
12825345401
12825354557
12825362247
12825369083
12825375125
12825384403
12825390995
12825401126
12825406253
12825415897
12825422855
12825430301
12825437991
12825445987
12825453494
12825462589
12825470218
12825477786
12825484988
12825493106
12825497562
12825507205
12825513736
12825525149
12825533328
12825539065
12825547793
12825555850
12825562259
12825568912
12825577701
12825584170
12825593997
12825601016
12825608523
12825616214
12825623721
12825629824
12825639163
12825644778
12825655459
12825661135
12825670657
12825678164
12825685855
12825690798
12825699954
12825706362
12825718142
12825722964
12825734011
12825740603
12825750186
12825756411
12825763979
12825773135
12825783450
12825789736
12825796023
12825804812
12825813235
12825819949
12825827944
12825834902
12825842409
12825851992
12825859194
12825866457
12825873476
12825880922
12825887575
12825895083
12825904177
12825912356
12825919863
12825927309
12825934328
12825942324
12825948122
12825957277
12825963625
12825974855
12825981386
12825990541
12825997133
12826005495
12826011415
12826019106
12826026308
12826035707
12826043459
12826051820
12826061037
12826067934
12826075136
12826082033
12826089479
12826096681
12826106752
12826115602
12826123659
12826130983
12826138612
12826143129
12826154359
12826160707
12826171327
12826179811
12826187135
12826194398
12826202577
12826207155
12826213136
12826217225
12826225099
12826229799
12826236940
12826241273
12826248414
12826253419
12826259156
12826265992
12826271546
12826278627
12826283265
12826288209
12826292970
12826298829
12826303590
12826310975
12826316773
12826322877
12826328614
12826335145
12826341065
12826347657
12826353028
12826359193
12826365479
12826371278
12826377137
12826383729
12826387330
12826394837
12826399598
12826408997
12826414002
12826420594
12826425050
12826432435
12826437562
12826444459
12826450440
12826458008
12826466309
12826471863
12826478516
12826482972
12826489564
12826493226
12826500000
12826505127
12826510132
12826516053
12826520691
12826525757
12826532715
12826537842
12826542420
12826549439
12826556275
12826560913
12826567444
12826572571
12826579407
12826584595
12826589661
12826594361
12826602295
12826608032
12826613648
12826618653
12826624268
12826630432
12826635315
12826639832
12826647156
12826652039
12826658875
12826663696
12826671204
12826676270
12826683411
12826688538
12826694214
12826698669
12826704895
12826711304
12826714783
12826721619
12826727539
12826732849
12826738891
12826744202
12826751037
12826756531
12826760681
12826767639
12826772400
12826777893
12826783142
12826791015
12826797241
12826803344
12826808838
12826814453
12826820312
12826824218
12826832214
12826838867
12826843261
12826851318
12826856384
12826862609
12826869445
12826874389
12826879638
12826886657
12826892639
12826898376
12826905334
12826910522
12826915588
12826920043
12826927429
12826931457
12826939147
12826943542
12826950622
12826955505
12826960998
12826965820
12826971252
12826976318
12826984069
12826989135
12826994079
12827000976
12827005187
12827010802
12827016784
12827023193
12827029235
12827034728
12827041991
12827048095
12827055480
12827061767
12827067687
12827074340
12827082396
12827089415
12827096801
12827103820
12827111510
12827118834
12827125304
12827132201
12827140319
12827149840
12827155089
12827163878
12827169310
12827176390
12827183226
12827191283
12827200926
12827209960
12827216246
12827223876
12827232970
12827239134
12827247374
12827254820
12827260985
12827271117
12827277708
12827286314
12827295653
12827302367
12827309630
12827318236
12827325194
12827333617
12827341185
12827348814
12827356383
12827363707
12827371214
12827378233
12827386290
12827392332
12827403013
12827410704
12827418150
12827426146
12827434019
12827440428
12827446897
12827455992
12827464292
12827470823
12827477842
12827487242
12827492857
12827501890
12827510374
12827517210
12827524351
12827533628
12827541624
12827548582
12827556333
12827563108
12827572141
12827579282
12827585386
12827593687
12827601621
12827609067
12827617734
12827623594
12827632139
12827639585
12827645688
12827655576
12827661680
12827667905
12827676572
12827683530
12827692624
12827698484
12827707273
12827712522
12827723447
12827731260
12827738584
12827744870
12827754636
12827761472
12827769284
12827776914
12827785581
12827793332
12827801267
12827808347
12827816648
12827822873
12827832456
12827838864
12827849973
12827858701
12827867307
12827873898
12827881039
12827889767
12827896664
12827904233
12827911923
12827922909
12827929867
12827940793
12827947934
12827957272
12827965085
12827974423
12827980343
12827989804
12827996335
12828005673
12828013241
12828023190
12828029904
12828039547
12828047116
12828054928
12828064328
12828074215
12828083309
12828090512
12828097958
12828107662
12828114315
12828123715
12828130856
12828139034
12828150143
12828160030
12828167904
12828176937
12828185177
12828196346
12828204830
12828212521
12828220150
12828228573
12828236751
12828245418
12828253536
12828262752
12828269893
12828277950
12828284481
12828292354
12828302486
12828308407
12828318172
12828326107
12828334407
12828341243
12828351680
12828357235
12828368038
12828375484
12828383663
12828390926
12828399776
12828406612
12828412898
12828422786
12828430477
12828437923
12828446407
12828454280
12828461360
12828470027
12828477107
12828485957
12828493037
12828501460
12828507991
12828517146
12828524409
12828533748
12828540278
12828546992
12828551326
12828556758
12828562434
12828568965
12828574153
12828581538
12828586299
12828592952
12828598445
12828603450
12828611750
12828617915
12828621089
12828629329
12828635737
12828643000
12828646540
12828655207
12828660517
12828666377
12828674861
12828679499
12828686518
12828691889
12828699214
12828703852
12828711360
12828717646
12828723383
12828728755
12828736262
12828741633
12828747309
12828753535
12828759638
12828762995
12828770686
12828775874
12828783869
12828788752
12828795039
12828800593
12828805415
12828813593
12828819330
12828825007
12828830744
12828836481
12828842463
12828847590
12828852350
12828859553
12828864924
12828872187
12828877375
12828884516
12828892145
12828897699
12828906794
12828911554
12828918390
12828924189
12828930170
12828934931
12828943171
12828949091
12828955194
12828961237
12828967096
12828970392
12828978754
12828982050
12828990961
12828996027
12829003961
12829008234
12829014581
12829019220
12829023859
12829030206
12829035394
12829042352
12829047968
12829054437
12829059747
12829066827
12829072687
12829078241
12829082819
12829090631
12829095819
12829101373
12829106317
12829113092
12829118524
12829124261
12829128717
12829135187
12829140314
12829147455
12829151971
12829158136
12829164361
12829169427
12829175897
12829181085
12829188287
12829194207
12829199151
12829205560
12829210931
12829215570
12829221185
12829228265
12829234979
12829240106
12829245294
12829251336
12829257562
12829263299
12829269342
12829274407
12829282647
12829287530
12829295220
12829300164
12829306329
12829311944
12829317071
12829322564
12829329339
12829333795
12829339471
12829343560
12829349053
12829354668
12829358514
12829364373
12829369012
12829375848
12829381158
12829387383
12829392266
12829397271
12829403069
12829408135
12829413689
12829419182
12829424615
12829432244
12829436272
12829444451
12829452080
12829460259
12829469353
12829475762
12829482293
12829491875
12829498650
12829504937
12829514214
12829521721
12829529534
12829539482
12829547295
12829554070
12829561150
12829568047
12829576836
12829581108
12829591789
12829600640
12829608940
12829616203
12829624138
12829631340
12829639824
12829647575
12829655937
12829662956
12829668938
12829676384
12829686638
12829693291
12829700859
12829708366
12829717522
12829725090
12829731193
12829739189
12829746269
12829754936
12829762626
12829769340
12829775871
12829784477
12829791069
12829800712
12829807853
12829816276
12829822441
12829830925
12829838920
12829845573
12829852836
12829861747
12829869621
12829877128
12829884513
12829893730
12829903739
12829909294
12829917045
12829925041
12829933830
12829938224
12829947929
12829954398
12829963920
12829970817
12829977592
12829986991
12829995841
12830002616
12830011039
12830019095
12830027946
12830035575
12830041678
12830051078
12830060660
12830068229
12830075736
12830084281
12830090995
12830098746
12830106009
12830114737
12830121329
12830130667
12830137320
12830145926
12830152762
12830161063
12830168265
12830175284
12830182791
12830191825
12830204764
12830212149
12830219656
12830227591
12830235648
12830244498
12830252249
12830260489
12830268240
12830276968
12830284781
12830291434
12830299612
12830303824
12830315909
12830324759
12830333853
12830342642
12830351614
12830358328
12830366568
12830374136
12830382681
12830390066
12830398916
12830408072
12830414236
12830421316
12830431021
12830438589
12830447317
12830454031
12830464102
12830473135
12830479666
12830486135
12830496145
12830502615
12830512136
12830518911
12830528616
12830536733
12830544973
12830551870
12830560842
12830567556
12830576345
12830583120
12830595266
12830601919
12830612295
12830619863
12830627981
12830635061
12830640432
12830650197
12830656789
12830664174
12830670949
12830681264
12830689321
12830696584
12830702871
12830711049
12830719045
12830728749
12830736440
12830744741
12830753347
12830762136
12830770314
12830776418
12830785146
12830793447
12830800221
12830809499
12830816274
12830826405
12830833608
12830840993
12830850819
12830858998
12830869191
12830874745
12830884816
12830893605
12830900380
12830905873
12830912465
12830913869
12830922780
12830927846
12830934498
12830940175
12830946034
12830949452
12830955861
12830961964
12830969594
12830974904
12830982045
12830987843
12830992970
12830998341
12831005360
12831011952
12831017872
12831024037
12831029042
12831034535
12831040333
12831045216
12831052418
12831057118
12831063771
12831068043
12831073109
12831081104
12831088612
12831094471
12831103565
12831106861
12831115040
12831120350
12831127613
12831133595
12831137623
12831142445
12831150684
12831155506
12831161366
12831168385
12831174976
12831180347
12831186817
12831192554
12831200123
12831205372
12831212574
12831217762
12831222278
12831229725
12831235340
12831241504
12831247425
12831254383
12831259022
12831266468
12831272144
12831277942
12831283252
12831289783
12831297107
12831302601
12831309375
12831315479
12831321521
12831328418
12831334888
12831340015
12831345630
12831352100
12831362415
12831370899
12831379016
12831386585
12831393299
12831401599
12831410022
12831417896
12831422595
12831427539
12831432910
12831438281
12831444507
12831449695
12831455554
12831461230
12831466357
12831471851
12831477161
12831482227
12831487414
12831493030
12831498584
12831502978
12831507983
12831512378
12831517932
12831522510
12831526782
12831533069
12831539599
12831543750
12831548633
12831552844
12831558337
12831561816
12831566821
12831572070
12831577319
12831581958
12831587146
12831591845
12831595935
12831601001
12831606921
12831614001
12831618823
12831624499
12831629382
12831634021
12831636401
12831644946
12831649890
12831657336
12831661975
12831668200
12831673266
12831677416
12831681445
12831687182
12831691638
12831697436
12831701708
12831707568
12831712939
12831717272
12831721911
12831727343
12831732409
12831739001
12831745226
12831753344
12831760607
12831767748
12831769457
12831783129
12831789538
12831797472
12831805163
12831813097
12831817003
12831827379
12831833666
12831840929
12831844774
12831856493
12831862536
12831872423
12831878771
12831885912
12831891954
12831900499
12831906969
12831913561
12831921617
12831930040
12831940111
12831946642
12831953905
12831962206
12831969957
12831976000
12831984545
12831992296
12832000414
12832008348
12832014574
12832023058
12832029405
12832035936
12832046922
12832053209
12832060350
12832067735
12832076097
12832084337
12832092149
12832099718
12832107164
12832115404
12832123338
12832130479
12832139451
12832145738
12832154466
12832159776
12832169664
12832177537
12832184129
12832189988
12832200059
12832207566
12832215135
12832220384
12832228440
12832235887
12832245164
12832253831
12832259934
12832266465
12832276658
12832284043
12832291917
12832298081
12832306016
12832313889
12832321885
12832329148
12832335801
12832344102
12832351975
12832360154
12832369797
12832377488
12832384751
12832393113
12832399949
12832408188
12832412888
12832423508
12832430039
12832439316
12832445847
12832453843
12832463608
12832468857
12832478196
12832485154
12832492539
12832499863
12832507859
12832513962
12832521775
12832529221
12832537949
12832546738
12832552719
12832559250
12832567246
12832577561
12832585434
12832591660
12832599838
12832607834
12832613144
12832621262
12832630966
12832638229
12832645065
12832653366
12832660995
12832669418
12832677414
12832683945
12832690231
12832698898
12832705551
12832712753
12832722458
12832728561
12832738266
12832745041
12832752426
12832760360
12832767929
12832775802
12832784347
12832791549
12832799484
12832806625
12832812545
12832819503
12832829269
12832835861
12832844711
12832851364
12832859420
12832867233
12832874374
12832882003
12832893112
12832900924
12832906295
12832917526
12832923629
12832931869
12832940231
12832949142
12832953780
12832964400
12832971603
12832978438
12832986007
12832993514
12833003097
12833009688
12833019210
12833026351
12833033919
12833042708
12833050582
12833056624
12833064559
12833072860
12833081527
12833087569
12833099715
12833106612
12833113082
12833121444
12833130416
12833137557
12833142867
12833150557
12833162154
12833170149
12833175704
12833184615
12833188460
12833193892
12833200911
12833205611
12833212264
12833217818
12833223372
12833229964
12833235030
12833241255
12833246260
12833250655
12833256941
12833261397
12833267439
12833271773
12833277388
12833281660
12833287276
12833291487
12833298018
12833302351
12833306929
12833313765
12833319807
12833324690
12833329390
12833335371
12833342940
12833347700
12833354231
12833358870
12833363813
12833371748
12833376143
12833383162
12833388960
12833395063
12833400129
12833406416
12833411421
12833418074
12833424971
12833429487
12833436262
12833441999
12833447065
12833454023
12833458540
12833464094
12833471662
12833476240
12833481489
12833487409
12833494245
12833499067
12833505293
12833511457
12833516767
12833522932
12833528791
12833533674
12833539899
12833545942
12833552351
12833557966
12833563032
12833570112
12833574567
12833582319
12833588605
12833596052
12833599225
12833607099
12833615156
12833621625
12833626630
12833632734
12833639325
12833646589
12833649762
12833658124
12833662763
12833669538
12833674115
12833680036
12833686444
12833692548
12833697858
12833702314
12833708844
12833715253
12833721418
12833726911
12833732953
12833739606
12833747174
12833753705
12833758649
12833763471
12833770673
12833776044
12833780194
12833788617
12833794293
12833801923
12833807965
12833813275
12833818219
12833824078
12833831097
12833837384
12833844037
12833851056
12833856549
12833863324
12833868390
12833875165
12833881207
12833885968
12833891156
12833896588
12833904828
12833911358
12833916791
12833921856
12833927289
12833930096
12833940716
12833945965
12833952984
12833957135
12833964459
12833968731
12833977154
12833982586
12833988751
12833996380
12834002240
12834008160
12834013958
12834020550
12834026654
12834033245
12834038677
12834045513
12834048809
12834059063
12834066021
12834075054
12834082867
12834090740
12834097454
12834104107
12834110760
12834121380
12834127728
12834134441
12834143719
12834149090
12834158672
12834166546
12834175335
12834181805
12834190655
12834200054
12834209453
12834214275
12834226543
12834231792
12834244182
12834250225
12834258709
12834266460
12834275921
12834282695
12834290691
12834303508
12834310466
12834320598
12834327861
12834337444
12834344341
12834351604
12834359355
12834367961
12834376262
12834383464
12834389873
12834398845
12834407207
12834413310
12834421611
12834428020
12834437785
12834442973
12834453227
12834459270
12834468730
12834475749
12834484050
12834492534
12834500407
12834507731
12834518413
12834523295
12834533183
12834539653
12834547831
12834554606
12834562968
12834567302
12834578288
12834588420
12834595134
12834604106
12834612956
12834619487
12834627238
12834636820
12834643412
12834653056
12834660075
12834669718
12834678019
12834685404
12834692484
12834702189
12834709025
12834716715
12834724101
12834732279
12834740946
12834747172
12834756327
12834764750
12834769083
12834778788
12834789713
12834798441
12834804728
12834814371
12834826334
12834835306
12834843973
12834851786
12834859415
12834867289
12834874674
12834882425
12834890360
12834899942
12834906778
12834914713
12834920755
12834929850
12834939066
12834946695
12834952738
12834961527
12834969583
12834977396
12834983499
12834991129
12834999979
12835008463
12835014444
12835022134
12835031290
12835037271
12835046671
12835053873
12835060831
12835068887
12835079019
12835085672
12835095926
12835102456
12835112039
12835120645
12835127847
12835135171
12835144082
12835150735
12835159707
12835166665
12835173562
12835181802
12835189065
12835199319
12835208841
12835217324
12835228311
12835234109
12835243508
12835250894
12835260049
12835265786
12835274880
12835282205
12835291421
12835299050
12835308205
12835314370
12835323586
12835330788
12835337685
12835346169
12835355386
12835362588
12835369607
12835376321
12835385232
12835393838
12835401345
12835412392
12835418862
12835426491
12835433327
12835440957
12835450173
12835456643
12835465615
12835472329
12835481545
12835488808
12835495766
12835503701
12835510842
12835517800
12835527443
12835533486
12835541176
12835547524
12835552162
12835557472
12835561684
12835567909
12835574257
12835580177
12835585671
12835592568
12835597450
12835602272
12835607765
12835614052
12835618996
12835625160
12835631386
12835635780
12835641884
12835646034
12835653236
12835658852
12835665199
12835671974
12835677772
12835683632
12835689003
12835693275
12835699806
12835703102
12835710487
12835715919
12835723427
12835729164
12835734535
12835740211
12835748451
12835757606
12835764076
12835770668
12835775245
12835785926
12835791359
12835797157
12835804603
12835811378
12835817054
12835822731
12835829322
12835834754
12835840614
12835846290
12835851844
12835858314
12835863441
12835871070
12835875770
12835881568
12835887611
12835893287
12835899757
12835905616
12835910865
12835916602
12835922706
12835928504
12835934730
12835940345
12835946448
12835952735
12835958289
12835963904
12835969642
12835975196
12835980628
12835986060
12835992408
12835998389
12836004188
12836010779
12836017005
12836022925
12836028846
12836034827
12836039344
12836046424
12836053138
12836058753
12836063575
12836069068
12836074988
12836080664
12836086951
12836093970
12836100196
12836106055
12836110755
12836116370
12836120887
12836127051
12836133826
12836140113
12836143347
12836151465
12836157874
12836163428
12836167883
12836173987
12836178198
12836187781
12836192420
12836199316
12836204016
12836209387
12836214209
12836220740
12836226477
12836232581
12836238867
12836243018
12836249792
12836254553
12836259924
12836264624
12836272375
12836279272
12836284277
12836289221
12836295630
12836302038
12836307104
12836312842
12836319616
12836324743
12836329687
12836335180
12836340796
12836346777
12836352636
12836364050
12836370031
12836376989
12836387609
12836395117
12836403845
12836409460
12836417517
12836428137
12836435400
12836442907
12836450231
12836457861
12836463964
12836472814
12836481115
12836489538
12836495825
12836505285
12836513708
12836522192
12836526586
12836536108
12836544591
12836553564
12836559972
12836568395
12836576757
12836584386
12836590429
12836597204
12836606542
12836615575
12836622167
12836630529
12836639318
12836647008
12836653234
12836660680
12836670385
12836677587
12836687963
12836696202
12836702367
12836709935
12836718785
12836724462
12836733373
12836742772
12836751988
12836757054
12836766087
12836774999
12836781224
12836787633
12836796361
12836807103
12836813756
12836822606
12836828587
12836837254
12836843663
12836851170
12836860020
12836868016
12836874608
12836882664
12836891392
12836899449
12836905614
12836913548
12836922398
12836928135
12836937230
12836947667
12836954503
12836964512
12836974583
12836983067
12836992955
12837001072
12837007420
12837018040
12837024571
12837032627
12837039952
12837050205
12837056858
12837067356
12837074253
12837081883
12837088535
12837096043
12837105381
12837112949
12837121311
12837130589
12837138950
12837146641
12837155491
12837163731
12837170811
12837178867
12837185520
12837196873
12837204136
12837211765
12837219333
12837227268
12837234775
12837242283
12837251743
12837259800
12837267368
12837276401
12837288120
12837296665
12837302768
12837313144
12837320896
12837329135
12837336948
12837345432
12837351962
12837362583
12837369418
12837377780
12837386142
12837394504
12837402194
12837410556
12837418246
12837426242
12837434116
12837442599
12837447482
12837461948
12837470004
12837478671
12837486117
12837494662
12837501986
12837510104
12837519687
12837527804
12837535312
12837543490
12837551181
12837559665
12837564608
12837576937
12837581637
12837593112
12837602755
12837610873
12837617892
12837626193
12837633212
12837641635
12837650424
12837660067
12837667269
12837674471
12837684481
12837692172
12837701754
12837707858
12837717196
12837725253
12837732821
12837740633
12837750338
12837758456
12837766268
12837775301
12837782809
12837788607
12837798983
12837806490
12837815401
12837820833
12837825777
12837830660
12837836580
12837843294
12837848177
12837854708
12837860201
12837865389
12837871309
12837876558
12837882723
12837887728
12837892610
12837899691
12837903597
12837909517
12837916414
12837920626
12837926607
12837935030
12837942415
12837947237
12837955293
12837960665
12837966890
12837972688
12837979768
12837986238
12837991426
12837995577
12838002535
12838007173
12838013399
12838017976
12838026765
12838032014
12838037874
12838042329
12838048799
12838053377
12838060579
12838065034
12838073823
12838078645
12838085054
12838094758
12838100313
12838105440
12838111299
12838117158
12838125642
12838131563
12838136750
12838142183
12838147798
12838150789
12838160188
12838165071
12838174043
12838179841
12838185273
12838190095
12838196687
12838200349
12838207124
12838213960
12838218904
12838224641
12838231233
12838236177
12838241364
12838247468
12838254182
12838259492
12838266511
12838283234
12838289460
12838296479
12838303132
12838306062
12838314118
12838318452
12838323640
12838329255
12838334443
12838339020
12838345490
12838350983
12838356660
12838359528
12838368561
12838371491
12838378327
12838384125
12838389680
12838395539
12838402131
12838407441
12838413666
12838420014
12838424225
12838430207
12838436188
12838440583
12838447358
12838453217
12838458832
12838463105
12838468415
12838474945
12838481415
12838485810
12838493378
12838497467
12838503998
12838510956
12838515717
12838523895
12838528351
12838534699
12838546051
12838550080
12838557648
12838562103
12838568939
12838573883
12838580292
12838584686
12838592194
12838596771
12838603546
12838608002
12838613251
12838619659
12838625702
12838630096
12838636444
12838642914
12838647430
12838654144
12838658783
12838665069
12838671478
12838678375
12838686981
12838694000
12838702301
12838709198
12838717560
12838724334
12838731903
12838738861
12838747284
12838756500
12838764312
12838771576
12838778350
12838788177
12838795379
12838802215
12838811492
12838818817
12838824676
12838833892
12838840362
12838848113
12838855804
12838863494
12838870574
12838881500
12838887176
12838896819
12838902312
12838911895
12838918975
12838926543
12838933135
12838945281
12838951263
12838960784
12838966765
12838976348
12838982268
12838989776
12838997161
12839006194
12839014983
12839022551
12839029815
12839037383
12839044402
12839052153
12839058440
12839071563
12839079009
12839086333
12839094084
12839102568
12839106963
12839117644
12839124175
12839135161
12839142302
12839151885
12839158598
12839169158
12839175322
12839181365
12839190031
12839198637
12839206877
12839214812
12839220915
12839230131
12839236845
12839245024
12839252714
12839260893
12839270415
12839278471
12839287810
12839295012
12839304472
12839310759
12839319853
12839329802
12839336149
12839343718
12839352629
12839360991
12839366911
12839374113
12839383024
12839389616
12839398893
12839404936
12839413847
12839420011
12839428984
12839436552
12839443510
12839452116
12839461515
12839470243
12839476408
12839483549
12839492582
12839498319
12839507230
12839515287
12839524503
12839530180
12839538969
12839546415
12839553190
12839559232
12839569120
12839576749
12839587125
12839595182
12839603971
12839609952
12839618924
12839624906
12839633573
12839640470
12839649808
12839658536
12839664579
12839672025
12839678922
12839686551
12839695645
12839703153
12839712491
12839718045
12839726895
12839734159
12839743131
12839750455
12839757352
12839765347
12839775296
12839782071
12839789090
12839796719
12839805753
12839812772
12839819730
12839827664
12839836575
12839844205
12839853360
12839859402
12839868313
12839875943
12839882718
12839890408
12839899869
12839905667
12839914761
12839921902
12839929226
12839938199
12839945095
12839952847
12839960110
12839968899
12839975735
12839984402
12839991360
12839998196
12840007229
12840015469
12840025723
12840032253
12840041348
12840049343
12840056484
12840064358
12840071621
12840079983
12840087917
12840092861
12840099209
12840105129
12840109524
12840115566
12840122280
12840128689
12840133938
12840140713
12840146450
12840151821
12840158596
12840163906
12840171902
12840179104
12840185024
12840191189
12840196987
12840201870
12840208767
12840213466
12840222072
12840227260
12840233181
12840239711
12840245510
12840249660
12840256923
12840261013
12840270290
12840275844
12840281948
12840288173
12840296901
12840301357
12840306789
12840312038
12840319423
12840325160
12840330226
12840335536
12840341335
12840346889
12840352565
12840358608
12840366725
12840372035
12840377040
12840383632
12840388820
12840395107
12840400294
12840405910
12840412013
12840415248
12840424098
12840428187
12840435329
12840441371
12840447536
12840454494
12840462672
12840469752
12840475978
12840480983
12840487208
12840492335
12840499721
12840504298
12840513453
12840519740
12840526027
12840531093
12840536769
12840542811
12840549586
12840555873
12840562159
12840568202
12840574061
12840579066
12840585047
12840592372
12840597621
12840602503
12840610987
12840618006
12840623683
12840628749
12840634181
12840638697
12840644740
12840651698
12840659937
12840665614
12840671595
12840678126
12840684412
12840689356
12840695216
12840700831
12840707606
12840712977
12840717921
12840724085
12840731226
12840737879
12840746363
12840756068
12840762232
12840770289
12840777247
12840782679
12840788538
12840793787
12840798975
12840805872
12840810267
12840816614
12840821619
12840826746
12840831507
12840837976
12840842554
12840849878
12840854639
12840860559
12840865015
12840869593
12840874964
12840879969
12840886194
12840893213
12840898462
12840902674
12840908167
12840913843
12840919336
12840923792
12840930872
12840937097
12840944605
12840953027
12840960901
12840968530
12840975732
12840984094
12840991113
12840997095
12841006067
12841011499
12841020776
12841026636
12841036706
12841045068
12841051721
12841058740
12841065454
12841071252
12841079187
12841085290
12841093347
12841101159
12841110620
12841117578
12841125512
12841134057
12841140344
12841151147
12841157861
12841164086
12841172570
12841178674
12841188623
12841193200
12841202661
12841209863
12841218530
12841227746
12841235375
12841241235
12841250512
12841257409
12841266625
12841274804
12841283898
12841291955
12841299340
12841308251
12841315026
12841325341
12841335961
12841343590
12841351952
12841358544
12841365929
