12523904218
12523910260
12523916791
12523921979
12523927777
12523933514
12523939252
12523942914
12523950299
12523956280
12523962567
12523969525
12523976788
12523983502
12523988751
12523996197
12524003277
12524009564
12524015790
12524021588
12524025799
12524033429
12524041363
12524044964
12524052472
12524060711
12524066754
12524072247
12524079266
12524084271
12524093548
12524100750
12524109173
12524115948
12524123455
12524131512
12524138287
12524146404
12524155254
12524162396
12524169476
12524178204
12524187420
12524197796
12524203045
12524209881
12524215435
12524220623
12524228191
12524231853
12524240154
12524245220
12524251324
12524258404
12524262859
12524270305
12524274761
12524281536
12524286297
12524294109
12524300335
12524306377
12524313274
12524317852
12524324321
12524330852
12524337383
12524343853
12524349651
12524355877
12524361797
12524368206
12524373271
12524379619
12524383953
12524392681
12524398662
12524404949
12524411601
12524418132
12524424907
12524431011
12524437053
12524443157
12524449260
12524455608
12524461650
12524468120
12524473491
12524480815
12524488322
12524493388
12524501018
12524507793
12524514568
12524524272
12524530742
12524538615
12524543986
12524552348
12524557536
12524565593
12524574077
12524581096
12524589274
12524596538
12524602092
12524610637
12524617473
12524624492
12524631022
12524637492
12524643473
12524650248
12524656718
12524663493
12524670329
12524677104
12524684367
12524690348
12524696818
12524702128
12524709635
12524715983
12524721964
12524729228
12524737406
12524743754
12524752177
12524757609
12524766337
12524771830
12524779765
12524786539
12524792948
12524796610
12524804911
12524811381
12524817667
12524824503
12524830790
12524837199
12524843790
12524851359
12524858073
12524863688
12524870280
12524877665
12524882792
12524890665
12524897257
12524904642
12524909769
12524916727
12524923441
12524929361
12524936197
12524942545
12524947367
12524954203
12524960978
12524967936
12524973185
12524980326
12524987833
12524994181
12524999918
12525007120
12525013040
12525021219
12525027384
12525033731
12525041910
12525049417
12525055643
12525063516
12525069254
12525076273
12525084085
12525089273
12525097452
12525104532
12525111307
12525117837
12525123453
12525130472
12525137247
12525145853
12525152078
12525158426
12525172525
12525183816
12525192239
12525204629
12525211343
12525223001
12525229287
12525236856
12525240945
12525250405
12525255166
12525264871
12525271890
12525278543
12525284646
12525291604
12525295754
12525304605
12525312112
12525318948
12525324685
12525331765
12525336038
12525346291
12525350503
12525358926
12525366006
12525372781
12525377236
12525387490
12525390908
12525397195
12525401650
12525407143
12525411843
12525417824
12525422707
12525428994
12525433205
12525439980
12525444802
12525450600
12525455056
12525460915
12525466836
12525472268
12525477822
12525481911
12525487771
12525492531
12525499062
12525504921
12525510476
12525515664
12525521035
12525525490
12525530556
12525534584
12525540261
12525547524
12525552895
12525557473
12525562966
12525567482
12525573830
12525578163
12525582741
12525588967
12525594460
12525598732
12525604164
12525608620
12525613503
12525619423
12525624184
12525630226
12525635536
12525640114
12525646034
12525650856
12525656715
12525661720
12525668068
12525674110
12525679787
12525684242
12525690834
12525695595
12525701454
12525706337
12525711708
12525718300
12525724281
12525730995
12525736671
12525741310
12525746742
12525751198
12525757973
12525765846
12525772255
12525779518
12525785011
12525791908
12525797645
12525805153
12525811134
12525816505
12525823341
12525828224
12525834022
12525840004
12525843910
12525849525
12525854225
12525859047
12525863807
12525869728
12525874366
12525879615
12525885414
12525890907
12525895545
12525900978
12525906104
12525910377
12525913795
12525921180
12525926002
12525931922
12525937171
12525943153
12525948707
12525955909
12525960487
12525966651
12525971351
12525976539
12525981849
12525988502
12525992957
12525998939
12526003150
12526009986
12526014747
12526018165
12526025367
12526031104
12526035804
12526042152
12526048865
12526053626
12526059485
12526064124
12526069495
12526074439
12526080176
12526087012
12526093055
12526098365
12526104041
12526109046
12526114539
12526120154
12526123389
12526131202
12526134925
12526140845
12526145667
12526152198
12526157386
12526162207
12526168860
12526173316
12526181311
12526186621
12526191138
12526198279
12526202551
12526208167
12526212500
12526218848
12526228674
12526233679
12526243506
12526250830
12526257544
12526266455
12526272742
12526279211
12526289587
12526297278
12526307227
12526315100
12526324744
12526331457
12526341406
12526348120
12526355749
12526364355
12526374121
12526383276
12526391089
12526398413
12526406408
12526415686
12526424231
12526431372
12526439856
12526445166
12526457739
12526464453
12526474279
12526480017
12526491735
12526499548
12526509130
12526522009
12526527685
12526532018
12526542639
12526550939
12526556921
12526564916
12526571630
12526579321
12526587011
12526591528
12526603002
12526607580
12526617345
12526625280
12526631566
12526639623
12526648534
12526655248
12526664525
12526671300
12526679113
12526685338
12526694127
12526702489
12526710485
12526718847
12526727086
12526733556
12526742406
12526748571
12526753392
12526764135
12526772313
12526780187
12526787145
12526796666
12526803868
12526812657
12526818761
12526825780
12526834264
12526843602
12526850377
12526859532
12526865636
12526874059
12526882787
12526887913
12526897618
12526906529
12526912816
12526919835
12526928013
12526934666
12526944249
12526950535
12526959202
12526966405
12526974644
12526982762
12526990635
12526998997
12527005955
12527014134
12527019566
12527030003
12527038975
12527047825
12527052647
12527061192
12527068150
12527078526
12527085545
12527092381
12527101231
12527109165
12527115757
12527124241
12527130406
12527135166
12527146946
12527155308
12527162388
12527175083
12527181858
12527189854
12527198032
12527205051
12527213840
12527222263
12527231724
12527240635
12527247349
12527257114
12527264072
12527272678
12527279209
12527287449
12527298069
12527305759
12527315769
12527323093
12527329746
12527338596
12527346530
12527353000
12527361240
12527370151
12527379062
12527385166
12527392795
12527401828
12527408481
12527416843
12527421604
12527433017
12527438144
12527448764
12527456088
12527464267
12527471164
12527479160
12527485934
12527495151
12527502475
12527511752
12527520541
12527527316
12527535617
12527543674
12527550143
12527554904
12527567172
12527576144
12527584079
12527588351
12527596774
12527604159
12527612460
12527619418
12527628207
12527634860
12527644076
12527650302
12527658969
12527667758
12527675631
12527681368
12527687045
12527692111
12527698275
12527703097
12527708163
12527715975
12527719576
12527726901
12527731661
12527738314
12527743502
12527749606
12527753451
12527759615
12527764498
12527770785
12527774325
12527782259
12527789950
12527795077
12527802035
12527806917
12527810396
12527818270
12527822603
12527830111
12527834261
12527840853
12527846651
12527852633
12527858187
12527866244
12527870211
12527877108
12527883577
12527890596
12527895479
12527901705
12527907076
12527913790
12527919710
12527924959
12527931063
12527938326
12527943453
12527950350
12527956392
12527962984
12527968660
12527975496
12527983736
12527989412
12527996431
12528003389
12528008394
12528015474
12528022493
12528026338
12528033968
12528038423
12528044954
12528049654
12528056612
12528061311
12528066560
12528073213
12528078462
12528083406
12528089815
12528094209
12528100252
12528105012
12528111482
12528115816
12528122041
12528127595
12528131807
12528138032
12528142366
12528147676
12528150972
12528158174
12528163911
12528168794
12528172822
12528178987
12528184968
12528192170
12528197480
12528202791
12528208284
12528213227
12528219941
12528225557
12528230683
12528236177
12528242463
12528247590
12528253327
12528259187
12528263826
12528268952
12528274934
12528280793
12528286225
12528290620
12528297944
12528303315
12528308381
12528315034
12528321076
12528325837
12528332490
12528337190
12528344514
12528349519
12528355134
12528359834
12528366425
12528373627
12528378815
12528383332
12528388276
12528395966
12528400605
12528405854
12528413727
12528420014
12528425202
12528431245
12528435639
12528439118
12528447480
12528451874
12528460297
12528465729
12528471589
12528478119
12528482758
12528488251
12528494538
12528498993
12528505524
12528511994
12528519318
12528525544
12528527619
12528536835
12528541413
12528548432
12528555085
12528561188
12528569001
12528581146
12528594940
12528604950
12528618744
12528628327
12528634735
12528647614
12528655426
12528662201
12528671478
12528677704
12528687286
12528692902
12528700653
12528707428
12528712128
12528723785
12528727264
12528737396
12528745697
12528752289
12528760040
12528766571
12528771515
12528782623
12528787506
12528797516
12528802520
12528812042
12528820953
12528827484
12528837188
12528843902
12528849945
12528859100
12528866485
12528873199
12528882110
12528889617
12528897064
12528902007
12528910064
12528917754
12528926910
12528933746
12528941375
12528950225
12528957916
12528964080
12528971099
12528977325
12528982635
12528993804
12528998809
12529006682
12529015960
12529024261
12529031585
12529038421
12529044280
12529051360
12529059844
12529066802
12529075347
12529083648
12529092803
12529101348
12529109526
12529118377
12529124968
12529135283
12529141082
12529151519
12529159087
12529167021
12529176421
12529185393
12529190764
12529199675
12529207060
12529215849
12529223174
12529232268
12529239104
12529246245
12529252348
12529260954
12529269682
12529278349
12529285979
12529293791
12529299834
12529304838
12529316252
12529321379
12529329008
12529336455
12529345427
12529353178
12529360136
12529366606
12529375517
12529384550
12529392668
12529400785
12529411650
12529418913
12529429655
12529434965
12529444548
12529449736
12529458769
12529467069
12529474821
12529481840
12529489286
12529496305
12529503568
12529512052
12529519071
12529526151
12529531400
12529542326
12529547575
12529557157
12529561735
12529570768
12529576200
12529584745
12529593290
12529601713
12529607999
12529614774
12529621244
12529629545
12529636625
12529643888
12529652006
12529659391
12529665372
12529674466
12529681485
12529686368
12529696012
12529704129
12529711332
12529721341
12529727567
12529734342
12529743009
12529750760
12529756986
12529764920
12529772672
12529779325
12529787381
12529793485
12529802518
12529808560
12529813992
12529826444
12529839627
12529851224
12529858182
12529872830
12529884427
12529895596
12529906583
12529916287
12529931363
12529941189
12529952359
12529962552
12529971646
12529981106
12529990994
12530001126
12530012356
12530021634
12530027371
12530035672
12530044339
12530052273
12530060330
12530068386
12530076016
12530083950
12530091763
12530098416
12530109219
12530116543
12530124966
12530129360
12530140713
12530149075
12530157681
12530165554
12530174221
12530182339
12530189236
12530198025
12530204189
12530213222
12530219265
12530228786
12530235134
12530245876
12530255398
12530263454
12530271450
12530281093
12530285671
12530295864
12530305263
12530314540
12530321437
12530329921
12530336452
12530345058
12530353603
12530360317
12530369228
12530373866
12530383266
12530391994
12530399440
12530407253
12530415920
12530422817
12530431972
12530440395
12530447170
12530457790
12530463771
12530472743
12530479762
12530489162
12530495936
12530503688
12530510402
12530519069
12530525355
12530535792
12530540370
12530550868
12530559108
12530565089
12530572719
12530580653
12530589015
12530594630
12530603785
12530612635
12530619044
12530626490
12530633692
12530639430
12530647853
12530653712
12530662989
12530668299
12530683436
12530690943
12530698206
12530705409
12530713160
12530720667
12530727992
12530737879
12530745997
12530753504
12530761744
12530769068
12530776087
12530783778
12530792750
12530801234
12530810755
12530816004
12530826502
12530831202
12530842005
12530851160
12530857264
12530861658
12530873255
12530880579
12530888147
12530896631
12530905237
12530912989
12530922144
12530929773
12530938990
12530947657
12530954920
12530964380
12530969568
12530980066
12530986841
12530998438
12531006799
12531016748
12531025659
12531035242
12531042566
12531051355
12531059106
12531065820
12531075525
12531082117
12531090417
12531096826
12531106164
12531113611
12531121545
12531131250
12531140527
12531145715
12531161828
12531171167
12531179345
12531186731
12531192102
12531199426
12531203027
12531210534
12531214563
12531223474
12531230432
12531236901
12531240441
12531249841
12531256372
12531263818
12531270959
12531275903
12531282861
12531289086
12531295434
12531301721
12531308190
12531317773
12531324365
12531328332
12531337243
12531341149
12531349755
12531356835
12531363915
12531370629
12531377770
12531386864
12531395714
12531403466
12531409691
12531417870
12531426293
12531430260
12531439965
12531447777
12531454674
12531461876
12531468651
12531476281
12531483483
12531490197
12531497765
12531503380
12531511071
12531517845
12531527001
12531533776
12531540245
12531546532
12531553124
12531560021
12531567040
12531572655
12531580528
12531588158
12531594872
12531601891
12531609520
12531616539
12531623436
12531629784
12531638573
12531647179
12531656273
12531662254
12531670006
12531676414
12531685875
12531694237
12531706322
12531715904
12531721763
12531730125
12531738426
12531745018
12531751793
12531759422
12531763145
12531770897
12531777549
12531782615
12531786705
12531797752
12531803550
12531810264
12531815452
12531822288
12531828697
12531836936
12531843711
12531851585
12531857688
12531867027
12531874900
12531882896
12531887473
12531896751
12531905967
12531912864
12531922080
12531928245
12531932761
12531943992
12531948569
12531958457
12531963462
12531974082
12531982932
12531988608
12531995078
12532004539
12532011619
12532018760
12532026877
12532033957
12532040610
12532052573
12532059165
12532067649
12532075217
12532085349
12532089866
12532100486
12532104941
12532115805
12532120322
12532131125
12532135825
12532146262
12532150901
12532161826
12532169089
12532176840
12532183798
12532191489
12532199790
12532208273
12532214316
12532222861
12532231955
12532238486
12532247702
12532256308
12532261435
12532270834
12532277975
12532286276
12532292990
12532301596
12532308127
12532318564
12532323691
12532333029
12532337790
12532348227
12532355307
12532364767
12532372397
12532379965
12532387350
12532398397
12532407309
12532414206
12532421774
12532432821
12532441854
12532449484
12532455099
12532460165
12532466207
12532470724
12532478231
12532482443
12532487509
12532497579
12532502645
12532506735
12532512228
12532516439
12532522787
12532525900
12532532613
12532535482
12532541402
12532544271
12532551534
12532555807
12532562398
12532567220
12532572225
12532576986
12532581197
12532584310
12532592367
12532598470
12532603231
12532608053
12532612996
12532616964
12532622762
12532628805
12532633748
12532641256
12532647237
12532652608
12532656942
12532662557
12532667379
12532671529
12532675863
12532682271
12532686544
12532691426
12532697164
12532702901
12532708882
12532713399
12532719258
12532725240
12532730489
12532736104
12532741536
12532746907
12532751241
12532757344
12532762105
12532768941
12532772908
12532779439
12532783711
12532789449
12532794331
12532799703
12532807271
12532812581
12532817891
12532823933
12532835774
12532841389
12532847310
12532855122
12532861226
12532867879
12532876485
12532882832
12532889851
12532897725
12532903950
12532911763
12532919270
12532926228
12532932393
12532942524
12532947773
12532956929
12532964131
12532969624
12532979023
12532985432
12532999836
12533008137
12533017842
12533025593
12533033833
12533042012
12533048054
12533058125
12533067524
12533078449
12533086506
12533095356
12533103474
12533106770
12533116413
12533123859
12533130634
12533137348
12533146198
12533152302
12533157124
12533166462
12533174152
12533180256
12533187397
12533192890
12533202961
12533208942
12533216755
12533223163
12533227924
12533238849
12533243610
12533251728
12533258075
12533266681
12533274372
12533279743
12533289325
12533293903
12533301471
12533309528
12533312213
12533320880
12533327960
12533335468
12533342670
12533349811
12533355731
12533360980
12533368854
12533376117
12533382343
12533388812
12533393390
12533401630
12533410053
12533416034
12533421954
12533428668
12533434100
12533441302
12533447162
12533456866
12533464984
12533479632
12533486529
12533498309
12533502154
12533516376
12533526568
12533534869
12533543597
12533555194
12533563922
12533567645
12533581622
12533590899
12533599566
12533607684
12533616473
12533627215
12533630755
12533645892
12533654803
12533665667
12533675189
12533687701
12533696673
12533704058
12533718401
12533728655
12533739336
12533749102
12533758562
12533768572
12533775591
12533787737
12533796892
12533808916
12533818682
12533830645
12533840105
12533848650
12533862627
12533868547
12533878862
12533888018
12533900835
12533910417
12533917498
12533929338
12533942339
12533951860
12533960832
12533971514
12533980364
12533990495
12534002886
12534015276
12534025652
12534036272
12534047929
12534057634
12534066118
12534086503
12534096574
12534106218
12534117509
12534130754
12534134782
12534149431
12534156633
12534172014
12534179826
12534190324
12534199906
12534211259
12534221086
12534228715
12534243241
12534250810
12534262650
12534272538
12534283891
12534292802
12534296769
12534315080
12534324113
12534335160
12534345719
12534355180
12534363969
12534375626
12534383439
12534393265
12534403397
12534410660
12534423661
12534435074
12534443680
12534456131
12534460282
12534475785
12534483658
12534493607
12534503495
12534516800
12534525284
12534537308
12534546036
12534556046
12534564896
12534573502
12534584000
12534592911
12534601700
12534614334
12534623123
12534634476
12534643204
12534649857
12534662796
12534672378
12534682144
12534691971
12534705520
12534714676
12534721634
12534731827
12534740677
12534751114
12534759842
12534770095
12534782791
12534791153
12534804763
12534811477
12534823867
12534832656
12534836502
12534853408
12534860183
12534870376
12534879653
12534891372
12534900222
12534910110
12534922561
12534932876
12534942641
12534954482
12534963149
12534975539
12534983657
12534995925
12535000014
12535013137
12535022963
12535032607
12535041701
12535051223
12535061171
12535068435
12535083510
12535089186
12535102065
12535110610
12535120375
12535129286
12535139113
12535149672
12535159133
12535169447
12535182448
12535187453
12535204787
12535217787
12535228651
12535235793
12535251601
12535260817
12535277113
12535283400
12535291823
12535298475
12535304396
12535311171
12535314406
12535327650
12535331007
12535341444
12535346876
12535356154
12535362074
12535370741
12535375929
12535384901
12535393385
12535396803
12535407972
12535413343
12535421095
12535428297
12535435072
12535443983
12535453443
12535460951
12535468336
12535475599
12535480543
12535491407
12535497205
12535506178
12535510572
12535517469
12535524854
12535532911
12535538770
12535543104
12535552808
12535557386
12535566053
12535573133
12535578382
12535585462
12535592176
12535598951
12535604017
12535613111
12535619581
12535627027
12535633924
12535639112
12535648145
12535660108
12535667859
12535675183
12535680616
12535690381
12535698621
12535704358
12535709119
12535718640
12535727918
12535735242
12535741712
12535748975
12535756421
12535761548
12535770703
12535778638
12535786145
12535794751
12535804273
12535811536
12535816480
12535824902
12535831189
12535839856
12535846387
12535851086
12535860364
12535868420
12535879162
12535886670
12535891675
12535900891
12535907300
12535913647
12535921643
12535928784
12535936352
12535943371
12535950757
12535960278
12535967358
12535971875
12535982006
12535988842
12535995861
12536002758
12536012768
12536022351
12536027600
12536038159
12536045483
12536050976
12536062390
12536071545
12536079113
12536086926
12536097485
12536105419
12536114086
12536123486
12536130444
12536136608
12536140881
12536152599
12536159557
12536164318
12536168224
12536175487
12536180431
12536186596
12536192577
12536198742
12536203136
12536212291
12536216259
12536224376
12536229320
12536235790
12536240062
12536247875
12536254772
12536260143
12536264049
12536272472
12536277416
12536283275
12536288280
12536294323
12536299999
12536306102
12536311901
12536316600
12536319713
12536327159
12536334117
12536338695
12536344982
12536349925
12536355419
12536361278
12536365917
12536371471
12536377696
12536384166
12536389964
12536395335
12536399974
12536406017
12536414806
12536421458
12536429576
12536437083
12536445811
12536452586
12536460704
12536469249
12536474681
12536484569
12536493480
12536499522
12536509227
12536514049
12536524302
12536528819
12536538707
12536545787
12536554515
12536559825
12536571421
12536576548
12536585887
12536594554
12536601207
12536608897
12536615977
12536624156
12536633250
12536639903
12536647959
12536655039
12536662364
12536668284
12536677256
12536684153
12536691966
12536700205
12536707652
12536714243
12536722361
12536728281
12536737070
12536743662
12536754099
12536762705
12536768503
12536780100
12536789255
12536798533
12536809275
12536818979
12536827768
12536834910
12536844370
12536850840
12536859018
12536865732
12536873789
12536881723
12536891062
12536898142
12536905222
12536913645
12536919016
12536927439
12536934580
12536942758
12536949777
12536957590
12536965341
12536973215
12536980051
12536985483
12536992746
12537000253
12537008005
12537015451
12537021555
12537028757
12537035471
12537043771
12537048349
12537058969
12537064462
12537075082
12537079721
12537088998
12537096261
12537103830
12537110666
12537117868
12537126840
12537133920
12537140512
12537148996
12537154916
12537162484
12537171212
12537173776
12537186288
12537195504
12537201791
12537210214
12537216378
12537224923
12537230966
12537238046
12537246713
12537254647
12537261849
12537270211
12537277779
12537284860
12537291085
12537298776
12537305550
12537314828
12537324227
12537330880
12537337350
12537345223
12537352975
12537359444
12537366585
12537373971
12537383248
12537393258
12537397957
12537408272
12537414742
12537421883
12537428231
12537437447
12537445931
12537452950
12537461312
12537468148
12537474923
12537484383
12537491951
12537499337
12537506111
12537514778
12537522896
12537531136
12537537178
12537545723
12537553597
12537561226
12537570320
12537579842
12537590157
12537600960
12537610909
12537619392
12537622810
12537638069
12537646370
12537654854
12537657783
12537669075
12537676704
12537684822
12537688057
12537700630
12537708137
12537714241
12537722542
12537731025
12537737922
12537746223
12537752510
12537760688
12537770210
12537777046
12537783027
12537789924
12537794746
12537800666
12537804023
12537809700
12537814582
12537822212
12537825752
12537832282
12537837043
12537842353
12537846809
12537853645
12537860053
12537865791
12537870612
12537877448
12537881843
12537886970
12537891303
12537897163
12537902839
12537909431
12537914252
12537920173
12537924567
12537927924
12537934760
12537938300
12537945075
12537950751
12537958137
12537961433
12537968574
12537972358
12537978583
12537983466
12537991706
12537998725
12538004035
12538010566
12538015326
12538019477
12538024482
12538030402
12538035773
12538041694
12538047919
12538052741
12538058295
12538064643
12538069953
12538074408
12538077826
12538085211
12538093268
12538098517
12538102301
12538109381
12538114691
12538120001
12538124396
12538130927
12538136237
12538143317
12538148871
12538150641
12538159613
12538165717
12538170660
12538174445
12538182379
12538189581
12538198370
12538202582
12538211432
12538216498
12538225104
12538231879
12538239386
12538248602
12538255438
12538260992
12538267462
12538272223
12538277228
12538282416
12538287665
12538292303
12538298529
12538303534
12538309576
12538314825
12538320685
12538326727
12538332159
12538336676
12538341803
12538346869
12538352667
12538357244
12538364264
12538368902
12538375372
12538380682
12538385992
12538391668
12538397406
12538401617
12538405462
12538413214
12538417486
12538425054
12538428778
12538435858
12538441717
12538446661
12538451116
12538457830
12538463567
12538470159
12538474920
12538480962
12538485174
12538490301
12538494756
12538500799
12538505682
12538509405
12538517644
12538521307
12538528753
12538533636
12538538518
12538544683
12538548528
12538554876
12538559942
12538564641
12538570196
12538575811
12538580327
12538584844
12538587896
12538596929
12538601690
12538607793
12538613591
12538617864
12538622747
12538628972
12538636419
12538643438
12538651311
12538658818
12538668401
12538677495
12538684453
12538694158
12538701848
12538705205
12538720952
12538727239
12538737493
12538745976
12538756963
12538766606
12538773869
12538788823
12538796696
12538809087
12538819890
12538824956
12538841069
12538852482
12538862736
12538873601
12538877995
12538894108
12538906193
12538919987
12538931096
12538935978
12538952336
12538964848
12538976384
12538987675
12539000736
12539011235
12539019230
12539034550
12539046452
12539055180
12539065250
12539076115
12539086918
12539097843
12539107120
12539117496
12539128483
12539139103
12539150883
12539161808
12539172367
12539184330
12539194950
12539202701
12539217045
12539227787
12539236881
12539246036
12539257511
12539266849
12539273929
12539286747
12539293094
12539302860
12539311161
12539320438
12539331607
12539340640
12539349368
12539358463
12539367069
12539375552
12539387027
12539395755
12539406131
12539416324
12539424380
12539437991
12539447391
12539457583
12539466189
12539476687
12539485660
12539496280
12539505679
12539516543
12539527224
12539537051
12539543643
12539558230
12539564883
12539576052
12539584964
12539596377
12539609133
12539618777
12539627688
12539638125
12539647341
12539656863
12539660586
12539677371
12539684390
12539694277
12539706301
12539718264
12539727053
12539738344
12539747195
12539754030
12539766726
12539775576
12539789492
12539800051
12539809633
12539820070
12539828371
12539840883
12539851259
12539862673
12539871828
12539875917
12539891725
12539900148
12539915834
12539924135
12539937685
12539947878
12539952394
12539968141
12539975954
12539990602
12539997438
12540010927
12540020875
12540032777
12540042787
12540051088
12540065858
12540072633
12540086793
12540097291
12540108217
12540118409
12540126527
12540140626
12540148439
12540163026
12540173646
12540186402
12540196961
12540205018
12540221009
12540233338
12540249879
12540256959
12540272035
12540279298
12540290650
12540299805
12540311524
12540320374
12540327637
12540340699
12540351258
12540362122
12540368287
12540379761
12540390626
12540400330
12540416932
12540424134
12540434266
12540447876
12540458557
12540468506
12540477967
12540485840
12540496704
12540507263
12540513245
12540520508
12540525879
12540533142
12540538452
12540542908
12540550720
12540560547
12540567261
12540572510
12540579346
12540587463
12540592102
12540600464
12540607239
12540612976
12540619629
12540626282
12540634460
12540639709
12540653625
12540656433
12540669189
12540679077
12540685974
12540691955
12540700866
12540706421
12540718322
12540724060
12540733276
12540738403
12540748474
12540756836
12540764343
12540770996
12540774047
12540787048
12540790405
12540800903
12540808959
12540816955
12540824340
12540827331
12540841003
12540848815
12540855590
12540864074
12540870910
12540878600
12540885680
12540892455
12540898681
12540907775
12540915710
12540922240
12540929381
12540937499
12540944701
12540950377
12540960082
12540970946
12540983397
12540991088
12541002013
12541007018
12541016051
12541023497
12541028869
12541039183
12541048217
12541057067
12541065245
12541070128
12541080504
12541086425
12541096617
12541105528
12541116881
12541125853
12541129820
12541143309
12541153441
12541160521
12541168395
12541177916
12541188963
12541192809
12541205809
12541212157
12541221068
12541227354
12541235716
12541242186
12541247496
12541256224
12541262999
12541273253
12541282042
12541284666
12541294676
12541302916
12541309691
12541316649
12541322447
12541329344
12541334837
12541339903
12541346189
12541352232
12541355833
12541363707
12541368956
12541373106
12541377684
12541383726
12541389707
12541395994
12541399900
12541407896
12541411741
12541418516
12541422544
12541431455
12541433531
12541443113
12541447569
12541454343
12541458128
12541467100
12541471494
12541478086
12541482664
12541489500
12541494077
12541501524
12541506101
12541512693
12541516904
12541523801
12541528257
12541535154
12541540769
12541547422
12541551450
12541557371
12541561216
12541569578
12541574888
12541583310
12541587766
12541594785
12541598691
12541606138
12541610227
12541617734
12541623105
12541630429
12541635129
12541642026
12541650327
12541658567
12541665280
12541672910
12541679624
12541689084
12541695249
12541703488
12541711179
12541719663
12541727841
12541733823
12541744687
12541755368
12541761716
12541770383
12541780637
12541790036
12541797910
12541811337
12541818845
12541831601
12541842099
12541850217
12541861203
12541874203
12541885312
12541897274
12541902707
12541920773
12541929257
12541942013
12541954159
12541965390
12541975277
12541986996
12541996151
12542003903
12542016171
12542025997
12542035702
12542044247
12542054623
12542063229
12542069943
12542081417
12542091305
12542098690
12542107418
12542114193
12542127560
12542135067
12542147396
12542153499
12542165890
12542174434
12542182186
12542194637
12542202022
12542211544
12542220699
12542230770
12542239925
12542251033
12542260005
12542269710
12542281063
12542291133
12542295345
12542310420
12542327754
12542338741
12542346126
12542360957
12542370906
12542375423
12542393611
12542402095
12542413814
12542425105
12542438960
12542449214
12542456538
12542467341
12542481318
12542492915
12542504695
12542516780
12542527644
12542539668
12542552302
12542556452
12542571711
12542582392
12542593257
12542603449
12542614741
12542625544
12542633662
12542647883
12542659785
12542670222
12542676630
12542687983
12542700617
12542711420
12542721247
12542729243
12542743281
12542752680
12542763361
12542776056
12542786432
12542796076
12542803217
12542816034
12542828180
12542840082
12542850641
12542858210
12542869623
12542879389
12542888422
12542897211
12542909906
12542919183
12542926386
12542940729
12542947687
12542960870
12542970575
12542977716
12542989862
12542998468
12543007684
12543018793
12543030328
12543040338
12543050470
12543059564
12543070672
12543079889
12543095758
12543108209
12543122430
12543131890
12543147027
12543157525
12543173516
12543185357
12543199273
12543209466
12543220574
12543232537
12543241509
12543254510
12543266106
12543275811
12543283807
12543301079
12543309563
12543325432
12543333184
12543345696
12543357659
12543370171
12543380791
12543394646
12543405449
12543419121
12543428948
12543433098
12543450920
12543459648
12543471794
12543482537
12543490959
12543498955
12543505547
12543516289
12543521416
12543530388
12543537529
12543546806
12543554009
12543557121
12543568230
12543573906
12543583122
12543589714
12543597282
12543602959
12543610039
12543615959
12543620293
12543627312
12543636223
12543643669
12543649833
12543658439
12543663322
12543674858
12543683159
12543691765
12543700004
12543706352
12543715446
12543724845
12543731742
12543739860
12543749504
12543758842
12543762382
12543772392
12543781181
12543790092
12543798576
12543802238
12543815055
12543821220
12543830314
12543839591
12543843192
12543852287
12543862296
12543869682
12543877494
12543886161
12543893790
12543898856
12543909110
12543917289
12543923698
12543932426
12543938895
12543949454
12543957694
12543961051
12543970939
12543980155
12543986747
12543994986
12543998221
12544008658
12544015494
12544027884
12544033072
12544042594
12544050223
12544053580
12544065970
12544070792
12544079947
12544087576
12544090933
12544101065
12544111014
12544117850
12544126822
12544136466
12544144278
12544150382
12544159598
12544170157
12544181754
12544184622
12544196707
12544205618
12544212576
12544219778
12544226980
12544236502
12544244375
12544250174
12544256643
12544263357
12544269949
12544275442
12544280386
12544286856
12544293020
12544299795
12544304983
12544310843
12544317007
12544322866
12544327749
12544331472
12544343008
12544349783
12544355032
12544361318
12544366262
12544371023
12544377249
12544382131
12544388906
12544394460
12544401113
12544406240
12544411855
12544416677
12544423635
12544429739
12544431875
12544441213
12544447805
12544453054
12544459524
12544465871
12544469534
12544476308
12544480032
12544487295
12544493398
12544499929
12544504079
12544511037
12544516775
12544524892
12544528615
12544535512
12544541738
12544548330
12544553213
12544560109
12544565114
12544571462
12544577382
12544582143
12544587453
12544594777
12544599782
12544606801
12544611013
12544617543
12544622304
12544628835
12544633535
12544641835
12544648183
12544656301
12544662160
12544670095
12544678700
12544685964
12544693410
12544702321
12544711049
12544718251
12544726979
12544734242
12544742238
12544748708
12544757497
12544764333
12544769276
12544777943
12544782765
12544795155
12544800038
12544808705
12544816151
12544826954
12544832448
12544841847
12544849171
12544857777
12544865834
12544875050
12544882679
12544891346
12544898304
12544908375
12544914967
12544924061
12544930775
12544939198
12544945607
12544950428
12544960499
12544969410
12544975514
12544982899
12544989857
12544997242
12545006153
12545013661
12545021168
12545028004
12545036427
12545043079
12545051380
12545057423
12545065662
12545072437
12545080799
12545086842
12545092823
12545103077
12545110157
12545118702
12545125477
12545133289
12545140003
12545146290
12545155018
12545161243
12545169239
12545177540
12545184559
12545189563
12545199390
12545204517
12545215442
12545222339
12545231311
12545238575
12545248645
12545253528
12545262683
12545270313
12545278797
12545286670
12545293140
12545301196
12545308521
12545315357
12545324390
12545330737
12545335559
12545346484
12545352100
12545362598
12545367725
12545377246
12545382312
12545392505
12545400195
12545406787
12545414416
12545423450
12545429614
12545436694
12545445910
12545453113
12545461413
12545466479
12545476306
12545483691
12545492724
12545499865
12545507800
12545515307
12545523730
12545530200
12545539721
12545546557
12545555773
12545562792
12545570605
12545579943
12545587695
12545595080
12545602831
12545612475
12545621081
12545628832
12545635851
12545647875
12545655932
12545666552
12545674242
12545681811
12545694445
12545698351
12545711840
12545717638
12545728686
12545733935
12545744616
12545752245
12545760363
12545767565
12545774645
12545783983
12545791796
12545798265
12545806261
12545815233
12545822557
12545831163
12545838121
12545846788
12545851976
12545860582
12545870226
12545877062
12545884203
12545892381
12545900011
12545908006
12545915575
12545923082
12545931505
12545939012
12545948045
12545956895
12545963792
12545969591
12545981065
12545989793
12545998704
12546006273
12546016527
12546024156
12546032640
12546039720
12546048387
12546056627
12546062669
12546070360
12546076768
12546084947
12546092820
12546098985
12546106309
12546111070
12546114305
12546122972
12546126207
12546133775
12546137132
12546144029
12546148973
12546155931
12546159410
12546166734
12546173570
12546180772
12546185533
12546193223
12546199021
12546203477
12546207871
12546214768
12546219041
12546224717
12546229478
12546232896
12546241990
12546246934
12546254075
12546257981
12546264756
12546269822
12546275193
12546280503
12546286240
12546291306
12546297166
12546302170
12546307908
12546312119
12546316758
12546323044
12546326401
12546333115
12546339829
12546345688
12546351243
12546356736
12546361619
12546368149
12546372788
12546377915
12546386704
12546392868
12546399033
12546404892
12546411972
12546417038
12546422165
12546426377
12546433274
12546440415
12546447373
12546450180
12546457993
12546460861
12546468369
12546471909
12546478317
12546485642
12546491928
12546496933
12546501389
12546504562
12546512924
12546516464
12546522263
12546527878
12546533615
12546538742
12546544052
12546548447
12546553574
12546559982
12546564072
12546570785
12546575851
12546580490
12546586288
12546591171
12546597397
12546601486
12546604904
12546611679
12546619125
12546624435
12546627792
12546634506
12546638107
12546645126
12546650436
12546654953
12546660263
12546666366
12546671371
12546677047
12546683456
12546687484
12546691635
12546698227
12546703537
12546708664
12546714950
12546719284
12546725082
12546730575
12546735397
12546741195
12546745834
12546754074
12546758651
12546762374
12546769576
12546772933
12546778549
12546783737
12546790145
12546796859
12546803695
12546809188
12546815841
12546821395
12546828536
12546835128
12546837569
12546847030
12546856124
12546865218
12546870040
12546879378
12546886947
12546892379
12546900680
12546908309
12546913924
12546922713
12546929732
12546940108
12546945540
12546952743
12546960311
12546965560
12546976607
12546982100
12546989180
12546997603
12547006087
12547013594
12547019271
12547034713
12547047225
12547056319
12547066146
12547074263
12547087813
12547101485
12547115035
12547125899
12547135176
12547143965
12547153670
12547165022
12547171187
12547182173
12547192793
12547203535
12547208967
12547219343
12547230330
12547238142
12547246504
12547255598
12547268354
12547278547
12547287275
12547295759
12547302168
12547315901
12547321821
12547331221
12547339582
12547349714
12547358381
12547366682
12547373518
12547383711
12547388227
12547396955
12547403852
12547411665
12547417768
12547427717
12547434248
12547441877
12547449751
12547456159
12547464277
12547471357
12547479536
12547489301
12547495649
12547500349
12547509992
12547514570
12547524885
12547531293
12547539289
12547546552
12547555585
12547561994
12547568219
12547574994
12547585859
12547593183
12547600385
12547610944
12547619184
12547624921
12547632062
12547639752
12547646649
12547654401
12547661176
12547667462
12547678021
12547684613
12547692914
12547699140
12547706220
12547713788
12547720258
12547728803
12547736249
12547743939
12547750531
12547760113
12547766705
12547774274
12547780133
12547788190
12547794537
12547804364
12547810467
12547817914
12547825604
12547832745
12547838604
12547847149
12547855572
12547864544
12547871319
12547879437
12547887921
12547892620
12547901593
12547908367
12547917584
12547926800
12547934613
12547942181
12547950970
12547958355
12547967755
12547975384
12547983196
12547992474
12548001995
12548007061
12548017681
12548022320
12548031475
12548038494
12548045879
12548053936
12548063335
12548069805
12548077373
12548083538
12548093120
12548098858
12548105633
12548113811
12548121563
12548129741
12548137066
12548143169
12548151348
12548157085
12548164898
12548173381
12548182842
12548191143
12548198284
12548206035
12548211589
12548220806
12548225383
12548235698
12548240398
12548251872
12548258892
12548266887
12548272380
12548281535
12548286113
12548296489
12548301433
12548312602
12548319927
12548328655
12548337627
12548345744
12548353740
12548363078
12548373027
12548381145
12548390300
12548400432
12548408549
12548416789
12548428264
12548434062
12548445781
12548451274
12548461528
12548469462
12548478129
12548485209
12548492717
12548498820
12548504740
12548509562
12548518351
12548524272
12548530192
12548535380
12548543070
12548549235
12548556742
12548562174
12548568888
12548574870
12548582987
12548589945
12548595072
12548602946
12548610636
12548617167
12548622416
12548628397
12548635294
12548641459
12548648600
12548655497
12548661723
12548667277
12548673380
12548679667
12548686869
12548694437
12548700846
12548706339
12548715250
12548720194
12548732157
12548738138
12548745890
12548751200
12548756449
12548762735
12548767252
12548772013
12548777445
12548779215
12548787760
12548792582
12548797403
12548803812
12548809610
12548814493
12548821268
12548826517
12548831400
12548837076
12548844766
12548850015
12548857706
12548864908
12548871134
12548877908
12548883463
12548888345
12548893594
12548898233
12548902689
12548907816
12548913431
12548918497
12548923746
12548928384
12548932352
12548936746
12548941995
12548947610
12548952920
12548957498
12548962137
12548966287
12548972208
12548976236
12548982339
12548986429
12548992044
12548999002
12549004190
12549008523
12549015054
12549018655
12549023477
12549029519
12549034952
12549041482
12549046365
12549050576
12549055154
12549059243
12549064615
12549067910
12549074685
12549079263
12549085916
12549088968
12549095742
12549100625
12549105264
12549112161
12549117471
12549123452
12549128823
12549134011
12549137979
12549143411
12549147256
12549152078
12549159524
12549164956
12549169961
12549176187
12549179238
12549186379
12549192361
12549199746
12549206521
12549214150
12549220681
12549225808
12549231423
12549236306
12549242532
12549247597
12549253640
12549258157
12549262856
12549265786
12549272439
12549277688
12549283059
12549289101
12549298501
12549302529
12549311989
12549316018
12549324074
12549331337
12549338234
12549345803
12549353127
12549359230
12549364357
12549372902
12549378151
12549386940
12549394875
12549403603
12549409645
12549417214
12549423134
12549431069
12549436928
12549445046
12549452126
12549460915
12549468544
12549475624
12549482887
12549489967
12549497658
12549505531
12549513954
12549519753
12549528236
12549533730
12549543129
12549551796
12549561073
12549573219
12549581215
12549587135
12549594032
12549601112
12549608009
12549614906
12549622780
12549630836
12549638832
12549645424
12549653846
12549661598
12549667762
12549674904
12549684547
12549692482
12549699623
12549708778
12549713722
12549724708
12549733009
12549741004
12549748146
12549756019
12549764869
12549771156
12549780555
12549787696
12549795997
12549801978
12549812659
12549821143
12549827613
12549834510
12549842750
12549850379
12549858924
12549866675
12549873023
12549884742
12549895240
12549904029
12549913978
12549924476
12549935218
12549944190
12549952369
12549961890
12549970984
12549979712
12549985999
12549993628
12550001380
12550010413
12550018042
12550025061
12550035254
12550044165
12550053687
12550060156
12550069006
12550079505
12550088049
12550096472
12550106482
12550114722
12550121497
12550129492
12550137061
12550144629
12550153357
12550162085
12550170630
12550176794
12550184973
12550193213
12550199988
12550210303
12550219580
12550226538
12550235022
12550243567
12550251196
12550257422
12550266455
12550272375
12550280493
12550289221
12550295080
12550303320
12550310644
12550317541
12550324560
12550331884
12550341772
12550350012
12550357031
12550364904
12550373815
12550380773
12550386999
12550395605
12550401342
12550410009
12550417028
12550424657
12550431921
12550441320
12550449010
12550454931
12550461767
12550470312
12550477331
12550486669
12550491552
12550502111
12550510656
12550518346
12550524755
12550532262
12550540746
12550547338
12550556859
12550564672
12550572484
12550580480
12550589879
12550596044
12550605809
12550609960
12550617467
12550622838
12550630956
12550635411
12550645360
12550651341
12550655797
12550664952
12550671971
12550678075
12550684117
12550690526
12550693456
12550699925
12550705418
12550712132
12550716649
12550721593
12550727574
12550732396
12550738866
12550744176
12550750157
12550755650
12550761754
12550766270
12550772069
12550775487
12550781590
12550786778
12550792332
12550797276
12550802891
12550808140
12550811619
12550817662
12550823887
12550828038
12550832921
12550838231
12550841771
12550850438
12550853795
12550861302
12550864598
12550871067
12550875767
12550881321
12550887486
12550893345
12550899388
12550904393
12550908421
12550914585
12550918980
12550924900
12550930454
12550936375
12550941075
12550946324
12550951328
12550957676
12550961888
12550965122
12550972935
12550976780
12550983128
12550989414
12550994846
12551000340
12551007114
12551013218
12551017612
12551026096
12551038242
12551046177
12551051243
12551059055
12551067295
12551073521
12551081760
12551089573
12551097996
12551103245
12551110386
12551121250
12551126926
12551135166
12551141819
12551149204
12551156772
12551164096
12551170749
12551178867
12551188205
12551193515
12551201328
12551211032
12551215488
12551224826
12551231662
12551236545
12551246372
12551254428
12551263889
12551270969
12551278232
12551283847
12551291843
12551301669
12551308810
12551312412
12551323703
12551332248
12551341220
12551348361
12551358371
12551366122
12551372165
12551379733
12551388644
12551394076
12551400668
12551406039
12551417026
12551422580
12551431430
12551435946
12551444735
12551451449
12551457309
12551466037
12551472567
12551480990
12551487216
12551493319
12551500582
12551505587
12551515292
12551522494
12551528720
12551536532
12551547213
12551553988
12551559481
12551568392
12551572848
12551582674
12551589144
12551594149
12551602633
12551611239
12551617648
12551624606
12551632174
12551638399
12551644015
12551650484
12551657381
12551665438
12551673006
12551682528
12551691195
12551704744
12551714327
12551723116
12551726961
12551740938
12551752108
12551761690
12551773165
12551782320
12551792757
12551800875
12551817964
12551825960
12551838045
12551847505
12551851656
12551868135
12551879549
12551889742
12551900301
12551913362
12551923982
12551932100
12551946565
12551956880
12551961458
12551977388
12551984834
12551997407
12552008577
12552016450
12552028962
12552033296
12552047212
12552058809
12552069184
12552079499
12552090608
12552099824
12552106660
12552119905
12552129426
12552141572
12552151277
12552158540
12552170686
12552181550
12552193818
12552203461
12552207978
12552221467
12552232209
12552244416
12552254853
12552259309
12552274201
12552285126
12552296479
12552306794
12552311432
12552327607
12552339814
12552349579
12552360505
12552373261
12552384247
12552394440
12552408234
12552420014
12552429840
12552440827
12552449188
12552462982
12552473785
12552485199
12552494843
12552505707
12552514496
12552523712
12552532989
12552540558
12552548553
12552551544
12552566254
12552572906
12552581573
12552586700
12552596832
12552603790
12552612335
12552619537
12552627289
12552634735
12552643646
12552650726
12552660186
12552668304
12552675201
12552682525
12552687591
12552698272
12552707427
12552713775
12552718658
12552729827
12552735443
12552744293
12552751312
12552758941
12552767669
12552775237
12552782012
12552790740
12552797454
12552805816
12552812041
12552819671
12552828643
12552836272
12552842498
12552850616
12552858001
12552863006
12552873260
12552878387
12552887420
12552895659
12552904876
12552912871
12552921355
12552927581
12552930327
12552943511
12552950042
12552958464
12552964629
12552973357
12552981230
12552987639
12552992583
12553002349
12553010344
12553018035
12553025908
12553034087
12553040923
12553048308
12553055266
12553061675
12553070891
12553073760
12553086028
12553094511
12553100798
12553107817
12553116972
12553122099
12553131865
12553136870
12553146208
12553154814
12553161711
12553168547
12553177885
12553185942
12553192045
12553199064
12553207792
12553216948
12553224760
12553233000
12553240507
12553246977
12553254911
12553264921
12553273405
12553282926
12553290312
12553297148
12553308317
12553315031
12553320158
12553331510
12553336820
12553345548
12553350736
12553357755
12553362516
12553368681
12553373441
12553379301
12553385709
12553390775
12553395841
12553402250
12553406828
12553410978
12553416837
12553422514
12553426725
12553432035
12553436368
12553439786
12553446256
12553451688
12553458097
12553461454
12553467374
12553472806
12553478116
12553482511
12553488004
12553492643
12553498807
12553505033
12553510648
12553515531
12553521390
12553526517
12553531583
12553538968
12553544461
12553550077
12553555204
12553561246
12553565641
12553569547
12553576322
12553581205
12553588590
12553594388
12553599881
12553605558
12553610684
12553615323
12553622098
12553627957
12553634854
12553641019
12553644559
12553649930
12553655728
12553661771
12553666837
12553672147
12553678494
12553684781
12553691251
12553696194
12553702237
12553706326
12553712674
12553717923
12553723172
12553731412
12553737759
12553740933
12553748135
12553753201
12553759122
12553764432
12553769742
12553774258
12553780240
12553787076
12553792203
12553798672
12553803311
12553807950
12553814663
12553819180
12553825589
12553830410
12553836941
12553840786
12553847744
12553852261
12553859036
12553864224
12553870571
12553877163
12553882534
12553887783
12553894924
12553902127
12553907620
12553912380
12553916104
12553924954
12553934109
12553943020
12553951260
12553959194
12553964260
12553973660
12553982143
12553988674
12553997524
12554008572
12554017422
12554025295
12554030849
12554036770
12554041714
12554047268
12554052090
12554056789
12554062343
12554067409
12554072475
12554077297
12554081997
12554086941
12554092434
12554097927
12554103481
12554109646
12554115322
12554119716
12554124782
12554130397
12554134487
12554140651
12554145839
12554151760
12554155849
12554163051
12554168850
12554173427
12554179225
12554185451
12554191249
12554197353
12554202846
12554208766
12554217861
12554224880
12554232814
12554240871
12554247463
12554255763
12554263210
12554269435
12554274135
12554284511
12554293056
12554299220
12554306606
12554315334
12554323085
12554331630
12554338344
12554346644
12554351649
12554359279
12554369166
12554376613
12554384059
12554393275
12554400721
12554407618
12554416774
12554423365
12554430690
12554439784
12554447047
12554455165
12554462611
12554468959
12554477626
12554483668
12554490077
12554500514
12554508143
12554516627
12554522975
12554530848
12554538783
12554546595
12554555384
12554567957
12554579554
12554587733
12554598231
12554604090
12554616175
12554623316
12554630884
12554639429
12554645228
12554652857
12554658472
12554667872
12554674219
12554682947
12554689295
12554697657
12554703943
12554711084
12554719019
12554727076
12554733484
12554738550
12554749598
12554757654
12554763880
12554771875
12554778040
12554785059
12554793726
12554800989
12554810449
12554815637
12554823938
12554830957
12554840906
12554848108
12554856836
12554863794
12554873193
12554881067
12554888757
12554895471
12554903650
12554910303
12554920129
12554924951
12554935998
12554941125
12554951074
12554959802
12554968103
12554976892
12554985559
12554992578
12554998926
12555008569
12555015405
12555023462
12555033227
12555040185
12555047509
12555056909
12555065515
12555075097
12555082849
12555092797
12555100366
12555110559
12555115685
12555125756
12555134179
12555143090
12555148278
12555158471
12555166894
12555175622
12555180871
12555193017
12555198937
12555210168
12555216271
12555225243
12555230492
12555241784
12555247094
12555259057
12555268151
12555276818
12555285485
12555293175
12555302636
12555311852
12555320275
12555327294
12555333092
12555346032
12555351769
12555362816
12555370934
12555381249
12555390343
12555398339
12555409447
12555418480
12555426476
12555435265
12555441979
12555451500
12555458031
12555466637
12555475792
12555483604
12555490074
12555499474
12555506248
12555515892
12555525230
12555531700
12555540428
12555548668
12555557213
12555564964
12555573448
12555580650
12555589012
12555594017
12555604942
12555609581
12555617149
12555620506
12555628379
12555631858
12555639976
12555643455
12555651268
12555655540
12555662498
12555667503
12555673728
12555678794
12555685630
12555690757
12555696678
12555703636
12555708579
12555713767
12555720115
12555725120
12555730796
12555737022
12555743186
12555749412
12555755271
12555759727
12555767295
12555771995
12555778037
12555782859
12555789451
12555796897
12555802268
12555806907
12555813560
12555817832
12555824729
12555829612
12555836753
12555841941
12555846580
12555854331
12555857993
12555866782
12555870810
12555877646
12555883017
12555889609
12555896995
12555903098
12555908591
12555915244
12555920127
12555927329
12555932090
12555938620
12555943991
12555950583
12555957053
12555962119
12555968528
12555972251
12555980673
12555987265
12555993613
12555997519
12556005332
12556011618
12556016440
12556022727
12556030478
12556039023
12556044150
12556051291
12556056906
12556063071
12556072287
12556079245
12556086142
12556092368
12556098837
12556105124
12556110190
12556114889
12556120749
12556125998
12556133505
12556139181
12556144919
12556149618
12556153891
12556159750
12556165610
12556171408
12556178427
12556183249
12556189535
12556194479
12556201315
12556207296
12556213339
12556218100
12556225302
12556230001
12556235800
12556240805
12556246908
12556251425
12556257223
12556263693
12556268454
12556274008
12556277548
12556284384
12556288229
12556295492
12556300680
12556306600
12556311849
12556316305
12556320883
12556326437
12556332052
12556337179
12556342123
12556348531
12556352194
12556358663
12556362325
12556369650
12556374105
12556381612
12556386373
12556393392
12556399496
12556403768
12556408407
12556415060
12556422262
12556427999
12556432210
12556439474
12556443685
12556450277
12556455282
12556460409
12556466939
12556473104
12556478780
12556486593
12556494710
12556502095
12556508443
12556517354
12556526754
12556534688
12556541097
12556549947
12556558370
12556565267
12556573079
12556580648
12556589009
12556594441
12556604146
12556609517
12556620870
12556626485
12556636556
12556642049
12556653706
12556666829
12556673177
12556686177
12556696431
12556704060
12556715901
12556722676
12556734334
12556742207
12556751240
12556758687
12556767048
12556776387
12556783467
12556790059
12556798787
12556807576
12556815449
12556823994
12556831318
12556840046
12556847065
12556855915
12556861775
12556872334
12556877522
12556886860
12556894123
12556903034
12556909565
12556918904
12556925373
12556934162
12556943073
12556949970
12556958332
12556965534
12556972126
12556979694
12556987995
12556995686
12557004291
12557011555
12557020832
12557027363
12557036823
12557043476
12557050495
12557059223
12557066730
12557075397
12557082111
12557090656
12557095722
12557106403
12557113666
12557121540
12557129169
12557138202
12557144611
12557151813
12557160541
12557167560
12557176044
12557182880
12557191608
12557196918
12557207294
12557212421
12557223224
12557231037
12557237994
12557244708
12557254840
12557261920
12557270709
12557279315
12557286029
12557295978
12557303546
12557312213
12557317828
12557331134
12557339801
12557346087
12557355487
12557364276
12557373187
12557379962
12557385394
12557396930
12557408343
12557414813
12557419940
12557431903
12557438739
12557447161
12557452410
12557462847
12557470843
12557478778
12557485980
12557493670
12557503192
12557510577
12557520892
12557530108
12557537066
12557547015
12557556170
12557565325
12557573504
12557582232
12557589861
12557599078
12557606219
12557615801
12557623553
12557632464
12557639117
12557646685
12557655718
12557662249
12557670244
12557677630
12557685442
12557693255
12557699846
12557704790
12557715715
12557720659
12557731462
12557736650
12557748003
12557753252
12557762651
12557769365
12557776323
12557785845
12557793169
12557799761
12557809343
12557815447
12557822954
12557831621
12557839433
12557847978
12557850847
12557863298
12557866106
12557878740
12557883928
12557893327
12557897966
12557906999
12557913957
12557922563
12557930559
12557937883
12557947282
12557955522
12557962175
12557969865
12557974687
12557980790
12557987748
12557993364
12557999162
12558005510
12558010087
12558013749
12558022477
12558026506
12558033647
12558039201
12558044206
12558049333
12558055497
12558060746
12558068009
12558075212
12558084489
12558091447
12558101640
12558108781
12558116532
12558123063
12558131425
12558136369
12558142838
12558149979
12558157182
12558163346
12558165482
12558174088
12558177811
12558186600
12558190202
12558196976
12558206254
12558223893
12558236710
12558247147
12558258561
12558268387
12558275773
12558284256
12558293412
12558303360
12558310318
12558316666
12558323990
12558330643
12558337357
12558345047
12558352433
12558358658
12558364395
12558369217
12558374344
12558379471
12558383927
12558388687
12558393753
12558398880
12558403580
12558408890
12558413407
12558418594
12558424149
12558429337
12558433182
12558437698
12558440689
12558445572
12558449295
12558454727
12558460342
12558464005
12558468155
12558473465
12558476151
12558482193
12558485184
12558491898
12558498856
12558503494
12558507828
12558511734
12558516922
12558522110
12558526687
12558531936
12558536209
12558543716
12558546707
12558552322
12558558121
12558563919
12558568130
12558572891
12558577957
12558584121
12558588699
12558593216
12558597854
12558602859
12558606826
12558612259
12558616897
12558621353
12558626907
12558631729
12558635757
12558640762
12558645950
12558650222
12558656265
12558661636
12558666030
12558671524
12558676773
12558681411
12558687332
12558693313
12558699539
12558705764
12558710281
12558713149
12558720962
12558724075
12558730727
12558733962
12558740432
12558745254
12558751540
12558756973
12558763503
12558767898
12558774306
12558779189
12558784072
12558790054
12558795425
12558801162
12558806777
12558810744
12558817397
12558822036
12558829482
12558836745
12558844863
12558853530
12558862380
12558868483
12558876967
12558885695
12558894301
12558903701
12558910353
12558919020
12558925490
12558933242
12558937880
12558948134
12558952590
12558962844
12558969313
12558980361
12558985671
12558994704
12559000624
12559007887
12559014296
12559022841
12559036086
12559041762
12559047804
12559054945
12559060805
12559070021
12559076613
12559084242
12559091505
12559099806
12559106703
12559114332
12559122633
12559129347
12559135939
12559143812
12559151869
12559160963
12559167616
12559175917
12559183607
12559189222
12559197523
12559205580
12559212538
12559223158
12559229750
12559234266
12559244093
12559249769
12559260816
12559265882
12559275465
12559286207
12559292738
12559300184
12559308241
12559314710
12559321302
12559330274
12559336988
12559343702
12559353346
12559361829
12559368848
12559377088
12559384107
12559392835
12559400648
12559407423
12559412488
12559423963
12559428724
12559438245
12559442945
12559453199
12559460279
12559468030
12559476026
12559484205
12559490979
12559499219
12559504895
12559512952
12559519300
12559528821
12559537244
12559546949
12559556226
12559563306
12559570996
12559579846
12559588147
12559595166
12559601514
12559610242
12559619641
12559628064
12559637708
12559646252
12559655774
12559664929
12559672131
12559681226
12559689709
12559697156
12559706067
12559714673
12559721142
12559730603
12559739453
12559746777
12559755322
12559762768
12559771618
12559779309
12559787793
12559790661
12559804333
12559810009
12559820202
12559825329
12559834973
12559842236
12559850598
12559859875
12559865917
12559875195
12559883740
12559890515
12559899426
12559905956
12559914623
12559921459
12559926403
12559937939
12559944469
12559953259
12559957958
12559969189
12559974377
12559983349
12559988048
12559997143
12560002514
12560013378
12560018627
12560027721
12560034618
12560042797
12560050060
12560057934
12560065014
12560074352
12560081188
12560088573
12560097179
12560104137
12560110729
12560115978
12560124828
12560133007
12560143077
12560148143
12560156932
12560164073
12560171398
12560178722
12560187511
12560194652
12560203075
12560207897
12560217906
12560224376
12560233165
12560239513
12560244579
12560254710
12560262096
12560267589
12560271007
12560278819
12560284618
12560289928
12560297130
12560303111
12560305308
12560315196
12560317699
12560326121
12560331248
12560337352
12560342906
12560348582
12560354075
12560360057
12560367137
12560372630
12560379283
12560385264
12560391063
12560397899
12560402476
12560411692
12560419505
12560426036
12560430552
12560437815
12560442210
12560448680
12560456553
12560462107
12560466319
12560471629
12560476390
12560482859
12560487681
12560494090
12560500865
12560506053
12560509959
12560517405
12560521311
12560528452
12560532298
12560540171
12560545847
12560553721
12560557505
12560564890
12560568552
12560574778
12560580698
12560586619
12560593516
12560600718
12560604380
12560609812
12560615671
12560621897
12560626719
12560628672
12560637461
12560643564
12560648874
12560652659
12560659067
12560662363
12560669138
12560674814
12560680613
12560688059
12560693979
12560697519
12560703684
12560709421
12560715403
12560718454
12560724802
12560729807
12560737802
12560759043
12560763559
12560769602
12560774057
12560779306
12560784799
12560788584
12560794077
12560798715
12560802072
12560806711
12560811716
12560816354
12560820261
12560826242
12560830759
12560836618
12560839792
12560845895
12560849069
12560855356
12560860361
12560866342
12560872934
12560879037
12560883737
12560889169
12560894601
12560901315
12560905588
12560910409
12560915048
12560922983
12560928720
12560937753
12560943429
12560949716
12560956125
12560962045
12560971872
12560976632
12560984323
12560988412
12560994394
