12687005301
12687010734
12687015738
12687020865
12687026542
12687031730
12687037406
12687042289
12687046744
12687051932
12687056693
12687062186
12687067740
12687073050
12687078604
12687083365
12687088858
12687093741
12687099234
12687103873
12687108634
12687114249
12687119925
12687126639
12687130667
12687138175
12687144888
12687151908
12687159049
12687166556
12687173636
12687180716
12687189139
12687194937
12687205069
12687212210
12687218253
12687226126
12687234610
12687240469
12687249014
12687255118
12687266226
12687278494
12687285696
12687291067
12687297293
12687302176
12687310110
12687314261
12687323538
12687329336
12687335379
12687340628
12687347220
12687353384
12687360525
12687366690
12687373098
12687379263
12687385366
12687390493
12687398428
12687405325
12687411489
12687417288
12687421987
12687429067
12687434622
12687440603
12687446768
12687453604
12687459463
12687465811
12687471670
12687477651
12687484182
12687490591
12687496816
12687503591
12687510549
12687516897
12687523855
12687529714
12687537710
12687544912
12687551992
12687558218
12687566213
12687572256
12687576589
12687585439
12687592946
12687599355
12687605214
12687615041
12687621267
12687629689
12687638845
12687644826
12687650136
12687658315
12687665029
12687673024
12687679494
12687685353
12687693959
12687699453
12687706472
12687713735
12687719350
12687727101
12687733449
12687739552
12687744985
12687756276
12687762807
12687770314
12687778127
12687784230
12687791249
12687797780
12687804616
12687813161
12687820729
12687826527
12687834279
12687839772
12687845998
12687853871
12687860219
12687868275
12687873280
12687880726
12687887074
12687893605
12687900014
12687905507
12687912221
12687919301
12687925526
12687931813
12687937977
12687942799
12687950550
12687956105
12687962696
12687969227
12687976063
12687980580
12687987904
12687993519
12688002491
12688009266
12688015370
12688021229
12688028309
12688035877
12688042408
12688049305
12688057057
12688062916
12688069080
12688076161
12688084278
12688092274
12688099964
12688105824
12688113270
12688119251
12688126331
12688132313
12688137928
12688145435
12688152393
12688158375
12688163990
12688171131
12688178089
12688185230
12688192676
12688199329
12688207996
12688212513
12688221302
12688227039
12688236316
12688244556
12688249927
12688258533
12688264453
12688273365
12688280201
12688287159
12688293872
12688302417
12688307300
12688317493
12688325061
12688332080
12688340198
12688347949
12688357166
12688365100
12688373218
12688380176
12688388416
12688395862
12688404041
12688411243
12688418933
12688425830
12688434741
12688441577
12688450793
12688458423
12688467151
12688475696
12688481433
12688486011
12688492480
12688496875
12688501147
12688507739
12688511706
12688517260
12688522571
12688527575
12688533069
12688537585
12688545031
12688550891
12688556140
12688560595
12688566638
12688569751
12688576281
12688582263
12688587512
12688592761
12688598010
12688603259
12688609118
12688613391
12688619982
12688625598
12688631518
12688638537
12688643725
12688649340
12688654162
12688660876
12688666735
12688672411
12688676928
12688682543
12688687853
12688693896
12688696276
12688704455
12688710497
12688714892
12688721300
12688726305
12688733813
12688738512
12688744433
12688750780
12688757494
12688761156
12688768175
12688772509
12688779467
12688785082
12688792162
12688796801
12688802965
12688808764
12688814379
12688820421
12688825182
12688831347
12688836290
12688844408
12688850756
12688856066
12688861986
12688866869
12688872789
12688877977
12688884264
12688892015
12688896654
12688902513
12688907335
12688913866
12688918749
12688924608
12688931810
12688939134
12688945482
12688951769
12688957506
12688964281
12688969835
12688978136
12688983812
12688990770
12688996385
12689003954
12689010179
12689017137
12689022447
12689028612
12689034288
12689039415
12689043748
12689049913
12689055772
12689061387
12689065721
12689071092
12689075426
12689082139
12689086961
12689094407
12689099840
12689105211
12689112291
12689116624
12689123155
12689129991
12689134629
12689141649
12689146409
12689152696
12689159410
12689165818
12689172776
12689180162
12689185289
12689191819
12689197618
12689201890
12689208726
12689212022
12689219773
12689227586
12689232224
12689239732
12689244431
12689251512
12689258531
12689264756
12689271836
12689277573
12689283128
12689289353
12689296616
12689304185
12689310593
12689318650
12689327622
12689337937
12689345994
12689353135
12689361069
12689369004
12689375046
12689384019
12689390610
12689402146
12689409104
12689418015
12689425095
12689434250
12689442978
12689450608
12689459153
12689467575
12689476609
12689485276
12689493088
12689500107
12689508103
12689513901
12689523117
12689532639
12689539536
12689547653
12689556198
12689564743
12689572250
12689579697
12689587143
12689598740
12689606430
12689613327
12689621628
12689628342
12689637741
12689644760
12689653366
12689660995
12689671676
12689676987
12689687485
12689692367
12689702072
12689710312
12689718795
12689724228
12689736007
12689741317
12689751266
12689758712
12689765609
12689772323
12689781906
12689789657
12689799850
12689804916
12689814804
12689819381
12689829269
12689835983
12689844222
12689851302
12689862167
12689867111
12689876937
12689884567
12689892745
12689900497
12689908004
12689918441
12689926742
12689935042
12689941024
12689949019
12689957198
12689961959
12689972518
12689977645
12689988631
12689993331
12690003097
12690010482
12690018477
12690026046
12690032637
12690040023
12690049849
12690057906
12690066085
12690070845
12690080489
12690087935
12690094405
12690101546
12690112349
12690117537
12690127547
12690132186
12690142195
12690149947
12690157515
12690166487
12690174483
12690179793
12690189803
12690197188
12690203963
12690210677
12690220381
12690230208
12690238814
12690246016
12690253279
12690260054
12690269392
12690277449
12690284895
12690292219
12690299971
12690306135
12690313826
12690322065
12690329207
12690338362
12690345686
12690352095
12690361433
12690369490
12690377302
12690383528
12690392012
12690399458
12690407698
12690414839
12690422712
12690428755
12690436201
12690445051
12690452619
12690461775
12690469953
12690477766
12690487287
12690500227
12690515119
12690525495
12690535078
12690548627
12690559125
12690570722
12690582013
12690596784
12690644941
12690666425
12690687238
12690704999
12690726850
12690747296
12690762006
12690776532
12690789166
12690801801
12690816632
12690828717
12690840619
12690848004
12690858197
12690873273
12690889996
12690910687
12690928631
12690939373
12690947186
12690955914
12690963848
12690971051
12690978863
12690986798
12690993572
12691001324
12691009564
12691017498
12691024395
12691031353
12691039898
12691046856
12691055035
12691063763
12691071941
12691078960
12691085369
12691094463
12691100628
12691109295
12691113872
12691124370
12691131817
12691140545
12691147503
12691155987
12691163799
12691170574
12691178814
12691188457
12691194561
12691202251
12691210430
12691218975
12691227459
12691236248
12691243755
12691253521
12691258037
12691268535
12691273479
12691285076
12691294170
12691302349
12691308452
12691319377
12691327190
12691336711
12691346904
12691354228
12691365337
12691372905
12691382915
12691389384
12691398601
12691404887
12691415507
12691422893
12691432536
12691439921
12691447673
12691454753
12691464763
12691469707
12691479960
12691485087
12691495585
12691503581
12691510356
12691517375
12691524394
12691532695
12691541056
12691548686
12691555888
12691567118
12691574504
12691581401
12691587931
12691596293
12691604594
12691612712
12691621195
12691629923
12691636820
12691644816
12691652262
12691660380
12691668559
12691676005
12691684489
12691693705
12691700907
12691707255
12691717203
12691724222
12691733012
12691739970
12691749064
12691755717
12691765848
12691773356
12691781107
12691785929
12691794962
12691802347
12691810953
12691819498
12691827311
12691833414
12691841227
12691849283
12691857157
12691865396
12691871195
12691879984
12691887918
12691895914
12691904459
12691913370
12691920084
12691928446
12691935037
12691944620
12691949197
12691959940
12691964517
12691974710
12691982034
12691989908
12692000589
12692009805
12692018899
12692027933
12692037698
12692046792
12692058084
12692068887
12692077554
12692086343
12692091470
12692096780
12692103738
12692109536
12692117044
12692123636
12692130899
12692135171
12692143594
12692153726
12692159219
12692166543
12692174172
12692180886
12692186563
12692194192
12692199502
12692206094
12692212747
12692218911
12692224221
12692231423
12692237466
12692245339
12692251443
12692258340
12692264809
12692270791
12692276589
12692283364
12692289468
12692297341
12692303811
12692310586
12692314614
12692322610
12692329018
12692336220
12692340249
12692348183
12692352517
12692361428
12692368569
12692375527
12692382546
12692389931
12692396950
12692403054
12692411599
12692417336
12692425026
12692430886
12692437416
12692446938
12692451454
12692459694
12692466896
12692475624
12692482216
12692488808
12692495278
12692503212
12692509682
12692517922
12692526650
12692534279
12692541298
12692549172
12692555702
12692562721
12692569008
12692576393
12692584938
12692591957
12692599586
12692605934
12692614479
12692619972
12692628700
12692634926
12692642860
12692652321
12692658302
12692666603
12692672645
12692679542
12692688575
12692692665
12692703163
12692712318
12692718788
12692727028
12692732948
12692740394
12692746925
12692753395
12692761879
12692769386
12692779212
12692786598
12692793922
12692800453
12692808998
12692815589
12692823890
12692830299
12692840980
12692847633
12692855933
12692862891
12692872230
12692878333
12692883460
12692894935
12692904578
12692913428
12692919105
12692927772
12692932410
12692942725
12692950538
12692956519
12692963843
12692973609
12692980872
12692988074
12692996985
12693002662
12693011084
12693016639
12693026587
12693034766
12693041175
12693050025
12693056555
12693061011
12693072241
12693080237
12693086341
12693097022
12693103491
12693112647
12693118872
12693125464
12693134314
12693141089
12693149024
12693156043
12693164893
12693171851
12693178809
12693188025
12693193945
12693201758
12693209082
12693217322
12693226660
12693233252
12693238745
12693248205
12693253943
12693263708
12693271643
12693277746
12693284704
12693293982
12693302221
12693309912
12693316504
12693324987
12693331884
12693339331
12693346838
12693356848
12693363928
12693370947
12693379431
12693384191
12693390722
12693396826
12693402502
12693409399
12693414587
12693420141
12693423376
12693429785
12693435400
12693440832
12693447241
12693452978
12693458410
12693464147
12693470373
12693474462
12693480321
12693484777
12693491918
12693498205
12693503759
12693509740
12693515783
12693522375
12693528234
12693532934
12693539525
12693545019
12693550390
12693558019
12693563329
12693569982
12693575231
12693582555
12693589513
12693595800
12693602086
12693608556
12693616674
12693623937
12693630223
12693635411
12693641820
12693646337
12693652135
12693656896
12693662328
12693667333
12693671849
12693677404
12693684606
12693690038
12693695409
12693699010
12693705846
12693711278
12693717015
12693722386
12693728551
12693733312
12693738439
12693743565
12693749913
12693754369
12693760350
12693765050
12693772374
12693780675
12693785008
12693790318
12693795811
12693800877
12693808079
12693814549
12693819859
12693825230
12693831761
12693836949
12693842076
12693847935
12693853001
12693858983
12693864720
12693869969
12693876866
12693881321
12693887486
12693892491
12693899022
12693904637
12693911595
12693917576
12693922459
12693928196
12693933201
12693940342
12693943699
12693950413
12693955906
12693962010
12693967015
12693973057
12693978001
12693983982
12693988499
12693995335
12694000523
12694008518
12694013584
12694018406
12694022740
12694029209
12694035435
12694040196
12694045994
12694052586
12694057468
12694061497
12694068394
12694071873
12694080479
12694084019
12694091282
12694095371
12694102451
12694109775
12694113804
12694119602
12694124851
12694129490
12694134556
12694141270
12694147983
12694154880
12694159641
12694163730
12694172764
12694176304
12694185032
12694189426
12694196445
12694200779
12694212253
12694215122
12694224521
12694230442
12694238193
12694244907
12694252414
12694257236
12694266941
12694271579
12694280368
12694287387
12694295688
12694302707
12694312045
12694317111
12694326938
12694334811
12694342075
12694346774
12694354709
12694362094
12694372043
12694380099
12694387363
12694393710
12694401340
12694407931
12694416720
12694425937
12694434176
12694440829
12694445773
12694456027
12694461520
12694472140
12694477755
12694485995
12694493930
12694503390
12694511203
12694518039
12694526522
12694534091
12694541049
12694547335
12694554415
12694561557
12694569857
12694576144
12694582492
12694591158
12694599398
12694605563
12694613192
12694620577
12694627413
12694633151
12694642916
12694649508
12694656954
12694661471
12694672823
12694681429
12694688814
12694699190
12694704928
12694713656
12694721346
12694729586
12694736117
12694740694
12694752596
12694757113
12694767428
12694772188
12694782747
12694787386
12694796236
12694803377
12694813143
12694821199
12694828096
12694835176
12694843782
12694852999
12694859896
12694869722
12694876253
12694885469
12694892854
12694900179
12694909273
12694918306
12694925813
12694934908
12694941499
12694951082
12694956392
12694969392
12694974825
12694984102
12694991853
12695000886
12695008882
12695018037
12695025239
12695033418
12695044832
12695051179
12695059480
12695067659
12695074128
12695082612
12695091096
12695098359
12695104951
12695112458
12695118623
12695127534
12695136567
12695143281
12695149201
12695158723
12695165254
12695174409
12695180818
12695187043
12695197419
12695206635
12695213654
12695218476
12695230500
12695235627
12695245820
12695253510
12695261079
12695268586
12695276948
12695286835
12695292939
12695302399
12695310395
12695317048
12695325349
12695334015
12695342072
12695350983
12695358979
12695365265
12695374848
12695381501
12695390229
12695398591
12695407502
12695413971
12695421296
12695430634
12695437043
12695445771
12695455109
12695462067
12695470734
12695478241
12695487274
12695494782
12695503327
12695510590
12695519074
12695524567
12695535431
12695540863
12695551605
12695556854
12695567108
12695574127
12695582306
12695588715
12695597809
12695604339
12695615631
12695622711
12695632355
12695638946
12695644012
12695655304
12695663910
12695670318
12695677581
12695687347
12695694854
12695701080
12695706695
12695713165
12695718658
12695724762
12695730987
12695738006
12695744354
12695753143
12695760162
12695767364
12695772674
12695778350
12695785430
12695790618
12695795989
12695801483
12695807891
12695812530
12695816558
12695822112
12695826568
12695833648
12695838592
12695843902
12695848968
12695855254
12695860076
12695866058
12695870635
12695876250
12695880645
12695887115
12695892120
12695897613
12695902495
12695908965
12695914336
12695921538
12695926360
12695931487
12695937591
12695942962
12695947234
12695953521
12695960113
12695965178
12695971404
12695978545
12695983489
12695987944
12695995940
12696001433
12696006865
12696014617
12696021514
12696023406
12696032988
12696036284
12696043669
12696049041
12696055632
12696059905
12696066863
12696072112
12696077910
12696083953
12696090422
12696095122
12696101409
12696106047
12696113677
12696119414
12696125029
12696131011
12696136137
12696141325
12696148405
12696153838
12696160124
12696165678
12696169402
12696177458
12696183073
12696188933
12696193327
12696201567
12696207182
12696213896
12696219023
12696223784
12696229338
12696235258
12696242644
12696247709
12696252348
12696259550
12696264189
12696270537
12696275541
12696282438
12696288908
12696293058
12696299589
12696306486
12696313627
12696321379
12696327604
12696332365
12696342009
12696347990
12696354765
12696360380
12696369047
12696375761
12696380949
12696387296
12696391569
12696398283
12696403044
12696409818
12696415373
12696419279
12696426176
12696432707
12696437467
12696442411
12696448087
12696453031
12696458585
12696462980
12696469022
12696475431
12696481473
12696487882
12696494108
12696500028
12696505338
12696512845
12696518156
12696523405
12696527189
12696532682
12696536405
12696541776
12696547147
12696552396
12696556791
12696563199
12696570707
12696577604
12696585965
12696592740
12696599149
12696608304
12696615018
12696622464
12696630094
12696636502
12696643949
12696650479
12696658231
12696660916
12696673306
12696680142
12696687955
12696695157
12696700406
12696708768
12696716397
12696722012
12696730252
12696735013
12696744412
12696752225
12696757840
12696765775
12696773282
12696778653
12696786587
12696792508
12696802884
12696807645
12696817593
12696826932
12696832852
12696837430
12696847989
12696855984
12696862210
12696869290
12696877530
12696885098
12696893460
12696900174
12696909451
12696914090
12696922146
12696928433
12696936062
12696943447
12696953030
12696960415
12696967922
12696974697
12696983425
12696990688
12696998501
12697006191
12697016018
12697023525
12697032070
12697039028
12697045132
12697053738
12697059719
12697066067
12697075710
12697085049
12697092434
12697102016
12697108974
12697114590
12697123867
12697129726
12697139248
12697145778
12697152858
12697160427
12697167324
12697173122
12697177700
12697188503
12697195522
12697203212
12697207973
12697217434
12697222133
12697232143
12697236965
12697247158
12697252223
12697262538
12697270229
12697277004
12697283779
12697292507
12697300258
12697307033
12697313381
12697322902
12697329616
12697338710
12697345180
12697350246
12697359645
12697368434
12697375270
12697383998
12697390590
12697397975
12697407069
12697414149
12697421351
12697427882
12697436793
12697443202
12697452723
12697461696
12697468715
12697474940
12697483668
12697490687
12697499049
12697505336
12697512355
12697521327
12697528773
12697535487
12697542384
12697550135
12697556666
12697565760
12697573145
12697583949
12697591822
12697600489
12697606776
12697612147
12697623377
12697628504
12697638514
12697643458
12697655115
12697660303
12697670557
12697677576
12697684840
12697692347
12697701563
12697709315
12697717798
12697724329
12697734217
12697740748
12697748865
12697757959
12697760767
12697773218
12697782984
12697791773
12697800623
12697809290
12697817469
12697826563
12697834436
12697843164
12697852564
12697861353
12697868921
12697878137
12697886316
12697895471
12697898340
12697911279
12697921533
12697930078
12697938135
12697946619
12697953333
12697961816
12697966760
12697977624
12697982751
12697994409
12698001001
12698006250
12698010766
12698016260
12698021570
12698025720
12698035791
12698040796
12698046350
12698050927
12698057885
12698061120
12698068506
12698073266
12698079431
12698085962
12698090051
12698096826
12698101037
12698107324
12698112512
12698119836
12698124841
12698130944
12698136987
12698141015
12698146325
12698152490
12698159020
12698165063
12698170312
12698174706
12698181603
12698186364
12698191857
12698196984
12698205102
12698211388
12698217004
12698221825
12698227136
12698233361
12698238305
12698245141
12698250146
12698256127
12698261071
12698267297
12698272729
12698278161
12698286095
12698292016
12698297265
12698302514
12698308922
12698313561
12698318932
12698323266
12698331322
12698336632
12698343590
12698346825
12698354699
12698360863
12698366845
12698372094
12698378502
12698384240
12698390770
12698396813
12698401513
12698407128
12698411766
12698423546
12698429772
12698437035
12698442833
12698449120
12698454674
12698461205
12698468529
12698475060
12698480919
12698488304
12698495751
12698501915
12698506004
12698512535
12698516869
12698524559
12698530296
12698535790
12698540123
12698546349
12698552696
12698557823
12698564659
12698570152
12698575645
12698581627
12698587913
12698593956
12698598961
12698605247
12698611046
12698618370
12698623314
12698629661
12698634483
12698640587
12698645591
12698651573
12698656395
12698665062
12698670250
12698675865
12698682396
12698687950
12698692405
12698698753
12698705223
12698711509
12698717063
12698723289
12698728355
12698733848
12698740318
12698746421
12698752098
12698758567
12698765464
12698770286
12698776695
12698781822
12698786277
12698792320
12698798850
12698804466
12698812583
12698824241
12698829673
12698841514
12698847617
12698857383
12698864829
12698875327
12698883445
12698896140
12698905601
12698914145
12698926597
12698934653
12698948264
12698959678
12698968406
12698981040
12698985129
12699002280
12699009726
12699020896
12699030417
12699045554
12699056845
12699066123
12699075827
12699083518
12699098349
12699104941
12699119284
12699128928
12699134116
12699151266
12699163718
12699177267
12699190268
12699199667
12699210287
12699220114
12699230002
12699243612
12699253866
12699265402
12699273153
12699282614
12699295736
12699305807
12699316366
12699325521
12699334066
12699348348
12699358969
12699367147
12699376058
12699387228
12699396200
12699407247
12699417196
12699422994
12699436849
12699446676
12699455282
12699466146
12699477376
12699491659
12699501668
12699509237
12699521383
12699531026
12699540670
12699551168
12699562703
12699568746
12699576741
12699591695
12699599813
12699610494
12699620748
12699631673
12699642537
12699653096
12699661702
12699672017
12699680501
12699691853
12699702290
12699708455
12699720601
12699733479
12699737569
12699752217
12699759236
12699770344
12699780049
12699793172
12699802693
12699814534
12699823872
12699830891
12699843403
12699853901
12699862812
12699872273
12699884419
12699894184
12699902546
12699916767
12699927143
12699937092
12699948811
12699952778
12699966206
12699975971
12699987141
12699998066
12700010334
12700019489
12700023823
12700041889
12700053486
12700062946
12700073688
12700082355
12700091511
12700106281
12700115986
12700123310
12700133320
12700141559
12700152179
12700161091
12700169147
12700181842
12700189960
12700204242
12700211444
12700222309
12700230731
12700243488
12700251666
12700259052
12700270770
12700280902
12700294391
12700301288
12700313129
12700322345
12700332538
12700341388
12700348163
12700361652
12700367450
12700384601
12700395282
12700399432
12700416095
12700422809
12700435870
12700442218
12700454913
12700467852
12700475970
12700487811
12700497638
12700505816
12700512713
12700523394
12700531939
12700542193
12700552996
12700564349
12700573687
12700580218
12700592669
12700601824
12700610430
12700621416
12700625201
12700639056
12700646380
12700660113
12700670000
12700676287
12700683672
12700689898
12700696367
12700704729
12700713518
12700722490
12700728350
12700731218
12700742693
12700748430
12700756121
12700764299
12700771318
12700781023
12700788897
12700793901
12700801104
12700807390
12700815325
12700821733
12700831682
12700837480
12700846392
12700852495
12700859026
12700866960
12700874712
12700880937
12700886125
12700894609
12700903520
12700913713
12700921526
12700927080
12700933366
12700940752
12700948930
12700951799
12700963884
12700969499
12700979143
12700984758
12700992021
12700999284
12701005754
12701013627
12701019914
12701026872
12701037187
12701044511
12701052568
12701058244
12701064714
12701073869
12701079301
12701085893
12701093949
12701101518
12701108842
12701115129
12701121720
12701129228
12701134599
12701143571
12701148759
12701158524
12701171464
12701177140
12701184464
12701191666
12701198869
12701203263
12701212479
12701218583
12701228165
12701236222
12701244279
12701250931
12701253739
12701265092
12701272477
12701281144
12701286027
12701297196
12701305314
12701314774
12701321671
12701327408
12701335465
12701343094
12701351700
12701355790
12701366043
12701371415
12701379044
12701384110
12701389298
12701395218
12701401322
12701405899
12701415055
12701420365
12701426041
12701432328
12701438187
12701443924
12701448563
12701454300
12701461991
12701466812
12701470230
12701479263
12701482559
12701489517
12701494949
12701500382
12701505814
12701511673
12701516922
12701523575
12701528519
12701533585
12701539749
12701545303
12701550430
12701557754
12701562881
12701568802
12701574600
12701579056
12701585037
12701591629
12701598038
12701605301
12701610550
12701614578
12701621170
12701624588
12701632583
12701635818
12701643264
12701647842
12701655288
12701660843
12701666885
12701671768
12701677017
12701681961
12701690445
12701695877
12701701614
12701708511
12701712539
12701718704
12701725723
12701733718
12701741287
12701749160
12701757522
12701766128
12701773818
12701781631
12701787307
12701795669
12701804397
12701810683
12701818618
12701828445
12701833694
12701842544
12701849502
12701857619
12701866225
12701873733
12701880752
12701890395
12701897719
12701905166
12701911147
12701919753
12701926040
12701934890
12701940993
12701950515
12701957778
12701966567
12701975417
12701983107
12701994460
12702002333
12702011000
12702020400
12702029128
12702035842
12702044386
12702052443
12702059096
12702067397
12702075209
12702080519
12702090773
12702096022
12702105788
12702113600
12702120802
12702127638
12702135329
12702145460
12702154372
12702159560
12702170973
12702178419
12702184828
12702191481
12702199598
12702206556
12702215040
12702222120
12702230421
12702237013
12702245863
12702251905
12702261671
12702269972
12702279127
12702285719
12702293775
12702302137
12702308912
12702316786
12702321546
12702331251
12702342420
12702350782
12702356458
12702364332
12702372572
12702379835
12702386549
12702395460
12702403761
12702412183
12702419630
12702426588
12702435194
12702443006
12702449659
12702457716
12702463758
12702474256
12702480604
12702489149
12702495069
12702502698
12702510938
12702517225
12702526807
12702532605
12702545423
12702552747
12702564222
12702569287
12702580518
12702585340
12702596387
12702601697
12702611463
12702616773
12702628003
12702636670
12702643445
12702648450
12702659192
12702669385
12702677869
12702680676
12702693189
12702698377
12702709485
12702715405
12702725171
12702733777
12702741833
12702749341
12702755322
12702762768
12702771863
12702779248
12702787488
12702798413
12702805859
12702813550
12702820752
12702828991
12702835339
12702843701
12702850293
12702861645
12702868786
12702876660
12702882458
12702890820
12702900280
12702906994
12702914562
12702924267
12702932080
12702940197
12702946667
12702954113
12702960949
12702969921
12702976147
12702987316
12702994396
12703006969
12703011730
12703023449
12703034069
12703040600
12703049328
12703056530
12703068004
12703077038
12703085216
12703095165
12703104259
12703112072
12703123424
12703126903
12703139721
12703144909
12703155590
12703166393
12703174511
12703181469
12703185009
12703192638
12703197338
12703203014
12703209056
12703213329
12703220287
12703225536
12703230541
12703235240
12703242015
12703245006
12703250987
12703256481
12703262767
12703266795
12703273631
12703277660
12703285167
12703288646
12703296336
12703302928
12703309032
12703314220
12703319713
12703325816
12703330394
12703336192
12703342113
12703348094
12703354747
12703361034
12703365489
12703372386
12703376842
12703383922
12703391429
12703396495
12703403453
12703407725
12703414500
12703419749
12703425547
12703431285
12703441050
12703446788
12703452403
12703458628
12703465098
12703470286
12703477427
12703483165
12703497264
12703505137
12703516612
12703524363
12703532969
12703541392
12703547679
12703553050
12703557566
12703564585
12703568430
12703575755
12703579600
12703587717
12703595530
12703604685
12703610239
12703616953
12703621287
12703627085
12703631907
12703637522
12703643076
12703648325
12703655222
12703659678
12703665476
12703669749
12703676035
12703680796
12703687449
12703692637
12703699473
12703704661
12703711008
12703716807
12703721262
12703727976
12703734690
12703740549
12703744333
12703752024
12703755747
12703763559
12703767588
12703774607
12703779856
12703786142
12703791880
12703799387
12703805063
12703809946
12703814646
12703821970
12703827402
12703833750
12703840891
12703847727
12703852487
12703856149
12703863352
12703870310
12703875375
12703881296
12703886423
12703892587
12703898813
12703905038
12703909799
12703916330
12703920724
12703928415
12703933847
12703938608
12703944894
12703950265
12703956430
12703961862
12703968393
12703973276
12703980600
12703985666
12703992746
12703997445
12704003366
12704008249
12704011728
12704021493
12704027536
12704034372
12704039621
12704052072
12704058969
12704069162
12704077706
12704086801
12704090646
12704104074
12704110482
12704118966
12704124581
12704136666
12704142465
12704151071
12704158395
12704169076
12704174325
12704185860
12704193307
12704202218
12704208810
12704220345
12704229501
12704236153
12704243355
12704252389
12704260628
12704268746
12704273934
12704282662
12704293099
12704299630
12704306466
12704313912
12704320260
12704328316
12704336190
12704343087
12704349129
12704360237
12704366158
12704376961
12704382332
12704390755
12704399056
12704406563
12704413216
12704423409
12704430367
12704436836
12704443978
12704454537
12704460945
12704467415
12704476326
12704483711
12704492256
12704499763
12704508430
12704516182
12704525215
12704531319
12704540718
12704546150
12704557564
12704562813
12704572273
12704579902
12704589912
12704595039
12704604561
12704611946
12704622139
12704629219
12704636421
12704642402
12704651191
12704659065
12704666267
12704672859
12704683418
12704689949
12704698860
12704704780
12704712348
12704720100
12704724800
12704735175
12704740363
12704752387
12704760383
12704766914
12704773505
12704782844
12704789741
12704797492
12704804267
12704814460
12704821784
12704829719
12704835761
12704843146
12704851386
12704858588
12704866401
12704875556
12704882270
12704888007
12704898139
12704904242
12704914435
12704920234
12704929633
12704935920
12704945990
12704953864
12704961188
12704969001
12704976386
12704982794
12704991950
12704999091
12705007941
12705014655
12705022772
12705031561
12705034491
12705046942
12705052008
12705060370
12705068915
12705077155
12705082770
12705091925
12705098334
12705106696
12705113531
12705122443
12705128790
12705136481
12705144903
12705147650
12705160223
12705165289
12705174872
12705180182
12705190741
12705199591
12705206549
12705213690
12705222174
12705228827
12705236517
12705243658
12705251837
12705258184
12705267034
12705273748
12705278631
12705291082
12705298590
12705305059
12705310186
12705320013
12705327642
12705335577
12705343023
12705352056
12705359319
12705365972
12705372015
12705380804
12705387457
12705396612
12705405706
12705412359
12705420599
12705428838
12705436101
12705441106
12705451299
12705460271
12705467657
12705475225
12705482976
12705490789
12705497503
12705502446
12705508916
12705514531
12705521673
12705525396
12705532537
12705538213
12705543523
12705548650
12705555791
12705559819
12705568120
12705572209
12705578496
12705582158
12705590032
12705595708
12705602178
12705607488
12705613164
12705618535
12705624639
12705629827
12705636907
12705643926
12705648930
12705653325
12705662114
12705666264
12705675725
12705682195
12705687871
12705694035
12705700383
12705705510
12705714543
12705720036
12705726201
12705730473
12705736821
12705741887
12705748051
12705754277
12705761174
12705765874
12705773137
12705778081
12705785710
12705790593
12705797001
12705801335
12705807194
12705812932
12705817082
12705824040
12705830510
12705837284
12705841801
12705848698
12705853215
12705863346
12705870732
12705877018
12705883000
12705888554
12705894474
12705900212
12705906071
12705912235
12705919743
12705925846
12705930729
12705938114
12705942997
12705949467
12705956364
12705958622
12705968205
12705972050
12705978947
12705984318
12705991886
12705998417
12706004215
12706009708
12706015629
12706021366
12706028141
12706032841
12706038639
12706044926
12706051700
12706058353
12706066471
12706071659
12706078861
12706084232
12706087833
12706097294
12706101200
12706109867
12706114139
12706122745
12706126896
12706134586
12706139896
12706145328
12706150943
12706158023
12706164859
12706172672
12706178653
12706184818
12706189579
12706195133
12706206973
12706211551
12706218692
12706224307
12706230350
12706236148
12706241153
12706247318
12706253726
12706258365
12706265201
12706270206
12706274783
12706282047
12706287173
12706295047
12706301334
12706306827
12706314029
12706321292
12706326785
12706333194
12706337588
12706340945
12706349246
12706355594
12706360477
12706366275
12706371341
12706376590
12706380435
12706385867
12706390872
12706393374
12706403567
12706411563
12706417727
12706425601
12706432925
12706439456
12706446109
12706455020
12706461673
12706466433
12706476809
12706481509
12706490603
12706495547
12706505374
12706510134
12706521426
12706530093
12706537234
12706543765
12706551272
12706558169
12706566836
12706574160
12706582766
12706590029
12706596377
12706602846
12706612246
12706618777
12706627627
12706633852
12706643130
12706652529
12706660830
12706667360
12706672304
12706683474
12706688479
12706697878
12706703432
12706712709
12706720339
12706728395
12706735964
12706745485
12706752993
12706759706
12706766115
12706774904
12706784365
12706792848
12706799074
12706805055
12706814272
12706823854
12706830324
12706835939
12706847292
12706852907
12706862123
12706869386
12706877138
12706884706
12706892152
12706898317
12706906740
12706916383
12706925416
12706932741
12706941102
12706947511
12706953370
12706962648
12706972719
12706979310
12706988771
12706995973
12707003907
12707011354
12707016969
12707026796
12707034974
12707042848
12707049440
12707059816
12707068421
12707076539
12707083436
12707090394
12707099854
12707107606
12707116639
12707126100
12707134095
12707136659
12707149049
12707153932
12707165284
12707173402
12707179749
12707184876
12707196595
12707202088
12707211488
12707218751
12707227479
12707235230
12707245362
12707252442
12707261963
12707269166
12707277222
12707283631
12707293702
12707300110
12707308716
12707317688
12707327637
12707334595
12707343506
12707351197
12707358521
12707364441
12707373474
12707379700
12707388062
12707395813
12707403626
12707409973
12707416748
12707426087
12707433289
12707441467
12707448731
12707456604
12707463074
12707471558
12707477844
12707486450
12707494629
12707500854
12707509094
12707518799
12707525391
12707533447
12707541260
12707545959
12707555786
12707560486
12707569641
12707577209
12707588318
12707593506
12707602661
12707609436
12707617248
12707625671
12707632385
12707638671
12707648498
12707655212
12707663757
12707672180
12707679504
12707685852
12707694763
12707702819
12707710876
12707719055
12707726257
12707732848
12707740905
12707748840
12707754516
12707763732
12707769408
12707779784
12707785217
12707797118
12707802611
12707814513
12707821044
12707831054
12707840697
12707845519
12707851439
12707859618
12707864440
12707871093
12707874816
12707884581
12707892760
12707898314
12707904113
12707910827
12707915587
12707922301
12707927672
12707932311
12707937255
12707945250
12707950438
12707955016
12707959960
12707963744
12707968993
12707974303
12707981810
12707986632
12707989928
12707997985
12708004149
12708008422
12708013304
12708019835
12708025511
12708032530
12708038146
12708043944
12708047362
12708054625
12708059752
12708064940
12708070311
12708078185
12708082396
12708088866
12708093626
12708099425
12708105528
12708110533
12708117308
12708123900
12708129271
12708135924
12708140318
12708146422
12708150816
12708156859
12708162535
12708168638
12708173338
12708177061
12708185667
12708189818
12708196104
12708199583
12708206907
12708213804
12708220274
12708226255
12708230406
12708235716
12708241087
12708246397
12708252012
12708257566
12708263670
12708269590
12708274168
12708280149
12708286558
12708292539
12708297666
12708305967
12708312559
12708317014
12708323423
12708328855
12708333311
12708340330
12708346128
12708351804
12708357664
12708364866
12708370054
12708375974
12708381467
12708387876
12708395017
12708402769
12708412595
12708417417
12708422727
12708429136
12708436582
12708443662
12708448179
12708457517
12708461484
12708470640
12708476804
12708482908
12708488828
12708494748
12708500852
12708508847
12708512815
12708518918
12708523801
12708530637
12708535459
12708541440
12708547544
12708553525
12708559262
12708565549
12708571408
12708575437
12708580197
12708586423
12708591794
12708598386
12708603818
12708609982
12708613461
12708620786
12708625180
12708630429
12708635922
12708643063
12708649045
12708653684
12708659116
12708665707
12708671933
12708677182
12708682065
12708690671
12708696042
12708702206
12708708310
12708715451
12708723569
12708730466
12708738217
12708747433
12708755734
12708763485
12708769528
12708778256
12708784604
12708792111
12708801205
12708806698
12708816464
12708823727
12708832089
12708838742
12708846859
12708853939
12708861691
12708867916
12708878170
12708884823
12708894222
12708900509
12708909298
12708915157
12708923214
12708931088
12708939816
12708948177
12708950924
12708962093
12708967770
12708977413
12708982174
12708991024
12708999142
12709007137
12709015621
12709025692
12709033382
12709042538
12709050655
12709059871
12709068172
12709077388
12709084896
12709092464
12709097774
12709110408
12709116329
12709126216
12709134334
12709143367
12709150569
12709158565
12709168148
12709174678
12709180904
12709189205
12709197688
12709208431
12709215328
12709223995
12709230647
12709239925
12709246761
12709255794
12709261714
12709271419
12709277888
12709285945
12709292171
12709301509
12709308833
12709315486
12709323848
12709331477
12709341792
12709349238
12709356685
12709362483
12709371272
12709377192
12709386775
12709392817
12709403132
12709409541
12709417476
12709425837
12709432917
12709440913
12709446955
12709455378
12709465022
12709473323
12709479548
12709488093
12709492610
12709502863
12709510981
12709517451
12709525263
12709534480
12709542475
12709549494
12709556757
12709565913
12709572504
12709579157
12709585261
12709596186
12709603449
12709611079
12709617060
12709626215
12709634089
12709642023
12709648554
12709658686
12709665583
12709673578
12709681818
12709687861
12709695368
12709702936
12709711054
12709721369
12709729181
12709736261
12709747858
12709753168
12709763666
12709771479
12709779047
12709784418
12709794245
12709801447
12709809747
12709816766
12709825311
12709832086
12709839533
12709848993
12709857660
12709864923
12709872247
12709881280
12709889276
12709895929
12709902887
12709909112
12709921380
12709927972
12709936151
12709943963
12709949945
12709957879
12709966668
12709975457
12709984185
12709992486
12709999444
12710007623
12710013665
12710021905
12710029901
12710038201
12710043634
12710055963
12710061578
12710070062
12710076898
12710086053
12710092706
12710099725
12710108941
12710118157
12710125787
12710135613
12710142144
12710149590
12710154046
12710159356
12710164117
12710171502
12710177239
12710183526
12710187066
12710194146
12710200249
12710205132
12710211114
12710218194
12710224419
12710229729
12710235100
12710240471
12710245293
12710249505
12710256402
12710260735
12710266594
12710270623
12710279473
12710285576
12710296868
12710305657
12710311272
12710317864
12710322747
12710329522
12710336907
12710343682
12710350212
12710356865
12710362908
12710368218
12710373162
12710379082
12710384392
12710389458
12710396111
12710404534
12710408440
12710415581
12710420708
12710428398
12710434258
12710440056
12710446098
12710453484
12710459038
12710465630
12710470757
12710476433
12710480888
12710486687
12710493339
12710499931
12710506462
12710512627
12710517570
12710524711
12710528435
12710534843
12710539543
12710548576
12710552727
12710559685
12710563530
12710569572
12710574760
12710580864
12710586357
12710593254
12710597343
12710606498
12710611503
12710619133
12710623344
12710631340
12710637870
12710646598
12710652824
12710657341
12710664482
12710672355
12710678703
12710684318
12710690788
12710696464
12710702567
12710707328
12710713554
12710718559
12710723930
12710730766
12710736442
12710743034
12710747550
12710751945
12710758414
12710762809
12710768119
12710773612
12710780753
12710785941
12710791312
12710796867
12710801688
12710807365
12710812308
12710816642
12710824088
12710829459
12710835807
12710841483
12710848807
12710855216
12710859977
12710867301
12710873771
12710878714
12710884879
12710889945
12710895865
12710901969
12710906668
12710911307
12710918937
12710925772
12710931266
12710935477
12710941825
12710947562
12710952994
12710957266
12710965445
12710970145
12710973502
12710982047
12710985343
12710992911
12710996390
12711004019
12711011160
12711019827
12711027152
12711035452
12711042044
12711049551
12711055777
12711063956
12711069998
12711081290
12711087820
12711095450
12711103262
12711111258
12711117117
12711121756
12711133780
12711142142
12711150747
12711158316
12711166189
12711171743
12711180471
12711185232
12711196402
12711201590
12711212393
12711217459
12711227529
12711234487
12711243032
12711249990
12711257376
12711265737
12711276480
12711284109
12711292532
12711299246
12711306326
12711315298
12711321951
12711331045
12711340688
12711347646
12711357412
12711363454
12711371328
12711379629
12711387319
12711393728
12711403554
12711412527
12711420217
12711426137
12711434987
12711441884
12711446889
12711459585
12711465200
12711477773
12711484792
12711493215
12711499379
12711507985
12711512624
12711522634
12711528127
12711538808
12711546620
12711553701
12711560231
12711569692
12711577199
12711584645
12711591603
12711601247
12711608266
12711615346
12711621571
12711630116
12711638722
12711645314
12711651234
12711661305
12711667653
12711676808
12711682729
12711687367
12711698659
12711706593
12711712575
12711720692
12711730580
12711737050
12711745411
12711749989
12711760121
12711768239
12711775746
12711782887
12711792714
12711800892
12711808888
12711816273
12711823048
12711829640
12711838185
12711845692
12711853688
12711863087
12711869129
12711877613
12711884510
12711891102
12711899220
12711907093
12711916981
12711923512
12711930958
12711939381
12711944813
12711953480
12711960865
12711969288
12711975147
12711985035
12711993397
12712001209
12712006031
12712015003
12712022022
12712030933
12712038074
12712047413
12712054493
12712062549
12712070118
12712077930
12712086658
12712092762
12712099414
12712110523
12712117298
12712126819
12712136341
12712143970
12712150440
12712158374
12712166614
12712174426
12712182971
12712190296
12712198596
12712206043
12712212085
12712219531
12712227771
12712232898
12712244678
12712249927
12712259204
12712266162
12712274219
12712280810
12712287402
12712296863
12712305102
12712312427
12712320300
12712326404
12712333972
12712342395
12712349353
12712357226
12712366687
12712373217
12712381640
12712388476
12712396045
12712404223
12712410022
12712419665
12712429614
12712436267
12712442675
12712447985
12712451892
12712457690
12712463183
12712468493
12712474780
12712479418
12712485278
12712491015
12712495165
12712500964
12712505724
12712514269
12712520556
12712525805
12712532153
12712535510
12712542468
12712547778
12712553637
12712557543
12712565295
12712569933
12712576891
12712583178
12712590380
12712594713
12712601000
12712610155
12712614428
12712620592
12712625109
12712629931
12712635668
12712640490
12712646349
12712653490
12712658251
12712663378
12712669787
12712675280
12712681688
12712686327
12712691881
12712698290
12712704699
12712711290
12712715929
12712722460
12712727220
12712732897
12712739122
12712746996
12712754015
12712760118
12712766527
12712772386
12712777574
12712785082
12712789598
12712796251
12712802782
12712809313
12712814684
12712819872
12712825060
12712830736
12712835497
12712842394
12712849168
12712853380
12712860338
12712865099
12712871141
12712874315
12712879991
12712887254
12712893480
12712899034
12712903306
12712909410
12712914903
12712919603
12712925340
12712930894
12712939256
12712944688
12712950548
12712955797
12712962693
12712967637
12712972947
12712978196
12712985704
12712991075
12713005540
12713010484
12713017991
12713024339
12713030564
12713034410
12713042344
12713046617
12713053697
12713058885
12713065721
12713072495
12713077867
12713082810
12713090745
12713095750
12713101731
12713106187
12713112473
12713118272
12713123948
12713128892
12713135484
12713142014
12713146348
12713153428
12713156968
12713163743
12713169846
12713176743
12713180833
12713187791
12713192918
12713199082
12713204148
12713211289
12713215989
12713222031
12713228806
12713233933
12713239304
12713246262
12713251816
12713258286
12713261582
12713268601
12713273545
12713282090
12713288437
12713293442
12713299851
12713309250
12713316391
12713323593
12713330307
12713341782
12713348984
12713355088
12713366867
12713374741
12713383347
12713392380
12713400681
12713411789
12713418930
12713427963
12713434250
12713442917
12713451157
12713458176
12713468002
12713475326
12713483810
12713491867
12713498215
12713506759
12713512619
12713519211
12713528244
12713535934
12713543686
12713551010
12713559555
12713566147
12713574936
12713582016
12713589767
12713595565
12713604232
12713613205
12713620285
12713627059
12713635055
12713642868
12713649276
12713657760
12713666305
12713674606
12713681320
12713689620
12713695175
12713705184
12713709823
12713719894
12713729171
12713737350
12713742538
12713751022
12713757796
12713767440
12713773971
12713780929
12713788375
12713798568
12713805709
12713813643
12713820968
12713827987
12713834090
12713842025
12713850509
12713860030
12713866744
12713872115
12713882918
12713890914
12713896956
12713904586
12713912520
12713918685
12713929549
12713935225
12713945235
12713950057
12713959761
12713964583
12713974593
12713982466
12713991255
12713998824
12714008040
12714014632
12714022017
12714028792
12714036604
12714046004
12714053023
12714062056
12714068709
12714074690
12714083296
12714091475
12714098128
12714105940
12714114363
12714122664
12714129622
12714139387
12714146834
12714154646
12714163557
12714173445
12714182417
12714190229
12714198591
12714205549
12714212934
12714219343
12714229780
12714236128
12714245832
12714252607
12714261762
12714267744
12714275800
12714283979
12714291364
12714299116
12714308271
12714316511
12714322736
12714330549
12714335432
12714345197
12714350568
12714359357
12714366376
12714376386
12714384016
12714390546
12714397260
12714405256
12714411298
12714419538
12714428632
12714437116
12714446454
12714453107
12714459211
12714467450
12714475568
12714483075
12714489179
12714499005
12714507245
12714513532
12714521772
12714526654
12714537030
12714541791
12714551557
12714560407
12714568158
12714575421
12714583661
12714590619
12714599469
12714606122
12714612225
12714621381
12714629376
12714635846
12714644330
12714650800
12714658673
12714666547
12714673199
12714681256
12714689862
12714698346
12714705304
12714713727
12714719403
12714729229
12714734784
12714740399
12714745892
12714750714
12714756756
12714761334
12714767193
12714773297
12714778729
12714784100
12714791363
12714796795
12714800946
12714805218
12714811749
12714815045
12714821331
12714827496
12714833966
12714837811
12714845684
12714851055
12714854840
12714860333
12714865765
12714872296
12714877056
12714883892
12714889568
12714894878
12714899883
12714909344
12714915813
12714922710
12714927837
12714935223
12714940472
12714946148
12714953045
12714959209
12714965313
12714972576
12714977154
12714982891
12714988628
12714993511
12714999492
12715003094
12715010479
12715017315
12715021953
12715027080
12715033123
12715038250
12715044292
12715050762
12715055950
12715063335
12715069744
12715075542
12715082012
12715086773
12715092205
12715096538
12715102764
12715109844
12715115581
12715120647
12715126750
12715131145
12715136821
12715143230
12715154582
12715164714
12715171306
12715178142
12715183330
12715188030
12715196574
12715202922
12715208415
12715212871
12715218913
12715224712
12715230022
12715236125
12715241008
12715247417
12715253276
12715259196
12715264201
12715271709
12715277202
12715284160
12715288493
12715295024
12715300822
12715305644
12715311320
12715319499
12715324626
12715328654
12715335002
12715340678
12715347026
12715350444
12715357463
12715363444
12715370890
12715376323
12715382853
12715387980
12715393290
12715398173
12715405375
12715409953
12715417155
12715422099
12715428752
12715433757
12715440470
12715445292
12715452067
12715457560
12715464518
12715470927
12715474406
12715482951
12715486796
12715494792
12715501322
12715507731
12715514811
12715521220
12715527384
12715533427
12715538004
12715544901
12715550455
12715557597
12715564921
12715571390
12715576212
12715582255
12715588358
12715593912
12715600138
12715604349
12715609781
12715614176
12715626322
12715633097
12715640909
12715647318
12715654459
12715658854
12715668314
12715673441
12715683695
12715692423
12715698160
12715705851
12715711893
12715720255
12715727213
12715734964
12715742716
12715750345
12715759622
12715766397
12715773782
12715780924
12715789346
12715795633
12715804788
12715811502
12715820596
12715826944
12715835123
12715841837
12715850565
12715856912
12715863931
12715874063
12715879007
12715889078
12715893838
12715902749
12715910379
12715917520
12715923929
12715933755
12715940347
12715949563
12715958108
12715964639
12715971292
12715980752
12715987649
12715996072
12716003640
12716009072
12716019387
12716026467
12716034097
12716041116
12716049722
12716058999
12716066689
12716073647
12716080239
12716086892
12716095376
12716103738
12716110085
12716118874
12716122170
12716134438
12716139443
12716148782
12716157571
12716165261
12716172280
12716180398
12716187722
12716195595
12716202981
12716209817
12716216347
12716225136
12716233376
12716240639
12716247719
12716256569
12716262856
12716267983
12716279518
12716284890
12716295021
12716302407
12716310341
12716318520
12716329201
12716336098
12716347634
12716355568
12716364418
12716371010
12716378822
12716388161
12716397255
12716405861
12716411964
12716421852
12716427040
12716437965
12716446022
12716453224
12716461037
12716469887
12716477211
12716484474
12716493690
12716500221
12716509437
12716516823
12716525184
12716532203
12716541542
12716550636
12716560279
12716565773
12716577064
12716582557
12716594276
12716603370
12716611915
12716618934
12716625648
12716635353
12716641761
12716648292
12716659278
12716666114
12716674049
12716682838
12716690284
12716699439
12716705665
12716715186
12716720313
12716730140
12716735023
12716745338
12716753089
12716759681
12716766456
12716775855
12716782508
12716789771
12716796363
12716804847
12716811500
12716819190
12716827491
12716834388
12716844092
12716850989
12716861182
12716871497
12716878699
12716887549
12716894385
12716903418
12716909583
12716918494
12716924842
12716934668
12716941016
12716949500
12716955481
12716965003
12716971472
12716980505
12716986426
12716992285
12717004797
12717011816
12717021521
12717030676
12717039099
12717046667
12717052893
12717063086
12717070532
12717078284
12717082800
12717090002
12717095251
12717101965
12717106054
12717116369
12717120031
12717128210
12717132055
12717138769
12717143530
12717149939
12717155310
12717162512
12717165564
12717173254
12717176428
12717183386
12717189245
12717194616
12717199987
12717205236
12717211584
12717217321
12717222998
12717227453
12717232946
12717238256
12717243994
12717249548
12717254980
12717259008
12717264807
12717269201
12717273718
12717279516
12717284460
12717291662
12717297216
12717301305
12717306066
12717313329
12717316686
12717324377
12717329870
12717335424
12717340551
12717346960
12717352087
12717359655
12717364721
12717370824
12717375829
12717383642
12717389196
12717395116
12717399572
12717405797
12717410680
12717416723
12717422460
12717429479
12717435705
12717437658
12717451574
12717456640
12717462865
12717467382
12717474523
12717482274
12717488439
12717492833
12717499852
12717503270
12717510228
12717517064
12717522374
12717528966
12717535680
12717540929
12717547154
12717550511
12717557530
12717560887
12717568273
12717574498
12717580663
12717582433
12717589940
12717594579
12717600072
12717605626
12717610020
12717618565
12717623997
12717631932
12717636998
12717643834
12717648411
12717654149
12717659093
12717672215
12717677525
12717684300
12717689793
12717696446
12717701817
12717708653
12717716221
12717723546
12717729893
12717735630
12717741063
12717747166
12717752049
12717758702
12717766697
12717772923
12717776646
12717783360
12717792027
12717798191
12717804356
12717809605
12717815037
12717821934
12717826878
12717831700
12717838108
12717843540
12717847569
12717853733
12717860630
12717867161
12717872349
12717877415
12717883152
12717887364
12717893406
12717902927
12717908054
12717913792
12717918797
12717924534
12717928928
12717934849
12717939976
12717947910
12717954624
12717963962
12717970920
12717980747
12717987278
12717996128
12718003269
12718010288
12718019443
12718027500
12718034885
12718044529
12718050571
12718058323
12718066013
12718073459
12718082553
12718088535
12718097202
12718105503
12718113193
12718119113
12718127963
12718133762
12718143527
12718152255
12718158298
12718166538
12718174472
12718180637
12718188998
12718195773
12718205051
12718212009
12718220248
12718226718
12718235019
12718241550
12718249667
12718256686
12718265475
12718270480
12718281405
12718289401
12718295016
12718301608
12718309848
12718316317
12718325168
12718334201
12718342501
12718351046
12718360324
12718368808
12718376010
12718388766
12718394686
12718407504
12718415255
12718423800
12718429171
12718439669
12718445284
12718455172
12718463229
12718473483
12718478854
12718487765
12718495394
12718503878
12718511629
12718518649
12718525118
12718533907
12718540926
12718548922
12718557467
12718564242
12718573458
12718581759
12718588717
12718598482
12718606112
12718611117
12718621187
12718629061
12718636141
12718644075
12718652864
12718660006
12718667391
12718674837
12718683138
12718689547
12718696688
12718706026
12718714449
12718720918
12718725801
12718736177
12718741243
12718750704
12718758760
12718765047
12718774385
12718781343
12718788606
12718797090
12718803682
12718811678
12718818330
12718827425
12718834138
12718843599
12718850557
12718855501
12718865938
12718874788
12718883150
12718889436
12718897310
12718904512
12718913118
12718923127
12718934053
12718943635
12718951692
12718958345
12718967561
12718974031
12718984101
12718990937
12719000276
12719006196
12719014924
12719020844
12719029939
12719035859
12719045258
12719053620
12719061616
12719068086
12719074616
12719083344
12719090791
12719098908
12719106416
12719115327
12719122712
12719130952
12719137665
12719145844
12719152863
12719159516
12719168549
12719176972
12719183503
12719192170
12719200409
12719206757
12719215302
12719221955
12719230683
12719240204
12719247040
12719255951
12719262299
12719271088
12719277436
12719284577
12719292389
12719299897
12719309601
12719316864
12719324555
12719331207
12719338654
12719347077
12719354523
12719360809
12719371491
12719378510
12719384674
12719389923
12719396271
12719401520
12719408661
12719414398
12719420319
12719425690
12719431610
12719436737
12719443268
12719450043
12719457367
12719462311
12719470428
12719476776
12719481903
12719488800
12719494110
12719499725
12719505096
12719511749
12719518402
12719523651
12719529937
12719536041
12719540435
12719545013
12719552154
12719559112
12719562286
12719569488
12719572540
12719579071
12719582000
12719588958
12719592742
12719600067
12719606964
12719612701
12719617340
12719623504
12719629119
12719635772
12719645904
12719651214
12719657501
12719662444
12719668609
12719675201
12719680694
12719685455
12719693633
12719698577
12719704192
12719708587
12719714263
12719719024
12719725066
12719730865
12719738128
12719743987
12719749358
12719755401
12719760100
12719765716
12719771880
12719776031
12719783172
12719789153
12719795440
12719800200
12719806060
12719812041
12719816741
12719821074
12719833526
12719837493
12719846648
12719851043
12719859160
12719864653
12719871306
12719878081
12719885039
12719890654
12719898223
12719904021
12719910674
12719915434
12719921416
12719926299
12719933440
12719938567
12719943755
12719948332
12719953337
12719959013
12719964385
12719969878
12719977507
12719982817
12719987578
12719992461
12719998869
12720004607
12720009611
12720015288
12720022673
12720027556
12720032927
12720040678
12720044218
12720051298
12720057036
12720061857
12720067351
12720074064
12720079374
12720085234
12720090605
12720096769
12720101713
12720108000
12720114103
12720119597
12720126921
12720132353
12720136686
12720142057
12720148466
12720155302
12720159636
12720167509
12720172026
12720178312
12720184660
12720188017
12720195158
12720200895
12720207365
12720211088
12720218656
12720222257
12720229276
12720235502
12720244108
12720252043
12720261808
12720269804
12720278593
12720285917
12720293302
12720303373
12720312040
12720320402
12720327299
12720336637
12720345548
12720353178
12720361417
12720367277
12720376188
12720382902
12720392118
12720400602
12720408780
12720417508
12720423856
12720431791
12720439664
12720447965
12720454984
12720461576
12720467130
12720477811
12720485807
12720494046
12720498868
12720507840
12720515164
12720523526
12720533170
12720540982
12720548367
12720556241
12720562283
12720571439
12720580594
12720587979
12720594144
12720602811
12720608914
12720616421
12720624966
12720630887
12720639310
12720644070
12720654202
12720662442
12720671536
12720680020
12720688199
12720693142
12720703274
12720707913
12720716702
12720724453
12720734341
12720741665
12720750515
12720757534
12720765042
12720773465
12720780423
12720786343
12720796047
12720802822
12720812588
12720819058
12720824490
12720833767
12720838467
12720849392
12720855068
12720867580
12720873562
12720882107
12720889736
12720898220
12720904812
12720913052
12720920864
12720930569
12720937954
12720945583
12720954433
12720960903
12720966884
12720976345
12720982937
12720993496
12721000698
12721007106
12721016262
12721023525
12721029567
12721038173
12721044094
12721055446
12721061855
12721067653
12721077602
12721083705
12721092311
12721100307
12721106288
12721113552
12721123256
12721128749
12721139064
12721143947
12721154689
12721161220
12721169032
12721176479
12721184840
12721191798
12721199672
12721206447
12721213832
12721222316
12721228480
12721236476
12721245021
12721251491
12721259303
12721267665
12721275538
12721283229
12721290309
12721296779
12721306605
12721314967
12721320521
12721330836
12721339320
12721346705
12721353419
12721361415
12721369471
12721379786
12721385157
12721393763
12721401148
12721408961
12721417750
12721423853
12721433131
12721442713
12721449305
12721457362
12721465174
12721472620
12721478785
12721483912
12721494105
12721503870
12721512293
12721517908
12721527491
12721532374
12721542078
12721549647
12721557398
12721562769
12721572718
12721580225
12721588587
12721595057
12721603418
12721610254
12721619165
12721625330
12721635889
12721643030
12721650110
12721658533
12721666223
12721674280
12721679224
12721684778
12721690515
12721697229
12721702661
12721707239
12721713220
12721717859
12721723169
12721728540
12721735010
12721738489
12721745508
12721748316
12721755335
12721761377
12721768152
12721778040
12721785974
12721798608
12721809106
12721815942
12721827478
12721836389
12721847864
12721859460
12721869714
12721878015
12721885522
12721894128
12721902246
12721913110
12721922143
12721931787
12721940149
12721947351
12721954248
12721961755
12721969873
12721977990
12721986535
12721994653
12722002831
12722009362
12722017968
12722024682
12722034081
12722043603
12722049645
12722061425
12722069848
12722078027
12722089867
12722097497
12722107140
12722112756
12722123925
12722130273
12722140832
12722148156
12722157982
12722166710
12722174462
12722181786
12722189660
12722198632
12722205285
12722214013
12722220726
12722229515
12722236779
12722246666
12722253075
12722261681
12722270714
12722280297
12722288903
12722296166
12722304894
12722312218
12722324181
12722329796
12722341026
12722351585
12722361290
12722370506
12722378014
12722390221
12722400352
12722409813
12722417747
12722424583
12722435814
12722442894
12722451683
12722465660
12722476463
12722483604
12722493065
12722500511
12722510032
12722519066
12722526695
12722536460
12722543724
12722551414
12722560569
12722567466
12722576194
12722585533
12722596153
12722602500
12722609825
12722615501
12722625083
12722629539
12722640830
12722643699
12722656089
12722664634
12722670249
12722678733
12722686790
12722693015
12722702109
12722708396
12722714744
12722724998
12722733115
12722741294
12722748618
12722756614
12722763206
12722772239
12722779746
12722789267
12722797019
12722803855
12722810996
12722820823
12722828025
12722834555
12722843650
12722851157
12722859580
12722867636
12722875083
12722883750
12722890708
12722899802
12722905722
12722914328
12722920554
12722928793
12722937949
12722945944
12722952902
12722963156
12722969748
12722978964
12722985495
12722993735
12723000449
12723009360
12723016074
12723025412
12723033346
12723043356
12723048544
