12483428613
12483434961
12483439783
12483447595
12483452600
12483458276
12483463525
12483468225
12483474267
12483479150
12483483789
12483489282
12483494470
12483499353
12483503564
12483508569
12483512780
12483517541
12483523278
12483529016
12483534753
12483540551
12483546899
12483555017
12483565270
12483572778
12483580468
12483587792
12483595483
12483600854
12483608544
12483615624
12483623132
12483630151
12483637841
12483644738
12483650475
12483659692
12483666039
12483672936
12483679955
12483686913
12483693505
12483699975
12483706505
12483717065
12483722436
12483728966
12483734093
12483740868
12483747765
12483754052
12483759484
12483766198
12483771508
12483777245
12483784325
12483790184
12483795556
12483801049
12483808251
12483814110
12483820275
12483825585
12483831749
12483837792
12483842125
12483849327
12483856041
12483861840
12483866905
12483874474
12483879479
12483887718
12483895104
12483903038
12483908470
12483916161
12483921410
12483927696
12483935753
12483943260
12483948692
12483958641
12483965904
12483972984
12483979332
12483986717
12483993187
12483999962
12484006554
12484012413
12484019981
12484023155
12484032615
12484038231
12484044395
12484050316
12484058555
12484064659
12484070518
12484076744
12484084617
12484089744
12484097679
12484103965
12484109825
12484115989
12484123252
12484130760
12484137046
12484145347
12484150047
12484158958
12484164939
12484171836
12484178428
12484185020
12484192161
12484198692
12484204856
12484213157
12484218162
12484226646
12484233665
12484239768
12484246116
12484253135
12484259299
12484268760
12484273948
12484280967
12484288535
12484293479
12484299827
12484306785
12484311606
12484318809
12484324424
12484331748
12484338645
12484343528
12484350608
12484356955
12484363913
12484371482
12484377768
12484383628
12484389609
12484394370
12484402915
12484408103
12484414206
12484421225
12484427329
12484433188
12484440634
12484445517
12484453086
12484458396
12484466696
12484471640
12484479148
12484484397
12484492026
12484497885
12484503378
12484508994
12484517111
12484523032
12484530173
12484535971
12484544211
12484551413
12484558432
12484565756
12484572409
12484578207
12484587057
12484593527
12484601279
12484607199
12484614584
12484620749
12484631491
12484637045
12484645285
12484650412
12484659140
12484665060
12484672751
12484680624
12484687399
12484693991
12484700705
12484708395
12484715597
12484721640
12484728964
12484734823
12484742636
12484751852
12484759115
12484765646
12484773153
12484779257
12484787679
12484796102
12484803427
12484810201
12484817526
12484825399
12484832723
12484839742
12484848409
12484855611
12484863851
12484875631
12484883565
12484892599
12484900533
12484908773
12484917440
12484923971
12484933431
12484939718
12484946737
12484953756
12484960470
12484967489
12484973531
12484978597
12484983724
12484988668
12484992940
12484997762
12485002950
12485007528
12485012654
12485015523
12485025106
12485030660
12485036763
12485042195
12485046285
12485051839
12485058187
12485062398
12485066854
12485073323
12485079244
12485083699
12485088399
12485094441
12485099324
12485104512
12485109578
12485115559
12485119771
12485125935
12485130208
12485137471
12485142049
12485147908
12485152547
12485157552
12485163960
12485169209
12485174641
12485179219
12485186604
12485189839
12485196614
12485201680
12485208028
12485213032
12485218892
12485224324
12485230672
12485234883
12485241536
12485247395
12485251301
12485258076
12485263936
12485268452
12485274800
12485279561
12485285786
12485290730
12485295186
12485300984
12485307270
12485313069
12485318562
12485323994
12485328266
12485334492
12485338764
12485344624
12485351765
12485357014
12485361775
12485367451
12485373799
12485378559
12485383320
12485388203
12485394489
12485399128
12485405354
12485411152
12485416584
12485421406
12485427570
12485432880
12485438252
12485445332
12485451435
12485456318
12485464008
12485469440
12485473835
12485481159
12485485432
12485493732
12485497394
12485504902
12485511982
12485518085
12485522846
12485526447
12485532856
12485538898
12485542988
12485548298
12485553241
12485558429
12485563190
12485567707
12485572406
12485579609
12485584430
12485589862
12485595783
12485600116
12485604511
12485610370
12485615131
12485620197
12485625507
12485630390
12485635028
12485639972
12485645099
12485649921
12485655658
12485661334
12485665790
12485670734
12485675922
12485681293
12485687580
12485693195
12485696430
12485704120
12485709979
12485716022
12485720966
12485725116
12485731525
12485735431
12485742450
12485746417
12485752704
12485758075
12485765399
12485770221
12485775775
12485781634
12485787006
12485792071
12485798968
12485807574
12485815387
12485823443
12485828387
12485837787
12485843524
12485853167
12485860125
12485870013
12485876605
12485883685
12485890704
12485898761
12485907244
12485914996
12485923114
12485928851
12485935931
12485946307
12485952288
12485962115
12485968341
12485976214
12485983477
12485992571
12486001666
12486007891
12486015093
12486023333
12486030840
12486038470
12486046893
12486055071
12486060931
12486070757
12486079180
12486086687
12486092425
12486100664
12486106951
12486119890
12486130572
12486142473
12486148882
12486158526
12486165545
12486175982
12486182756
12486192827
12486200518
12486207598
12486216753
12486222429
12486232866
12486239519
12486247393
12486255083
12486263384
12486270525
12486278581
12486287065
12486294878
12486301347
12486307817
12486317339
12486324419
12486333452
12486340532
12486347551
12486354265
12486364336
12486370256
12486378130
12486382341
12486393877
12486402971
12486409013
12486415300
12486425126
12486431474
12486440690
12486447038
12486455278
12486465532
12486472001
12486481096
12486487443
12486496965
12486503556
12486510759
12486518388
12486527055
12486535112
12486543107
12486547319
12486557756
12486566361
12486571366
12486580461
12486589555
12486597245
12486604691
12486612260
12486618546
12486628312
12486633866
12486642228
12486650468
12486658829
12486666642
12486675675
12486682328
12486688920
12486699418
12486707657
12486715348
12486721573
12486730546
12486739701
12486745987
12486753922
12486762284
12486768754
12486779190
12486785477
12486791764
12486802079
12486809586
12486819901
12486829056
12486835892
12486842301
12486851395
12486858780
12486867264
12486876297
12486884964
12486891861
12486899002
12486909317
12486917740
12486925369
12486933487
12486940811
12486949112
12486957291
12486964615
12486976883
12486984512
12486992630
12486999954
12487010818
12487019180
12487026687
12487035232
12487043106
12487051468
12487059951
12487066971
12487075088
12487081497
12487090469
12487100357
12487108230
12487115005
12487123916
12487130203
12487139419
12487146133
12487154128
12487163589
12487170242
12487177566
12487184524
12487192336
12487199966
12487209609
12487215347
12487224929
12487231582
12487239455
12487247817
12487253616
12487260268
12487267776
12487273025
12487279616
12487284438
12487291640
12487296950
12487302993
12487307326
12487313186
12487318618
12487324599
12487328689
12487333022
12487339919
12487345290
12487349990
12487354934
12487360732
12487366286
12487371291
12487374953
12487379714
12487384230
12487389357
12487394606
12487400649
12487404799
12487409499
12487414138
12487419570
12487424575
12487430251
12487435134
12487438246
12487443251
12487448561
12487453200
12487458693
12487465407
12487469008
12487474013
12487478713
12487484816
12487489394
12487494704
12487499403
12487504286
12487509352
12487515395
12487519545
12487524794
12487529738
12487536269
12487541090
12487545424
12487551466
12487557448
12487562880
12487569411
12487574538
12487579359
12487584547
12487593764
12487600905
12487606703
12487613234
12487618056
12487627028
12487628859
12487639479
12487644728
12487651808
12487655470
12487665052
12487671095
12487676771
12487685255
12487691298
12487695814
12487701185
12487707289
12487712965
12487718397
12487724867
12487731825
12487738356
12487742994
12487748426
12487754896
12487760328
12487764601
12487771681
12487776808
12487781996
12487786329
12487793653
12487797682
12487805616
12487809522
12487817762
12487822889
12487829237
12487834486
12487840589
12487846143
12487852308
12487857252
12487863477
12487870191
12487875989
12487881177
12487886793
12487892347
12487898389
12487901441
12487909192
12487916150
12487922010
12487928357
12487934949
12487938245
12487946180
12487950879
12487956128
12487962171
12487969617
12487974134
12487981336
12487986829
12487990430
12487996534
12488001661
12488007520
12488015088
12488020398
12488025952
12488030896
12488036267
12488041577
12488044690
12488052747
12488057752
12488063733
12488069592
12488073804
12488078320
12488085462
12488089612
12488096326
12488102368
12488109570
12488115857
12488124951
12488131482
12488138745
12488148328
12488158765
12488166882
12488177624
12488185193
12488197705
12488206677
12488216321
12488227185
12488237927
12488249890
12488260327
12488273632
12488281445
12488292858
12488306408
12488317578
12488327832
12488339733
12488352612
12488363110
12488374951
12488390148
12488395886
12488413097
12488420055
12488431896
12488443737
12488454479
12488463695
12488473766
12488487072
12488497021
12488506969
12488518200
12488525463
12488537853
12488547619
12488559032
12488567638
12488580944
12488589977
12488599498
12488608287
12488618724
12488627880
12488639293
12488648693
12488659984
12488670238
12488677562
12488688365
12488695567
12488707469
12488717296
12488724254
12488737498
12488744640
12488755443
12488764842
12488776134
12488786571
12488798167
12488807994
12488814769
12488826487
12488833384
12488844737
12488860850
12488870250
12488882029
12488890391
12488904002
12488914195
12488923472
12488935679
12488946238
12488955943
12488966441
12488977244
12488988902
12488999888
12489010447
12489021067
12489033701
12489050181
12489057871
12489070139
12489082407
12489092051
12489101755
12489113840
12489123789
12489134775
12489143198
12489154062
12489166391
12489175974
12489185251
12489199961
12489207224
12489219736
12489230417
12489238474
12489250009
12489258920
12489272409
12489279489
12489292062
12489301950
12489314340
12489325815
12489337106
12489346262
12489355905
12489365427
12489378122
12489385751
12489397104
12489408029
12489416574
12489426156
12489436410
12489447458
12489455392
12489467172
12489478219
12489489633
12489495919
12489508737
12489519723
12489528207
12489539743
12489550241
12489559884
12489575265
12489583749
12489594064
12489604989
12489616341
12489628426
12489636544
12489648263
12489657601
12489671456
12489681527
12489686654
12489699471
12489709237
12489717904
12489722359
12489732552
12489738656
12489748116
12489753975
12489763375
12489769417
12489778084
12489784188
12489791268
12489800667
12489807564
12489816536
12489822518
12489831307
12489837288
12489845833
12489852425
12489861031
12489868904
12489874825
12489881783
12489889717
12489894966
12489903023
12489910103
12489917122
12489924385
12489931709
12489939278
12489945991
12489952034
12489960396
12489967537
12489973091
12489978218
12489982735
12489988167
12489993538
12489998848
12490004097
12490009529
12490013923
12490018501
12490025764
12490030586
12490037422
12490043525
12490049934
12490053352
12490061775
12490069404
12490073799
12490079536
12490083503
12490087776
12490095649
12490100471
12490104560
12490112312
12490118598
12490123115
12490127510
12490133796
12490138740
12490145088
12490150398
12490156379
12490163337
12490167976
12490174873
12490181159
12490185920
12490192878
12490199714
12490204414
12490211555
12490216804
12490223212
12490227912
12490234199
12490240119
12490245185
12490249885
12490256415
12490263068
12490269660
12490275764
12490280646
12490287482
12490292731
12490300788
12490306037
12490315497
12490321052
12490326606
12490332160
12490338202
12490343268
12490348700
12490354255
12490360541
12490366156
12490370063
12490375678
12490380439
12490385932
12490392157
12490399726
12490404853
12490410529
12490414862
12490421027
12490425238
12490430792
12490433478
12490442267
12490448432
12490453864
12490458808
12490464179
12490469794
12490475165
12490480170
12490486090
12490494391
12490498969
12490506232
12490512396
12490517096
12490523016
12490527838
12490532233
12490539984
12490544257
12490551337
12490558050
12490562628
12490567450
12490574469
12490579840
12490585699
12490591009
12490597357
12490602911
12490608648
12490612982
12490619513
12490625860
12490632757
12490636725
12490643805
12490647162
12490660101
12490664740
12490671026
12490675604
12490680792
12490688604
12490693243
12490698492
12490704840
12490710943
12490716375
12490721563
12490726263
12490732794
12490737005
12490743902
12490752020
12490756658
12490762762
12490769354
12490774725
12490780462
12490787908
12490792913
12490799932
12490805120
12490810613
12490817205
12490822576
12490829107
12490834844
12490841741
12490849920
12490856695
12490864751
12490871221
12490881109
12490888799
12490896673
12490907049
12490914251
12490922429
12490935735
12490944829
12490954168
12490962896
12490969670
12490977971
12490990544
12490998296
12491006597
12491013433
12491021428
12491028020
12491037297
12491043950
12491052739
12491059392
12491070012
12491076482
12491083257
12491092900
12491100163
12491107610
12491115971
12491123845
12491130803
12491139104
12491146855
12491154973
12491162358
12491170598
12491178349
12491188542
12491195317
12491204289
12491210698
12491218327
12491227726
12491234318
12491241765
12491248906
12491259221
12491265629
12491273930
12491281498
12491289860
12491297001
12491305302
12491314884
12491322880
12491327152
12491338322
12491346806
12491352055
12491361759
12491367985
12491377628
12491386845
12491393192
12491400822
12491408329
12491415409
12491423527
12491431644
12491439640
12491447514
12491453434
12491459415
12491468143
12491474064
12491483402
12491489261
12491495243
12491504154
12491510990
12491520328
12491526798
12491536441
12491545231
12491552005
12491560794
12491570377
12491577945
12491586124
12491594791
12491601322
12491611392
12491618045
12491627811
12491634464
12491642276
12491652408
12491659122
12491668521
12491678409
12491685306
12491693546
12491701114
12491707034
12491715213
12491722476
12491734134
12491741824
12491753238
12491766116
12491796023
12491808169
12491819644
12491829776
12491837710
12491845889
12491854983
12491862490
12491869815
12491877566
12491884829
12491892398
12491899173
12491906985
12491915225
12491920962
12491928103
12491935488
12491942446
12491949648
12491955325
12491963809
12491970095
12491977908
12491984316
12491989932
12491998599
12492006411
12492010317
12492019167
12492025881
12492036684
12492048647
12492058108
12492065554
12492074038
12492079409
12492087099
12492094607
12492100771
12492108645
12492115664
12492122805
12492130312
12492138552
12492145266
12492151430
12492158144
12492163942
12492172914
12492179689
12492188356
12492195192
12492200624
12492207033
12492218874
12492226991
12492239931
12492247560
12492259889
12492267397
12492275758
12492281923
12492288271
12492294069
12492300478
12492307497
12492314027
12492318788
12492323610
12492327272
12492332460
12492336244
12492340456
12492345033
12492349733
12492355470
12492360353
12492364564
12492370912
12492374940
12492381471
12492385805
12492391542
12492397462
12492403138
12492407350
12492413575
12492418519
12492422548
12492429750
12492436647
12492442079
12492448549
12492457826
12492463746
12492468385
12492475465
12492480897
12492486756
12492491395
12492496339
12492499757
12492504457
12492508302
12492513307
12492517457
12492522462
12492526856
12492531129
12492535523
12492540650
12492545838
12492549867
12492555482
12492561158
12492566163
12492570802
12492575623
12492579591
12492586060
12492590516
12492595033
12492600098
12492604615
12492608216
12492612855
12492618226
12492623231
12492628846
12492633912
12492639100
12492643555
12492647095
12492651185
12492656373
12492660706
12492666443
12492671387
12492678101
12492682007
12492687012
12492697327
12492702027
12492706849
12492711670
12492717103
12492721863
12492727112
12492733033
12492739380
12492744873
12492750428
12492758301
12492763123
12492769348
12492774842
12492780030
12492788208
12492793518
12492801270
12492807251
12492812622
12492817993
12492823670
12492828613
12492834229
12492837647
12492845154
12492850464
12492854920
12492861328
12492867798
12492872864
12492877747
12492883545
12492889404
12492895386
12492897156
12492909851
12492917236
12492923584
12492930420
12492936890
12492942444
12492948242
12492953491
12492958740
12492964599
12492971618
12492977600
12492981323
12492989685
12492995727
12493003784
12493009765
12493016601
12493022339
12493029052
12493034546
12493038452
12493043640
12493049560
12493055175
12493060913
12493066711
12493070800
12493075805
12493081848
12493085754
12493092956
12493099426
12493106079
12493112304
12493121154
12493127563
12493134277
12493141357
12493147704
12493153747
12493161193
12493167968
12493175231
12493182189
12493189391
12493196471
12493203735
12493207641
12493216247
12493222350
12493230773
12493236877
12493242736
12493252379
12493258422
12493266601
12493272277
12493280761
12493286620
12493295775
12493301269
12493310607
12493317199
12493324706
12493330138
12493338317
12493347472
12493353331
12493361571
12493367919
12493376220
12493385192
12493391295
12493398558
12493407897
12493413390
12493422667
12493428832
12493435912
12493444274
12493451903
12493459593
12493467162
12493474303
12493480162
12493486693
12493496764
12493502013
12493511656
12493517699
12493526793
12493533812
12493541014
12493548094
12493556761
12493564512
12493569884
12493578123
12493585081
12493593260
12493599486
12493607603
12493614805
12493623045
12493629942
12493638426
12493645018
12493650816
12493660398
12493667295
12493674620
12493682920
12493693846
12493701109
12493709104
12493715269
12493726438
12493735960
12493743894
12493745908
12493761778
12493770994
12493781065
12493787595
12493796690
12493803465
12493811155
12493819578
12493829465
12493835630
12493844846
12493852720
12493860105
12493866880
12493874753
12493883298
12493890806
12493898496
12493907651
12493914792
12493921933
12493929868
12493937497
12493945859
12493954038
12493961362
12493969419
12493973508
12493984189
12493992368
12494000485
12494009458
12494017697
12494026120
12494034360
12494041684
12494049558
12494056638
12494065488
12494072446
12494082455
12494090207
12494098874
12494106259
12494114438
12494122250
12494128476
12494136471
12494144101
12494152646
12494161923
12494169613
12494177426
12494183590
12494192074
12494200192
12494207089
12494215024
12494224362
12494230343
12494239560
12494246518
12494254147
12494263241
12494270932
12494277767
12494286984
12494295529
12494304135
12494311581
12494318356
12494328732
12494335140
12494345211
12494353329
12494361141
12494367977
12494377255
12494385311
12494393795
12494400753
12494409969
12494416744
12494424190
12494434688
12494441707
12494449581
12494458187
12494466732
12494474972
12494484859
12494492611
12494498592
12494505306
12494516048
12494522579
12494532039
12494537227
12494543758
12494549800
12494555965
12494562252
12494570980
12494575191
12494583919
12494589229
12494596065
12494601375
12494608211
12494612544
12494619258
12494623226
12494629085
12494633418
12494639461
12494642940
12494650020
12494655086
12494661983
12494665767
12494671748
12494676387
12494681514
12494685847
12494691890
12494697810
12494703731
12494708553
12494714229
12494720454
12494724605
12494730830
12494736873
12494742671
12494748042
12494753047
12494757381
12494763362
12494768977
12494774409
12494780391
12494784419
12494790278
12494795833
12494801875
12494808284
12494812922
12494818049
12494824458
12494828608
12494835872
12494840998
12494847407
12494852717
12494857661
12494862727
12494868098
12494873774
12494880061
12494886164
12494890925
12494897212
12494902705
12494907160
12494913142
12494918147
12494923640
12494931086
12494936335
12494940791
12494945918
12494952754
12494956172
12494963130
12494968562
12494974848
12494979975
12494985529
12494992121
12494997980
12495002741
12495008417
12495013300
12495018427
12495026423
12495033198
12495039057
12495044611
12495050471
12495056818
12495062861
12495069330
12495076471
12495082209
12495087275
12495093378
12495098505
12495104548
12495107966
12495119440
12495125788
12495132319
12495138178
12495143732
12495149286
12495155451
12495160944
12495168695
12495173578
12495179010
12495185419
12495189936
12495195246
12495200617
12495205499
12495210932
12495216181
12495222345
12495225031
12495231500
12495237909
12495243341
12495248102
12495253290
12495256281
12495262750
12495266718
12495273615
12495277948
12495284113
12495289545
12495293939
12495300836
12495307489
12495312067
12495317071
12495323297
12495328424
12495333917
12495339654
12495344903
12495349481
12495354791
12495361200
12495366876
12495369684
12495376703
12495382867
12495392450
12495399347
12495408075
12495414605
12495423394
12495432855
12495439813
12495449090
12495457086
12495464837
12495473016
12495480157
12495486932
12495494866
12495498956
12495510064
12495518792
12495527093
12495534295
12495542108
12495548943
12495558038
12495564263
12495572198
12495579644
12495587701
12495597955
12495606011
12495613030
12495619317
12495627434
12495635735
12495643914
12495652642
12495660821
12495668694
12495677483
12495685051
12495694329
12495703240
12495711846
12495719964
12495726311
12495738762
12495745232
12495753167
12495761772
12495772026
12495781975
12495789604
12495799065
12495806694
12495815605
12495823906
12495830864
12495841545
12495848198
12495858025
12495866386
12495873772
12495881523
12495891899
12495897942
12495907951
12495916679
12495925285
12495932426
12495940666
12495947990
12495957817
12495959892
12495972954
12495979606
12495988273
12495992485
12496005912
12496014213
12496022148
12496026542
12496036247
12496043144
12496052421
12496060722
12496068534
12496076957
12496082023
12496091423
12496099296
12496106925
12496116142
12496123771
12496130729
12496140617
12496146781
12496156730
12496163017
12496171439
12496178764
12496186637
12496193046
12496201652
12496208671
12496218742
12496225028
12496233451
12496243339
12496250541
12496257621
12496264274
12496274405
12496282157
12496289359
12496295646
12496304129
12496313102
12496321158
12496329032
12496335196
12496346915
12496355094
12496361258
12496369254
12496377494
12496385916
12496392081
12496399527
12496409476
12496416068
12496423209
12496430899
12496439505
12496448294
12496456290
12496463858
12496472464
12496480338
12496488211
12496494498
12496502982
12496509207
12496518423
12496526907
12496533438
12496543448
12496552481
12496558951
12496565909
12496575674
12496582510
12496592215
12496599600
12496607657
12496617971
12496625540
12496631643
12496639639
12496647512
12496655813
12496663748
12496672720
12496681753
12496688955
12496696340
12496711111
12496719717
12496728750
12496736501
12496745046
12496752371
12496763235
12496770315
12496780386
12496787283
12496793203
12496802785
12496809682
12496819936
12496826833
12496833974
12496841848
12496848989
12496854848
12496864431
12496867422
12496874318
12496879934
12496883779
12496889760
12496895437
12496900136
12496906240
12496910573
12496916127
12496923207
12496929250
12496934743
12496939748
12496945974
12496950490
12496955434
12496961476
12496967580
12496972463
12496978017
12496983815
12496989125
12496994313
12497000051
12497004445
12497009816
12497017934
12497023244
12497027150
12497032826
12497038991
12497044484
12497049245
12497053822
12497059865
12497066579
12497072072
12497076833
12497082326
12497087331
12497093007
12497097218
12497103261
12497111256
12497119191
12497123036
12497131886
12497136891
12497144154
12497152577
12497159718
12497164967
12497169850
12497174672
12497179860
12497184254
12497189442
12497194081
12497199208
12497203785
12497208912
12497213795
12497218312
12497222523
12497227406
12497231251
12497236927
12497241261
12497246449
12497251026
12497255970
12497259877
12497266468
12497270008
12497275013
12497278858
12497283619
12497288868
12497294544
12497298390
12497305714
12497310475
12497316456
12497322621
12497327503
12497332386
12497337269
12497342274
12497347035
12497352039
12497358875
12497363758
12497368092
12497373219
12497377186
12497381397
12497385303
12497389027
12497396046
12497400318
12497404835
12497408375
12497413685
12497418629
12497422596
12497426258
12497431934
12497436939
12497441822
12497446644
12497451893
12497456287
12497461414
12497465870
12497471485
12497477955
12497481922
12497487537
12497492176
12497497791
12497502613
12497507740
12497513599
12497519886
12497525196
12497529468
12497534839
12497538623
12497544361
12497548755
12497554676
12497559558
12497564075
12497570606
12497575733
12497579578
12497585193
12497590198
12497594654
12497600757
12497604236
12497609973
12497614002
12497619922
12497624622
12497629688
12497634754
12497641406
12497648425
12497656116
12497660449
12497670093
12497676318
12497682483
12497691150
12497697803
12497705127
12497713489
12497720935
12497727527
12497735583
12497743213
12497749377
12497757617
12497763782
12497772387
12497778613
12497785388
12497799426
12497805590
12497813769
12497820422
12497826648
12497834033
12497843127
12497850451
12497856005
12497863940
12497871508
12497879321
12497885546
12497893908
12497903308
12497912890
12497919543
12497927477
12497934374
12497941149
12497951952
12497958422
12497968066
12497975634
12497983385
12497992297
12497999438
12498006457
12498013903
12498022326
12498031176
12498038500
12498046251
12498052904
12498059252
12498068529
12498074328
12498080675
12498088366
12498097765
12498105883
12498111925
12498119005
12498126696
12498134935
12498142076
12498149279
12498157091
12498163256
12498171434
12498178148
12498186266
12498193468
12498201402
12498207506
12498215746
12498222704
12498229295
12498238390
12498244066
12498250902
12498258714
12498266649
12498273851
12498279832
12498287706
12498296190
12498303453
12498310960
12498317674
12498323350
12498333421
12498338853
12498348314
12498357225
12498363023
12498370286
12498377549
12498385179
12498392442
12498398912
12498406541
12498413133
12498422837
12498427781
12498437547
12498443833
12498451036
12498458299
12498466233
12498474168
12498482102
12498490586
12498496324
12498502122
12498511094
12498518784
12498526170
12498534593
12498539658
12498547959
12498554124
12498563035
12498570420
12498577073
12498583665
12498592210
12498601731
12498608933
12498614487
12498627244
12498633835
12498643296
12498651780
12498660325
12498667527
12498675217
12498681931
12498690171
12498694870
12498706101
12498713059
12498725388
12498733872
12498740769
12498747544
12498759079
12498765854
12498773422
12498781235
12498792587
12498800766
12498806931
12498816696
12498823166
12498830246
12498837204
12498845810
12498852280
12498860214
12498868271
12498876266
12498883530
12498889633
12498895981
12498905685
12498911423
12498917709
12498925033
12498931808
12498940658
12498947250
12498954086
12498961532
12498969284
12498977768
12498985214
12498990829
12498998947
12499003280
12499014694
12499021835
12499028976
12499033248
12499042221
12499048568
12499052841
12499056625
12499062728
12499067001
12499072433
12499077560
12499083908
12499088241
12499092636
12499099777
12499104843
12499110214
12499115707
12499120406
12499124679
12499133224
12499137435
12499143417
12499148605
12499154647
12499159286
12499164352
12499169051
12499173324
12499180526
12499183883
12499190414
12499195907
12499200851
12499205733
12499211104
12499215499
12499221664
12499227523
12499231734
12499237838
12499243209
12499248275
12499254195
12499258468
12499263045
12499271590
12499276534
12499281966
12499286727
12499293685
12499299056
12499304671
12499308944
12499316024
12499325362
12499333785
12499344283
12499354720
12499363021
12499370955
12499376876
12499381514
12499387618
12499396041
12499401595
12499408309
12499412642
12499419905
12499426436
12499430708
12499437849
12499442915
12499450423
12499454695
12499461775
12499466231
12499472639
12499477644
12499483321
12499488020
12499494673
12499498335
12499504683
12499508711
12499513655
12499519087
12499524763
12499530195
12499535322
12499538435
12499545149
12499549910
12499556013
12499561812
12499565962
12499574202
12499579695
12499584944
12499588545
12499594709
12499599836
12499606489
12499611494
12499617414
12499622236
12499628584
12499635054
12499640730
12499643843
12499651289
12499655500
12499663313
12499670393
12499675642
12499680036
12499684919
12499689375
12499695722
12499699629
12499705427
12499710981
12499717024
12499722151
12499726423
12499733381
12499737409
12499743147
12499747541
12499753156
12499760847
12499766218
12499771589
12499776044
12499781171
12499786054
12499791242
12499794965
12499803571
12499808942
12499813032
12499820051
12499823835
12499830671
12499834638
12499840803
12499846052
12499852338
12499856672
12499862470
12499868207
12499872358
12499878095
12499882184
12499888593
12499894330
12499901899
12499909894
12499916852
12499925397
12499932477
12499938581
12499946576
12499954511
12499962445
12499970014
12499979596
12499991742
12499999310
12500009503
12500017621
12500025311
12500033917
12500040875
12500049054
12500056500
12500065900
12500070843
12500081341
12500089581
12500096722
12500103802
12500109784
12500115460
12500125775
12500132977
12500147259
12500151776
12500165387
12500172894
12500179486
12500186871
12500193097
12500199688
12500209698
12500216778
12500224957
12500231732
12500241497
12500249676
12500256512
12500264141
12500271343
12500279766
12500286663
12500292401
12500299908
12500306439
12500315716
12500319683
12500329632
12500338299
12500346294
12500353802
12500361492
12500367229
12500374309
12500382244
12500388714
12500398785
12500406353
12500413982
12500422039
12500428325
12500434795
12500443889
12500449505
12500460369
12500467754
12500474590
12500483196
12500491008
12500496929
12500504558
12500508648
12500519573
12500527690
12500533428
12500539775
12500548992
12500555522
12500561931
12500571208
12500577312
12500584331
12500592571
12500600444
12500608745
12500615703
12500621379
12500629680
12500637737
12500645793
12500652751
12500658733
12500667949
12500673625
12500680217
12500688151
12500697002
12500702678
12500710185
12500718791
12500725871
12500731059
12500738994
12500748454
12500754374
12500762492
12500771220
12500778361
12500787150
12500794230
12500803569
12500810099
12500818339
12500828532
12500833964
12500843547
12500850932
12500860453
12500868327
12500876444
12500884135
12500891154
12500896769
12500907145
12500912150
12500920451
12500928751
12500936686
12500943583
12500950907
12500957560
12500965739
12500973185
12500982157
12500988322
12500995585
12501003092
12501010477
12501019510
12501024271
12501032450
12501039591
12501047770
12501055826
12501062235
12501071695
12501077616
12501085794
12501091532
12501099772
12501107401
12501115213
12501123270
12501130228
12501136148
12501144449
12501151590
12501159586
12501166239
12501174600
12501182108
12501189615
12501193949
12501202310
12501209573
12501217264
12501227579
12501233438
12501242044
12501248514
12501255777
12501262491
12501273843
12501281961
12501289102
12501297342
12501302774
12501307535
12501312906
12501317605
12501322549
12501327127
12501332254
12501339151
12501343545
12501349283
12501353006
12501358499
12501364053
12501368203
12501373025
12501378030
12501383340
12501389077
12501393045
12501399453
12501402688
12501409097
12501413247
12501420022
12501426553
12501432107
12501437600
12501443032
12501447366
12501453530
12501457925
12501462808
12501470437
12501474893
12501481606
12501486672
12501491982
12501499062
12501505349
12501510842
12501517861
12501526040
12501531350
12501536538
12501543740
12501548318
12501554238
12501559304
12501565530
12501572732
12501577676
12501583108
12501587258
12501591592
12501596169
12501600991
12501606423
12501611611
12501617043
12501622841
12501628274
12501634621
12501640175
12501645913
12501651772
12501657326
12501662636
12501667519
12501673317
12501679177
12501684548
12501689675
12501696022
12501700844
12501706643
12501712197
12501718178
12501724526
12501730202
12501734902
12501740822
12501746010
12501752602
12501756630
12501762123
12501768532
12501774269
12501779457
12501785744
12501790871
12501796486
12501801308
12501806984
12501812843
12501818276
12501823158
12501829079
12501834938
12501840370
12501845497
12501849770
12501856361
12501860695
12501865089
12501873329
12501878334
12501883766
12501889442
12501894081
12501900062
12501906166
12501911537
12501917641
12501923683
12501929237
12501933998
12501939430
12501945839
12501950172
12501956337
12501961708
12501969825
12501973610
12501980629
12501985145
12501992408
12501998451
12502004432
12502008277
12502014747
12502022438
12502027992
12502033363
12502038429
12502043128
12502049232
12502056861
12502061805
12502068275
12502075233
12502082801
12502087806
12502095008
12502099708
12502108680
12502115760
12502122108
12502127601
12502133216
12502140052
12502148475
12502156104
12502163917
12502170814
12502178931
12502187598
12502195472
12502201881
12502210609
12502216407
12502225257
12502231605
12502241675
12502248267
12502258216
12502264502
12502272620
12502279822
12502289100
12502296851
12502304786
12502312110
12502319800
12502327918
12502335364
12502343177
12502350073
12502357886
12502364600
12502374487
12502384253
12502392310
12502398474
12502406958
12502413489
12502421790
12502429297
12502438147
12502445410
12502452307
12502460303
12502467322
12502475928
12502484717
12502492651
12502499853
12502508337
12502516394
12502525610
12502531653
12502539282
12502548681
12502554785
12502564245
12502571264
12502580725
12502587744
12502595190
12502606787
12502614355
12502621252
12502629675
12502636572
12502647131
12502655248
12502663976
12502672277
12502680639
12502687475
12502693884
12502704504
12502712927
12502721594
12502729894
12502738378
12502745519
12502754003
12502761449
12502770605
12502777380
12502786474
12502794164
12502804479
12502810949
12502817785
12502825719
12502835058
12502842443
12502848607
12502857091
12502865758
12502873754
12502881444
12502889257
12502896459
12502904393
12502910924
12502919896
12502927281
12502936315
12502945287
12502949986
12502959813
12502966893
12502976964
12502984349
12502992711
12503000218
12503009129
12503015660
12503022862
12503029454
12503038731
12503044591
12503052586
12503062474
12503069859
12503077367
12503084813
12503092198
12503098424
12503106541
12503114232
12503121495
12503131077
12503136693
12503145787
12503151890
12503159337
12503168126
12503174595
12503183995
12503189671
12503199986
12503206456
12503213230
12503218602
12503228306
12503233250
12503243321
12503250279
12503258030
12503266209
12503272068
12503277744
12503287144
12503293125
12503302281
12503311619
12503316624
12503325047
12503331882
12503341526
12503348362
12503355320
12503361546
12503372044
12503379429
12503386997
12503393833
12503401279
12503408054
12503416050
12503423252
12503431431
12503439609
12503447971
12503453952
12503462436
12503468296
12503475620
12503484531
12503490635
12503499851
12503505283
12503514377
12503520908
12503529697
12503535984
12503545261
12503551242
12503559238
12503566684
12503574863
12503580661
12503585727
12503590122
12503595676
12503599582
12503605747
12503610690
12503616122
12503620029
12503626621
12503630466
12503635410
12503641208
12503644870
12503652377
12503657199
12503664645
12503668796
12503676608
12503680881
12503688266
12503692905
12503698886
12503705539
12503710849
12503716830
12503722201
12503727756
12503732455
12503736972
12503742099
12503748996
12503755710
12503759982
12503765353
12503770846
12503776217
12503780917
12503786410
12503792269
12503798739
12503803134
12503809298
12503813327
12503817721
12503824130
12503828524
12503833895
12503839633
12503844515
12503850131
12503854708
12503858431
12503863925
12503868929
12503874423
12503882113
12503886752
12503891512
12503895663
12503902071
12503906954
12503911227
12503916354
12503922823
12503926913
12503932101
12503937594
12503942477
12503948153
12503952303
12503957430
12503963778
12503968600
12503974642
12503980257
12503985506
12503990328
12503995333
12503999788
12504005770
12504011568
12504017183
12504022371
12504027437
12504031344
12504037508
12504041414
12504046846
12504052950
12504058321
12504062899
12504067293
12504073214
12504077852
12504083223
12504087801
12504092867
12504098848
12504103914
12504108187
12504113802
12504119295
12504124727
12504129183
12504134554
12504141756
12504147615
12504152376
12504158663
12504164217
12504168489
12504175081
12504180513
12504186617
12504194612
12504199861
12504204622
12504212312
12504217500
12504222993
12504228975
12504235506
12504243196
12504248872
12504255220
12504260652
12504266084
12504271638
12504276887
12504282564
12504289216
12504294527
12504300264
12504304841
12504309846
12504314790
12504320283
12504325471
12504329377
12504334810
12504341646
12504345491
12504351411
12504355867
12504360261
12504366121
12504371186
12504377717
12504384248
12504388398
12504393098
12504397920
12504405366
12504411836
12504418122
12504425630
12504433320
12504441316
12504449433
12504457368
12504462129
12504472749
12504478791
12504487214
12504496735
12504502534
12504510712
12504518159
12504524506
12504530488
12504539094
12504545991
12504553559
12504562287
12504569733
12504577973
12504585053
12504591950
12504598603
12504602448
12504612458
12504620331
12504630280
12504634247
12504644196
12504651947
12504658539
12504667145
12504674958
12504682404
12504692047
12504699555
12504707245
12504715058
12504721649
12504730683
12504737519
12504745514
12504756561
12504763031
12504769440
12504776703
12504786224
12504792328
12504802277
12504809296
12504817963
12504826813
12504835114
12504840973
12504849335
12504855743
12504865265
12504872406
12504881378
12504888824
12504898773
12504905243
12504912811
12504920196
12504927032
12504935516
12504943939
12504953582
12504963348
12504972259
12504978668
12504987396
12504994598
12505005035
12505010711
12505018524
12505029510
12505038177
12505044708
12505054473
12505060882
12505069122
12505077056
12505082488
12505092925
12505101409
12505107574
12505119781
12505128204
12505142791
12505148406
12505161346
12505173492
12505185210
12505194427
12505205108
12505217986
12505229461
12505239409
12505249724
12505260405
12505270537
12505282744
12505294524
12505306731
12505313872
12505326323
12505336516
12505346953
12505356597
12505367522
12505377715
12505387602
12505397246
12505407500
12505417571
12505427153
12505436980
12505447661
12505456816
12505468779
12505477324
12505488859
12505498808
12505507536
12505517912
12505527922
12505536406
12505547453
12505555082
12505564116
12505574919
12505587553
12505597807
12505607939
12505619474
12505629972
12505641447
12505650541
12505662382
12505671842
12505682646
12505694669
12505702970
12505715177
12505725492
12505736478
12505746915
12505758085
12505770780
12505779996
12505790555
12505803922
12505813260
12505824674
12505837186
12505848783
12505861112
12505871488
12505882901
12505893338
12505902188
12505914517
12505922025
12505937039
12505948453
12505958585
12505974759
12505985379
12505995755
12506006497
12506019437
12506028531
12506037015
12506043423
12506050381
12506058011
12506064908
12506074795
12506084744
12506092435
12506101285
12506110135
12506117032
12506126187
12506133694
12506140774
12506152310
12506160427
12506167813
12506173855
12506181912
12506189236
12506196621
12506205532
12506214749
12506221829
12506230801
12506238613
12506247280
12506255215
12506264004
12506272122
12506279934
12506287808
12506295986
12506305325
12506311245
12506318691
12506327663
12506335903
12506341640
12506349758
12506358425
12506365871
12506373989
12506381435
12506389797
12506397487
12506404995
12506414333
12506420498
12506429531
12506436489
12506448146
12506456203
12506463771
12506471096
12506477016
12506487880
12506495388
12506502895
12506510280
12506519741
12506527614
12506536098
12506543422
12506552394
12506558254
12506567104
12506574672
12506583339
12506593288
12506601283
12506608669
12506616054
12506625514
12506634730
12506639430
12506646815
12506651576
12506655910
12506661098
12506666408
12506672511
12506676906
12506683803
12506687770
12506695277
12506700038
12506706813
12506712245
12506719081
12506725734
12506731715
12506736537
12506740870
12506746425
12506750148
12506755702
12506759852
12506764674
12506769496
12506773829
12506779200
12506785182
12506790614
12506795008
12506800441
12506804347
12506809657
12506813868
12506819911
12506823939
12506828944
12506833583
12506838099
12506843897
12506848536
12506852931
12506858546
12506864222
12506868067
12506872828
12506876734
12506881556
12506885340
12506891688
12506896754
12506901026
12506906092
12506909937
12506914637
12506920008
12506925990
12506930811
12506937464
12506946802
12506953760
12506960535
12506968348
12506976710
12506984827
12506991846
12506999537
12507005213
12507013392
12507020960
12507028101
12507035730
12507044214
12507050013
12507059107
12507064966
12507073755
12507079737
12507088587
12507097193
12507104822
12507113123
12507120569
12507126245
12507134546
12507141016
12507149622
12507157984
12507164575
12507174463
12507184534
12507191797
12507200952
12507207239
12507214258
12507224695
12507230981
12507241113
12507248010
12507257898
12507263330
12507271997
12507279809
12507290857
12507298974
12507307153
12507315149
12507322473
12507330041
12507337854
12507346826
12507354760
12507366479
12507375634
12507382470
12507391076
12507397729
12507406579
12507412927
12507422265
12507430505
12507436120
12507446740
12507454064
12507460961
12507468591
12507477624
12507484216
12507492638
12507498376
12507506982
12507515160
12507522118
12507531701
12507539391
12507548180
12507555566
12507564355
12507570214
12507579125
12507586938
12507594567
12507603478
12507610863
12507618493
12507625939
12507632592
12507641686
12507648644
12507656334
12507663842
12507673058
12507678429
12507687218
12507694237
12507700463
12507708763
12507715355
12507723229
12507731713
12507738976
12507744530
12507752709
12507759911
12507767601
12507777306
12507784508
12507791771
12507800987
12507804894
12507816063
12507822716
12507830406
12507839195
12507846092
12507855614
12507861900
12507869957
12507878013
12507884971
12507895225
12507902488
12507910118
12507917198
12507924949
12507932029
12507938194
12507945945
12507955894
12507962913
12507969200
12507978538
12507984825
12507994102
12508000633
12508010093
12508016380
12508026267
12508036277
12508042930
12508052940
12508058982
12508068687
12508080467
12508088218
12508096519
12508104697
12508113364
12508120567
12508126853
12508134299
12508144919
12508152122
12508158591
12508167747
12508175193
12508181968
12508190391
12508198020
12508206260
12508215232
12508221457
12508230002
12508236594
12508245139
12508251303
12508260764
12508269553
12508275168
12508284568
12508290122
12508298850
12508304709
12508316245
12508321250
12508325278
12508333212
12508339743
12508344443
12508350180
12508356406
12508362509
12508366843
12508372336
12508377280
12508383017
12508387167
12508394553
12508398825
12508404990
12508410544
12508415182
12508421652
12508427206
12508431906
12508436179
12508442709
12508446982
12508454306
12508458517
12508465597
12508471396
12508476584
12508481344
12508486410
12508492758
12508497275
12508505148
12508510824
12508515646
12508521872
12508526999
12508532309
12508537924
12508544638
12508551474
12508557882
12508563620
12508568075
12508574667
12508578634
12508585165
12508589132
12508596945
12508602804
12508607138
12508612936
12508619100
12508625082
12508630514
12508639364
12508646078
12508650472
12508656698
12508662557
12508668905
12508675253
12508678976
12508687643
12508692037
12508699483
12508705099
12508710897
12508716329
12508724996
12508731954
12508735494
12508743856
12508750326
12508756734
12508762899
12508768819
12508774557
12508780599
12508786153
12508792440
12508799215
12508804036
12508810262
12508816121
12508821676
12508827779
12508833150
12508840657
12508846456
12508852742
12508858480
12508864766
12508870076
12508875875
12508878682
12508886190
12508891988
12508897664
12508903279
12508907735
12508913777
12508919637
12508924520
12508930318
12508935506
12508941487
12508946370
12508951863
12508957539
12508962300
12508968160
12508973531
12508981160
12508986958
12508989949
12508997395
12509002217
12509007832
12509012776
12509020283
12509025594
12509031758
12509037190
12509041951
12509048115
12509053548
12509058003
12509064107
12509071736
12509076497
12509082478
12509088399
12509093525
12509099141
12509103352
12509109150
12509115803
12509120625
12509126912
12509130452
12509136738
12509141316
12509147969
12509153340
12509159687
12509166828
12509173725
12509179035
12509187031
12509195515
12509200947
12509209797
12509217304
12509226460
12509233906
12509240742
12509251484
12509260822
12509269734
12509277973
12509286518
12509296406
12509305012
12509312763
12509322163
12509329792
12509341205
12509348041
12509357197
12509365253
12509373676
12509381672
12509390644
12509400165
12509407306
12509416156
12509424701
12509431842
12509439960
12509448444
12509454547
12509461261
12509470539
12509477253
12509487812
12509494892
12509502948
12509512287
12509520893
12509528522
12509537006
12509544330
12509552692
12509559711
12509567767
12509576923
12509582843
12509589618
12509600238
12509606586
12509615008
12509623370
12509631549
12509638263
12509646258
12509654010
12509659625
12509668475
12509678119
12509687030
12509694903
12509704364
12509712359
12509718036
12509728778
12509735797
12509744281
12509751605
12509760455
12509769976
12509779193
12509783770
12509794573
12509801531
12509808001
12509819110
12509827838
12509836199
12509844195
12509851397
12509858599
12509867083
12509874407
12509882342
12509891619
12509898333
12509905352
12509916155
12509922991
12509931353
12509937701
12509945452
12509953081
12509961992
12509970171
12509976885
12509984820
12509991778
12510000017
12510009173
12510016985
12510024981
12510032915
12510040361
12510048906
12510055437
12510063921
12510070208
12510078386
12510085771
12510094560
12510102251
12510109148
12510117143
12510125261
12510133440
12510137834
12510147722
12510155290
12510163896
12510174333
12510180742
12510191118
12510200456
12510207353
12510217180
12510224626
12510232866
12510240739
12510249589
12510257707
12510265275
12510273942
12510281572
12510289506
12510296403
12510307267
12510315019
12510324174
12510328447
12510338762
12510345231
12510353776
12510361161
12510368852
12510376298
12510384477
12510392655
12510401261
12510409440
12510416825
12510424760
12510431840
12510440080
12510446916
12510455705
12510462602
12510470841
12510478165
12510487077
12510494950
12510501542
12510511857
12510519913
12510527177
12510533158
12510541703
12510549149
12510557328
12510564042
12510573014
12510579728
12510587113
12510596879
12510603470
12510610733
12510617814
12510628251
12510633561
12510643692
12510648392
12510655228
12510659134
12510665909
12510671524
12510677628
12510682083
12510688797
12510693863
12510699906
12510704727
12510709183
12510715531
12510721573
12510726822
12510731644
12510738297
12510742203
12510747757
12510753861
12510762833
12510769608
12510775162
12510780411
12510786148
12510792313
12510798294
12510805496
12510810684
12510817337
12510823501
12510828689
12510835770
12510842056
12510849197
12510853714
12510859878
12510867325
12510872879
12510877823
12510884842
12510890579
12510896743
12510903274
12510910965
12510916702
12510923599
12510929580
12510937210
12510943252
12510949600
12510955764
12510961257
12510965957
12510973526
12510978714
12510983657
12510988235
12510993118
12510998001
12511003982
12511009048
12511013931
12511018508
12511025405
12511031020
12511035720
12511041580
12511045852
12511051833
12511056289
12511062087
12511066665
12511074111
12511078994
12511084060
12511089126
12511095046
12511099868
12511105239
12511108657
12511116225
12511122146
12511126052
12511130508
12511137221
12511141677
12511148147
12511154128
12511159804
12511165236
12511170852
12511176101
12511179946
12511187270
12511192580
12511198989
12511203322
12511207656
12511213942
12511218947
12511223830
12511230239
12511234389
12511242446
12511248122
12511255629
12511260756
12511266005
12511270766
12511278884
12511283400
12511289199
12511296340
12511301772
12511306044
12511311781
12511317641
12511323134
12511329115
12511335158
12511342238
12511348525
12511352736
12511358962
12511363478
12511369765
12511374281
12511380141
12511386000
12511391493
12511398085
12511403029
12511408095
12511412855
12511418593
12511425246
12511429640
12511436720
12511442763
12511448317
12511454054
12511458449
12511464674
12511469679
12511477308
12511483656
12511491346
12511495802
12511505201
12511512220
12511520887
12511529249
12511537977
12511548964
12511555860
12511565565
12511572035
12511581373
12511588087
12511595045
12511602613
12511612074
12511619703
12511626966
12511635572
12511643018
12511651441
12511659315
12511666517
12511674451
12511683424
12511691053
12511697401
12511705335
12511714674
12511722303
12511730482
12511738843
12511747571
12511754224
12511761915
12511769910
12511777418
12511785657
12511792371
12511801099
12511809522
12511818006
12511825696
12511833875
12511841016
12511849683
12511854200
12511866407
12511874463
12511882703
12511889356
12511897046
12511904004
12511912244
12511918714
12511928113
12511935193
12511944653
12511951245
12511959119
12511967786
12511973340
12511981702
12511991040
12511998242
12512007275
12512014050
12512022168
12512030652
12512036023
12512046582
12512055188
12512062085
12512069409
12512077710
12512086255
12512096692
12512102124
12512111828
12512120556
12512129712
12512137585
12512147107
12512152294
12512162854
12512171521
12512179394
12512185253
12512196850
12512205151
12512213329
12512220959
12512229992
12512237133
12512244763
12512251843
12512262524
12512270336
12512278942
12512285534
12512294811
12512302563
12512312633
12512318920
12512328625
12512338390
12512348461
12512355358
12512363231
12512373119
12512379345
12512389171
12512396557
12512403881
12512409374
12512419994
12512426342
12512434337
12512441173
12512449779
12512456127
12512464183
12512473949
12512479198
12512488536
12512496410
12512504161
12512511669
12512518810
12512526561
12512535106
12512544078
12512552135
12512556468
12512566417
12512572948
12512581737
12512590221
12512596934
12512607127
12512612559
12512622325
12512630443
12512637767
12512645640
12512653453
12512661265
12512667186
12512676890
12512683543
12512693065
12512699168
12512707652
12512714122
12512723704
12512728953
12512739451
12512747813
12512754954
12512762339
12512770274
12512777537
12512785716
12512793467
12512801402
12512808177
12512816599
12512823130
12512833201
12512839427
12512847544
12512855051
12512863902
12512871470
12512878977
12512887278
12512895213
12512901438
12512910288
12512918101
12512924509
12512934031
12512941233
12512949412
12512958628
12512965586
12512972178
12512977854
12512982859
12512987253
12512993601
12512999399
12513004831
12513009653
12513017283
12513021738
12513028269
12513033945
12513040537
12513045298
12513052744
12513059702
12513065561
12513070871
12513075144
12513081369
12513088754
12513094370
12513099191
12513106333
12513112802
12513117502
12513124460
12513128488
12513134592
12513139108
12513146494
12513151010
12513157053
12513161081
12513167612
12513173105
12513178171
12513184640
12513190256
12513194833
12513201303
12513206430
12513211374
12513217294
12513223215
12513227975
12513233713
12513238595
12513245492
12513250863
12513256906
12513262521
12513268136
12513273630
12513280526
12513284433
12513291330
12513296029
12513302743
12513308480
12513315255
12513322030
12513327768
12513334054
12513339669
12513345163
12513350595
12513356332
12513363107
12513369271
12513374337
12513381295
12513386056
12513392098
12513399667
12513406075
12513411630
12513418527
12513424142
12513428842
12513435189
12513442086
12513446298
12513453317
12513459481
12513465157
12513470956
12513477059
12513482796
12513488900
12513492196
12513499825
12513505074
12513512337
12513517159
12513522408
12513530038
12513534981
12513541207
12513548043
12513553536
12513558175
12513566414
12513571908
12513578560
12513581673
12513589058
12513593941
12513601387
12513606087
12513611824
12513619637
12513624154
12513631783
12513637215
12513643318
12513648201
12513654366
12513659493
12513666390
12513672188
12513678047
12513684944
12513691475
12513699471
12513706307
12513713204
12513720711
12513726570
12513733528
12513736885
12513745186
12513753059
12513760384
12513764778
12513776192
12513784004
12513790474
12513793648
12513802742
12513807625
12513813423
12513819710
12513827339
12513832039
12513837837
12513844185
12513850105
12513855903
12513862190
12513869697
12513877693
12513884895
12513894172
12513903328
12513911384
12513917671
12513926338
12513934822
12513942939
12513949531
12513957405
12513966926
12513974006
12513983344
12513990669
12513998054
12514005012
12514014655
12514021674
12514028938
12514036384
12514046638
12514054694
12514062019
12514067878
12514077949
12514087104
12514094489
12514101081
12514110358
12514119025
12514127265
12514136115
12514142219
12514152106
12514160529
12514167731
12514175910
12514184455
12514192511
12514198920
12514208197
12514214728
12514222907
12514232245
12514239264
12514248419
12514255439
12514264838
12514270636
12514283393
12514291754
12514298163
12514305365
12514314520
12514322211
12514329596
12514337653
12514347723
12514356696
12514364386
12514373053
12514380377
12514386542
12514397528
12514404120
12514414374
12514422552
12514430182
12514437567
12514445563
12514453558
12514462103
12514470709
12514479864
12514492804
12514499579
12514509832
12514518499
12514526617
12514535772
12514542791
12514551947
12514562017
12514571661
12514578131
12514588690
12514595281
12514604559
12514610906
12514622076
12514633428
12514642217
12514649419
12514658025
12514664556
12514674993
12514679327
12514689947
12514697027
12514707342
12514713872
12514722600
12514728948
12514736211
12514745489
12514751043
12514762273
12514768926
12514779119
12514786626
12514793950
12514800786
12514809209
12514816899
12514824956
12514832402
12514840398
12514847173
12514857488
12514863896
12514870610
12514880071
12514886357
12514896062
12514902715
12514911992
12514921025
12514928532
12514936650
12514944402
12514951176
12514961064
12514973149
12514979924
12514987797
12514995976
12515004033
12515011967
12515020451
12515026433
12515036381
12515042729
12515051274
12515060124
12515066960
12515074894
12515085270
12515093388
12515102055
12515108586
12515117375
12515127262
12515136051
12515144352
12515153019
12515160038
12515169316
12515178410
12515184330
12515194340
12515203251
12515211247
12515218388
12515227177
12515234440
12515245853
12515254276
12515261417
12515267887
12515277775
12515286198
12515291386
12515301395
12515309940
12515316410
12515324039
12515331302
12515339420
12515347538
12515355961
12515367618
12515374515
12515379642
12515386478
12515394107
12515398319
12515406376
12515411625
12515418399
12515425052
12515429996
12515437259
12515442752
12515446903
12515451786
12515457584
12515461307
12515467533
12515472598
12515478397
12515483646
12515490360
12515494266
12515499820
12515506168
12515512027
12515517337
12515522952
12515528568
12515534305
12515539005
12515544620
12515549564
12515554568
12515560977
12515566898
12515572757
12515578738
12515584903
12515590152
12515596744
12515600650
12515607425
12515612063
12515618472
12515622134
12515629581
12515633853
12515641055
12515645633
12515651492
12515656131
12515662478
12515668887
12515672305
12515678714
12515684207
12515690799
12515695987
12515700869
12515705203
12515711489
12515718814
12515724307
12515729312
12515735232
12515740298
12515745913
12515750369
12515756472
12515764346
12515769961
12515774600
12515781619
12515786257
12515792788
12515798281
12515804690
12515812258
12515818667
12515825259
12515831606
12515837954
12515843325
12515856448
12515861025
12515871401
12515880007
12515888125
12515894167
12515903261
12515910280
12515916506
12515923403
12515930727
12515939455
12515946596
12515956728
12515963869
12515970644
12515978762
12515984560
12515992678
12515997988
12516006960
12516020937
12516028261
12516035768
12516043886
12516049929
12516058351
12516067201
12516074404
12516083376
12516091738
12516099672
12516106020
12516113588
12516119386
12516125856
12516132387
12516138796
12516144472
12516150270
12516155946
12516161317
12516165651
12516172304
12516177370
12516183290
12516187990
12516193544
12516200136
12516205812
12516211061
12516216554
12516221620
12516226747
12516235719
12516241029
12516246705
12516252260
12516258302
12516264406
12516269777
12516274720
12516280824
12516286317
12516292360
12516298524
12516302003
12516308961
12516314515
12516319398
12516324952
12516330384
12516336976
12516347474
12516352540
12516360597
12516368775
12516376649
12516384828
12516393434
12516401124
12516409486
12516415955
12516424439
12516430787
12516440797
12516449647
12516454591
12516464051
12516472047
12516479859
12516486756
12516494874
12516502686
12516511109
12516522462
12516533875
12516542786
12516550782
12516559144
12516567322
12516575013
12516580994
12516587403
12516597840
12516604187
12516612061
12516621277
12516628052
12516635498
12516642456
12516652344
12516659424
12516667359
12516676453
12516684570
12516693054
12516699463
12516708679
12516718140
12516724976
12516732422
12516740662
12516749390
12516758911
12516768127
12516775574
12516786316
12516792663
12516800781
12516811889
12516823974
12516832275
12516841369
12516848938
12516857544
12516862060
12516873352
12516880310
12516889465
12516895568
12516905151
12516913696
12516920288
12516929565
12516937011
12516944580
12516953063
12516960510
12516968322
12516976562
12516983337
12516991271
12516997924
12517006896
12517016540
12517024413
12517030578
12517038085
12517047607
12517053527
12517062804
12517071532
12517079284
12517087890
12517094970
12517101440
12517111571
12517118346
12517126342
12517133605
12517141601
12517148314
12517157592
12517164489
12517173827
12517180053
12517187194
12517197081
12517205626
12517213622
12517221862
12517231200
12517235655
12517246520
12517253783
12517263182
12517273070
12517280211
12517289794
12517294920
12517303832
12517310973
12517319762
12517342833
12517351683
12517359923
12517370177
12517377745
12517388304
12517396055
12517404051
12517410094
12517421263
12517429075
12517438170
12517445677
12517453856
12517460325
12517469420
12517476316
12517485960
12517492552
12517499144
12517508604
12517516233
12517526731
12517534605
12517542601
12517550047
12517559507
12517564268
12517576658
12517584287
12517593137
12517600462
12517610838
12517617796
12517625669
12517637754
12517646421
12517657468
12517664976
12517675230
12517682798
12517691953
12517703794
12517714048
12517724302
12517734372
12517742856
12517751279
12517759275
12517766233
12517774289
12517783994
12517792234
12517798764
12517807370
12517816648
12517824399
12517830197
12517838559
12517842954
12517849423
12517853513
12517860288
12517864316
12517869870
12517873715
12517879636
12517887021
12517892331
12517896176
12517902158
12517906186
12517912534
12517916928
12517923520
12517928281
12517934933
12517939694
12517944943
12517951657
12517957150
12517962033
12517966550
12517972531
12517979306
12517984616
12517989316
12517996030
12518003232
12518008053
12518012448
12518018612
12518025021
12518030575
12518036557
12518041195
12518046017
12518052731
12518057858
12518063168
12518069088
12518075070
12518080502
12518087216
12518093197
12518099423
12518104367
12518109616
12518118649
12518123715
12518129147
12518134152
12518140438
12518146115
12518152218
12518157345
12518162472
12518169186
12518175594
12518181027
12518186947
12518192013
12518197018
12518203121
12518208675
12518217098
12518221859
12518227474
12518233700
12518239254
12518243343
12518249752
12518256100
12518261715
12518266964
12518275875
12518281124
12518288143
12518294491
12518301693
12518307857
12518314266
12518322933
12518329525
12518338497
12518344051
12518349910
12518355159
12518361690
12518369869
12518375728
12518381221
12518386287
12518391170
12518396114
12518400997
12518406612
12518412105
12518417903
12518423702
12518427364
12518432857
12518437984
12518443843
12518448421
12518454097
12518458553
12518465145
12518469356
12518475765
12518481075
12518486324
12518491268
12518496700
12518503108
12518509029
12518513484
12518518916
12518523372
12518530025
12518534297
12518540706
