12606213089
12606217911
12606222793
12606227432
12606231949
12606236038
12606240616
12606244888
12606250137
12606254410
12606259109
12606263565
12606268081
12606272293
12606276870
12606281265
12606285598
12606289444
12606294632
12606298843
12606302993
12606306961
12606311660
12606316970
12606320449
12606326187
12606330886
12606335403
12606339492
12606344009
12606348464
12606353347
12606357315
12606362503
12606368545
12606373306
12606377883
12606383376
12606390518
12606399124
12606404373
12606411941
12606421890
12606429824
12606437942
12606443252
12606450454
12606456496
12606461745
12606466994
12606474563
12606480727
12606485122
12606491531
12606495742
12606502578
12606507033
12606513503
12606519118
12606526381
12606532180
12606539626
12606545119
12606552932
12606559707
12606565505
12606571608
12606579726
12606587722
12606593459
12606601210
12606606643
12606613417
12606618483
12606627394
12606632704
12606641677
12606647719
12606654433
12606661086
12606667922
12606674819
12606682814
12606688674
12606695143
12606700514
12606709853
12606715163
12606724318
12606729994
12606738905
12606744582
12606748061
12606757155
12606762465
12606768141
12606775526
12606782973
12606789259
12606794691
12606800307
12606807570
12606811659
12606818678
12606824843
12606834059
12606843336
12606848890
12606856459
12606867018
12606873060
12606878798
12606884596
12606890821
12606896498
12606902601
12606909925
12606916151
12606923475
12606928480
12606935133
12606941297
12606948255
12606954481
12606958998
12606964918
12606972303
12606978590
12606983351
12606989210
12606996229
12607003736
12607008619
12607015211
12607020277
12607027723
12607033949
12607039625
12607046033
12607051710
12607057935
12607063306
12607069349
12607075819
12607081922
12607088453
12607096021
12607102186
12607109022
12607115735
12607122510
12607131421
12607138379
12607145032
12607152112
12607158704
12607164747
12607170850
12607177381
12607183851
12607191907
12607198743
12607204847
12607211682
12607219190
12607225110
12607231458
12607240491
12607246106
12607254102
12607260999
12607267591
12607275891
12607283338
12607290357
12607296948
12607303784
12607310742
12607317883
12607324231
12607330823
12607338452
12607345654
12607353406
12607357312
12607366040
12607372632
12607380383
12607386548
12607394726
12607400586
12607408642
12607414502
12607422497
12607428601
12607436047
12607444653
12607450757
12607459790
12607465588
12607474560
12607482068
12607488781
12607495922
12607502514
12607509289
12607516674
12607524243
12607531750
12607537609
12607544750
12607551708
12607559399
12607566479
12607573986
12607581494
12607589916
12607598156
12607603100
12607610668
12607618481
12607625683
12607633495
12607641735
12607652294
12607659679
12607666515
12607674999
12607683910
12607692577
12607697094
12607708263
12607715587
12607722118
12607725902
12607733715
12607738415
12607745617
12607750316
12607757518
12607764965
12607770275
12607773571
12607780834
12607787731
12607792186
12607797130
12607805187
12607809459
12607815319
12607822643
12607826427
12607833324
12607838512
12607844676
12607848827
12607853588
12607859264
12607865550
12607870677
12607874950
12607880504
12607884715
12607891673
12607896800
12607902477
12607906871
12607913768
12607920116
12607926830
12607932933
12607939220
12607945689
12607951915
12607956920
12607963573
12607966685
12607974864
12607979625
12607984935
12607993785
12607999705
12608005382
12608012034
12608018931
12608024364
12608028697
12608034312
12608040965
12608047801
12608054637
12608059825
12608066478
12608072825
12608078807
12608086253
12608093455
12608100230
12608106211
12608114024
12608120005
12608125071
12608130931
12608136668
12608145274
12608151683
12608159068
12608165049
12608171702
12608178904
12608186411
12608193003
12608198191
12608205515
12608212412
12608219126
12608227488
12608233408
12608241831
12608250803
12608259592
12608262095
12608271860
12608280527
12608289377
12608296702
12608302439
12608313486
12608322458
12608327830
12608339182
12608347361
12608356089
12608362619
12608372263
12608382334
12608392282
12608401743
12608406870
12608418528
12608426401
12608434885
12608443247
12608449228
12608458933
12608468393
12608475534
12608480844
12608488352
12608494516
12608502939
12608509042
12608516367
12608521494
12608527475
12608533884
12608538766
12608545053
12608549142
12608555917
12608561716
12608567514
12608574533
12608580148
12608584543
12608592416
12608596628
12608602426
12608608102
12608613534
12608618539
12608625741
12608630258
12608636300
12608642282
12608646371
12608652353
12608657846
12608660836
12608671212
12608676522
12608682626
12608686898
12608692270
12608698800
12608702584
12608709359
12608716317
12608722909
12608730722
12608737741
12608743905
12608751229
12608758187
12608765817
12608774606
12608782418
12608786813
12608796578
12608802804
12608811837
12608817696
12608824654
12608831857
12608841134
12608850228
12608856393
12608864083
12608871041
12608878365
12608887398
12608895394
12608901864
12608910653
12608918709
12608927376
12608931527
12608941842
12608947579
12608957467
12608963753
12608975472
12608981759
12608988228
12608997628
12609002999
12609011727
12609017342
12609025704
12609033089
12609041451
12609048714
12609056099
12609063729
12609069771
12609078194
12609083138
12609095650
12609104012
12609111275
12609119209
12609125496
12609134529
12609141182
12609148872
12609156258
12609164864
12609172615
12609180855
12609189033
12609196541
12609203193
12609209175
12609216682
12609226265
12609235969
12609242134
12609249336
12609257881
12609264045
12609272773
12609278450
12609287910
12609296028
12609302436
12609311164
12609317207
12609324348
12609332954
12609339607
12609349067
12609355354
12609364997
12609371833
12609378669
12609387214
12609393989
12609399970
12609407722
12609416877
12609425056
12609432502
12609439826
12609446357
12609454353
12609460090
12609469367
12609475654
12609483588
12609492866
12609499946
12609506965
12609514716
12609521491
12609527289
12609534736
12609544562
12609551703
12609557258
12609567145
12609573127
12609580573
12609587897
12609595954
12609602729
12609610419
12609618720
12609626227
12609632086
12609638983
12609648322
12609654914
12609661627
12609669318
12609678534
12609684149
12609693427
12609700812
12609707953
12609714362
12609721930
12609729437
12609737616
12609746283
12609751837
12609760199
12609767645
12609773871
12609781012
12609790350
12609798712
12609804938
12609812750
12609819403
12609826849
12609833685
12609842962
12609850103
12609859137
12609866278
12609873236
12609881292
12609890814
12609898504
12609904119
12609914740
12609924627
12609932684
12609940252
12609948004
12609955755
12609961553
12609967718
12609977056
12609984014
12609993047
12610001775
12610009222
12610015203
12610022771
12610031927
12610037969
12610044744
12610053045
12610062139
12610069097
12610076421
12610082525
12610090642
12610098699
12610106084
12610114934
12610123357
12610131292
12610138860
12610144964
12610150090
12610155339
12610160466
12610166021
12610172063
12610177800
12610184575
12610190862
12610196233
12610202581
12610207341
12610212285
12610217656
12610224065
12610228154
12610234197
12610240056
12610243962
12610249150
12610256597
12610263677
12610269170
12610274114
12610279790
12610285893
12610291203
12610298161
12610304326
12610308354
12610314030
12610319646
12610323735
12610330022
12610334660
12610341985
12610347905
12610353032
12610358525
12610364079
12610368413
12610373479
12610379338
12610384587
12610388859
12610395207
12610399602
12610404667
12610409916
12610415043
12610423344
12610428715
12610434392
12610439030
12610444157
12610450505
12610454838
12610461979
12610467228
12610472660
12610479863
12610483647
12610491215
12610496403
12610502812
12610510563
12610516728
12610522343
12610529362
12610534062
12610540348
12610546635
12610552860
12610558659
12610566166
12610572575
12610578312
12610584538
12610588261
12610595219
12610599308
12610606388
12610613224
12610618473
12610622379
12610629826
12610634281
12610639774
12610645756
12610651737
12610656925
12610663883
12610669254
12610674564
12610679630
12610685001
12610689945
12610694706
12610700443
12610709110
12610712772
12610718509
12610725467
12610731632
12610736637
12610742008
12610747684
12610756595
12610762088
12610768558
12610773502
12610777530
12610784488
12610789859
12610795475
12610800907
12610807804
12610812198
12610818424
12610823795
12610829288
12610833988
12610840396
12610848209
12610854434
12610859989
12610866092
12610870426
12610875491
12610881717
12610886905
12610892032
12610898196
12610905216
12610910220
12610915714
12610919986
12610926761
12610931888
12610937625
12610943668
12610949649
12610955508
12610961001
12610965640
12610971683
12610978885
12610984378
12610993106
12611001407
12611007937
12611017337
12611023562
12611032290
12611039737
12611047854
12611055850
12611062808
12611073855
12611081424
12611090579
12611098696
12611110415
12611119876
12611127932
12611135928
12611144656
12611154788
12611161196
12611168887
12611179263
12611186892
12611195437
12611205935
12611212954
12611223147
12611230532
12611238711
12611245730
12611255251
12611263735
12611272585
12611281862
12611291018
12611298342
12611306582
12611313418
12611324404
12611330874
12611340090
12611346560
12611355043
12611362368
12611369936
12611377199
12611384035
12611393434
12611398928
12611406313
12611415773
12611423708
12611431520
12611439150
12611443239
12611453493
12611460817
12611468935
12611477846
12611485780
12611493837
12611501222
12611508669
12611513673
12611522523
12611530275
12611536562
12611544862
12611554140
12611560487
12611569154
12611575136
12611581727
12611588502
12611598451
12611607179
12611614625
12611620973
12611629152
12611636049
12611643434
12611650636
12611658632
12611666322
12611674806
12611683290
12611688844
12611694886
12611704164
12611710633
12611717042
12611726197
12611733949
12611743043
12611749391
12611756837
12611764405
12611771913
12611778016
12611787904
12611795777
12611803651
12611809571
12611823243
12611833741
12611846986
12611857911
12611869446
12611879578
12611888733
12611905030
12611913514
12611927613
12611935853
12611947876
12611957947
12611967163
12611979187
12611988037
12611995606
12612007324
12612017212
12612027771
12612037293
12612046875
12612057434
12612066528
12612077881
12612089111
12612100037
12612110840
12612120239
12612130859
12612140198
12612149902
12612159790
12612170654
12612180725
12612191101
12612200866
12612209839
12612219726
12612227783
12612239441
12612249206
12612259582
12612268615
12612278137
12612289917
12612299316
12612308471
12612319213
12612331726
12612340331
12612353393
12612365051
12612373596
12612386901
12612397826
12612408752
12612420043
12612431152
12612440978
12612451903
12612460876
12612471801
12612483581
12612494445
12612504271
12612515502
12612525023
12612536010
12612548522
12612558837
12612570006
12612583007
12612592589
12612602904
12612613097
12612620848
12612631346
12612635985
12612650206
12612658995
12612668211
12612676512
12612684996
12612692931
12612704100
12612712584
12612723082
12612730833
12612740294
12612746947
12612755736
12612764036
12612771483
12612782652
12612790770
12612802122
12612810850
12612818297
12612825682
12612834654
12612842466
12612849913
12612858091
12612864805
12612873350
12612879881
12612888487
12612897703
12612904783
12612911924
12612919187
12612931822
12612940550
12612954710
12612963377
12612970274
12612976011
12612993467
12613002561
12613015073
12613022703
12613036802
12613045286
12613053525
12613061887
12613070981
12613078245
12613087339
12613096128
12613102659
12613111387
12613120115
12613129392
12613137449
12613147641
12613155271
12613162351
12613172177
12613178403
12613188108
12613196286
12613205747
12613213864
12613222409
12613228330
12613236936
12613244443
12613252927
12613261105
12613266843
12613277402
12613284848
12613291989
12613296811
12613302731
12613307675
12613311948
12613317502
12613322812
12613327634
12613333310
12613338193
12613343869
12613348080
12613353818
12613360531
12613364133
12613369809
12613373593
12613379391
12613383542
12613389767
12613392758
12613399655
12613403683
12613409970
12613413998
12613420468
12613426815
12613431942
12613436886
12613442074
12613447140
12613452267
12613455990
12613462704
12613468258
12613473446
12613481259
12613487057
12613492306
12613497250
12613502194
12613507931
12613513119
12613518551
12613524777
12613530087
12613535763
12613540463
12613544552
12613550350
12613554989
12613559689
12613567013
12613574154
12613578610
12613587093
12613591732
12613599361
12613606503
12613612606
12613619320
12613625973
12613632015
12613640072
12613647396
12613653866
12613660030
12613668209
12613676082
12613681576
12613687374
12613696163
12613701412
12613709591
12613715633
12613722164
12613730404
12613737362
12613744320
12613751339
12613758297
12613766170
12613770565
12613779476
12613786678
12613795406
12613802913
12613809444
12613815547
12613823909
12613829219
12613837947
12613845455
12613852901
12613859615
12613865901
12613871517
12613879756
12613884090
12613890987
12613899226
12613906245
12613912715
12613920772
12613927241
12613934566
12613942073
12613949702
12613957637
12613964839
12613972468
12613977839
12613987178
12613994624
12614000789
12614011897
12614020930
12614029536
12614033625
12614044429
12614051875
12614057490
12614063288
12614074336
12614088313
12614108515
12614116755
12614127375
12614136042
12614146174
12614155879
12614162287
12614175532
12614185481
12614193476
12614198298
12614205866
12614211604
12614219111
12614226374
12614231318
12614238032
12614244623
12614250910
12614256037
12614263911
12614271296
12614277399
12614283747
12614290033
12614295832
12614302851
12614309076
12614315912
12614322870
12614329523
12614336420
12614343744
12614350275
12614357294
12614363581
12614370295
12614376520
12614382318
12614388788
12614395197
12614401422
12614408197
12614413935
12614421137
12614428644
12614436273
12614443903
12614452081
12614456476
12614465082
12614470880
12614479791
12614486627
12614494562
12614500299
12614507928
12614514032
12614521417
12614531305
12614539239
12614545038
12614554437
12614560358
12614567010
12614575433
12614581964
12614588739
12614596490
12614602655
12614612359
12614619073
12614626458
12614633172
12614639642
12614646356
12614653314
12614660211
12614669976
12614676812
12614682183
12614690850
12614697503
12614705560
12614713616
12614721490
12614728021
12614736321
12614744378
12614752801
12614760247
12614768365
12614772698
12614782342
12614791436
12614796990
12614804436
12614812310
12614820061
12614828728
12614836114
12614842889
12614850701
12614857781
12614866204
12614874199
12614880425
12614887566
12614896111
12614903252
12614910698
12614918145
12614925896
12614933709
12614942131
12614949273
12614956902
12614964897
12614971306
12614979363
12614986565
12614993279
12614997612
12615002922
12615007256
12615012688
12615018975
12615024712
12615033013
12615041618
12615046684
12615053459
12615060783
12615065300
12615070976
12615077751
12615086967
12615094963
12615100090
12615105583
12615109673
12615115349
12615119255
12615125175
12615131035
12615135979
12615140495
12615146904
12615152092
12615156486
12615160454
12615166130
12615173454
12615179191
12615182731
12615188347
12615193229
12615198906
12615203605
12615208244
12615213615
12615219291
12615224418
12615228508
12615233268
12615239433
12615244804
12615250114
12615256340
12615263359
12615268241
12615273307
12615278129
12615285514
12615290214
12615295585
12615301444
12615309013
12615313163
12615318595
12615323783
12615329276
12615335746
12615341117
12615345878
12615352348
12615357475
12615361625
12615368644
12615374137
12615379142
12615384635
12615391776
12615397392
12615402824
12615408683
12615414237
12615419669
12615424979
12615430472
12615435844
12615441581
12615447318
12615452567
12615458182
12615466910
12615473319
12615479423
12615486075
12615492728
12615500235
12615504874
12615510428
12615514823
12615519828
12615526847
12615532645
12615537894
12615544913
12615550040
12615554984
12615561454
12615565726
12615572623
12615578360
12615583426
12615590689
12615595999
12615601065
12615606925
12615613028
12615621024
12615627554
12615634207
12615641104
12615648306
12615655936
12615663626
12615669669
12615676627
12615682669
12615688712
12615694815
12615700919
12615706778
12615712393
12615717764
12615724173
12615728995
12615736075
12615742483
12615747671
12615751700
12615757925
12615762686
12615768423
12615773489
12615778555
12615783743
12615790701
12615794851
12615799917
12615805655
12615811148
12615816458
12615822073
12615828421
12615833975
12615840811
12615846426
12615855215
12615862478
12615868399
12615875357
12615885122
12615891043
12615900808
12615907949
12615914785
12615922476
12615929983
12615936697
12615944204
12615952871
12615960867
12615968252
12615976431
12615984243
12615990469
12615996389
12616005483
12616014577
12616022451
12616029653
12616042654
12616050161
12616058645
12616062795
12616073964
12616083242
12616091543
12616099965
12616108083
12616115590
12616123525
12616130544
12616138662
12616148793
12616157094
12616164052
12616172414
12616180043
12616188100
12616195424
12616203725
12616212819
12616220815
12616228017
12616235768
12616240407
12616251820
12616258656
12616268910
12616276479
12616284596
12616291676
12616301259
12616307362
12616315358
12616323170
12616331532
12616339101
12616349476
12616356068
12616364979
12616371449
12616379933
12616387990
12616395192
12616403492
12616411671
12616419117
12616426991
12616434620
12616442433
12616450611
12616456959
12616465077
12616472889
12616481190
12616488148
12616496144
12616503224
12616510792
12616516224
12616522755
12616533131
12616541187
12616548817
12616555653
12616563099
12616569691
12616579090
12616587513
12616595264
12616603626
12616609425
12616617420
12616624683
12616632069
12616640003
12616649158
12616656971
12616664234
12616671436
12616679432
12616687061
12616693409
12616701709
12616706287
12616718921
12616726734
12616732654
12616739856
12616747425
12616756641
12616769153
12616778430
12616785572
12616794605
12616802661
12616811328
12616819202
12616828174
12616836536
12616844287
12616852893
12616859790
12616869251
12616876331
12616884875
12616892017
12616899890
12616907642
12616919116
12616928149
12616934863
12616941516
12616951221
12616959216
12616967212
12616974902
12616984179
12616991870
12616999987
12617009631
12617016223
12617025317
12617032214
12617040087
12617048693
12617056445
12617062854
12617070666
12617078906
12617086657
12617094103
12617104479
12617111437
12617118884
12617126574
12617134020
12617145068
12617151782
12617161181
12617167773
12617175646
12617182482
12617190722
12617200060
12617210314
12617218310
12617226305
12617233141
12617237963
12617243761
12617249377
12617256701
12617262133
12617267260
12617273546
12617279650
12617286181
12617292711
12617297655
12617303270
12617308092
12617313341
12617318773
12617324327
12617329943
12617335985
12617342699
12617349352
12617355883
12617361681
12617367235
12617372728
12617379076
12617384752
12617391954
12617397020
12617403734
12617409349
12617416734
12617423692
12617429369
12617438036
12617443712
12617449632
12617456102
12617463731
12617471544
12617479295
12617487047
12617497179
12617502489
12617511339
12617519884
12617528062
12617536607
12617543931
12617552781
12617561387
12617568284
12617576158
12617584703
12617593492
12617600999
12617607713
12617614671
12617622300
12617630357
12617642137
12617648423
12617656175
12617665330
12617670335
12617678697
12617689073
12617694322
12617705064
12617713792
12617723557
12617731370
12617738023
12617745286
12617753709
12617762009
12617769273
12617776170
12617781174
12617795945
12617803941
12617812241
12617820603
12617828049
12617834763
12617842148
12617849473
12617858506
12617868027
12617878586
12617885849
12617895127
12617904587
12617911789
12617920151
12617928513
12617937424
12617949814
12617958908
12617965317
12617973374
12617981186
12617988144
12617994248
12617999191
12618005539
12618013413
12618019333
12618024704
12618029099
12618035385
12618040573
12618045883
12618052658
12618057358
12618061752
12618068100
12618073654
12618078354
12618084274
12618089096
12618096359
12618102829
12618109543
12618117294
12618123764
12618130966
12618137985
12618142135
12618148178
12618152572
12618157638
12618162399
12618167282
12618172409
12618178024
12618184250
12618188644
12618193893
12618198166
12618202987
12618207260
12618212692
12618218063
12618223129
12618226852
12618231796
12618235214
12618240341
12618246017
12618254745
12618263351
12618269638
12618276107
12618283309
12618289596
12618296371
12618302963
12618311630
12618317855
12618324386
12618331649
12618338363
12618345565
12618352218
12618358016
12618368270
12618374191
12618380355
12618389327
12618396407
12618401961
12618408919
12618417831
12618424972
12618433394
12618440597
12618448043
12618454818
12618460860
12618467818
12618473678
12618484298
12618491500
12618498397
12618505538
12618513045
12618519942
12618527083
12618534896
12618544905
12618552718
12618561385
12618568099
12618576705
12618582808
12618591902
12618599593
12618605513
12618613448
12618621199
12618627974
12618635603
12618642439
12618648909
12618658003
12618667036
12618674483
12618680891
12618688521
12618694441
12618704573
12618711104
12618720808
12618728194
12618735640
12618742537
12618749373
12618755720
12618764570
12618772566
12618784590
12618792341
12618799971
12618803938
12618813643
12618820601
12618827436
12618837263
12618844526
12618851423
12618860395
12618867231
12618874616
12618882307
12618889936
12618897871
12618905561
12618913374
12618920332
12618928205
12618936384
12618944868
12618951032
12618958295
12618964948
12618970564
12618979902
12618986127
12618995405
12619002546
12619009077
12619016828
12619026166
12619031599
12619041730
12619047956
12619055036
12619061262
12619070173
12619078840
12619084760
12619093244
12619102948
12619111371
12619120343
12619127607
12619135480
12619142682
12619147931
12619155377
12619164777
12619172162
12619179425
12619188825
12619195294
12619202802
12619211225
12619218915
12619227704
12619235944
12619242535
12619250897
12619257916
12619266339
12619272748
12619280438
12619287213
12619293439
12619304547
12619311017
12619321576
12619329388
12619337384
12619347577
12619355938
12619364483
12619371991
12619380352
12619388958
12619397198
12619405133
12619412640
12619421002
12619429119
12619434002
12619441693
12619451702
12619458538
12619465435
12619474713
12619481732
12619489666
12619498577
12619505657
12619512798
12619521282
12619528729
12619534710
12619542095
12619550701
12619557171
12619566509
12619572735
12619581158
12619587322
12619595623
12619603557
12619609539
12619617596
12619627117
12619634868
12619641399
12619649456
12619654522
12619659954
12619664898
12619670330
12619676189
12619681926
12619688274
12619694194
12619699382
12619704387
12619709880
12619715068
12619719585
12619724407
12619729351
12619734233
12619739605
12619744487
12619749614
12619754619
12619759563
12619765727
12619770915
12619775737
12619780681
12619786357
12619791423
12619796855
12619803935
12619809429
12619814189
12619821025
12619827068
12619831767
12619836284
12619843303
12619848430
12619855510
12619860271
12619865215
12619871684
12619875957
12619881694
12619889873
12619895000
12619899089
12619904277
12619909953
12619914348
12619920817
12619925395
12619932414
12619938334
12619944011
12619948649
12619953410
12619961223
12619965434
12619974284
12619981486
12619986491
12619995280
12620002238
12620007853
12620014445
12620020976
12620028788
12620034770
12620039714
12620047343
12620051921
12620059367
12620063395
12620070353
12620075175
12620080607
12620086527
12620091960
12620097636
12620103251
12620109171
12620115702
12620122294
12620128397
12620133402
12620139506
12620144816
12620152567
12620159464
12620166788
12620172648
12620177409
12620185160
12620190714
12620198466
12620203226
12620209269
12620216105
12620221964
12620228617
12620235087
12620241495
12620248148
12620254069
12620260355
12620266947
12620272745
12620276041
12620284281
12620289103
12620297220
12620301981
12620307840
12620315287
12620320475
12620325846
12620331034
12620337137
12620344705
12620350077
12620355020
12620361063
12620367105
12620372476
12620377298
12620382730
12620388773
12620395426
12620400308
12620407816
12620412027
12620418741
12620423197
12620428629
12620433756
12620442911
12620447794
12620453348
12620459879
12620463541
12620470377
12620475931
12620481973
12620489358
12620495035
12620500711
12620506204
12620511941
12620517435
12620521402
12620531045
12620537698
12620547220
12620553872
12620563089
12620569436
12620576272
12620586404
12620593362
12620600869
12620611673
12620619790
12620626199
12620637185
12620643655
12620652383
12620660928
12620669045
12620678262
12620686563
12620694253
12620702432
12620710000
12620717568
12620723916
12620732461
12620738564
12620747536
12620757363
12620763222
12620772256
12620779397
12620786721
12620794472
12620801125
12620810219
12620819192
12620826394
12620833108
12620839516
12620846901
12620855629
12620863625
12620871804
12620879616
12620886757
12620894204
12620900490
12620909157
12620915200
12620923867
12620934120
12620942116
12620948464
12620956948
12620963051
12620971291
12620978005
12620985756
12620995155
12621004006
12621011452
12621019142
12621025856
12621034523
12621041298
12621048317
12621056068
12621063515
12621071510
12621084450
12621092140
12621101295
12621110451
12621118996
12621127907
12621135536
12621143043
12621152443
12621161598
12621168800
12621176124
12621183448
12621189674
12621200355
12621206764
12621214088
12621219703
12621229957
12621236183
12621243507
12621253883
12621261512
12621269569
12621277625
12621284095
12621291114
12621299354
12621306861
12621315345
12621324195
12621332191
12621338783
12621344703
12621353736
12621359229
12621368079
12621375465
12621384864
12621392737
12621399390
12621408851
12621419593
12621428138
12621438575
12621447303
12621457129
12621465857
12621474830
12621483252
12621490516
12621500647
12621507849
12621514807
12621520972
12621531409
12621539710
12621548438
12621555640
12621562964
12621571082
12621579199
12621587439
12621595496
12621602881
12621610388
12621619544
12621627051
12621634009
12621640967
12621647986
12621656226
12621665259
12621672949
12621681860
12621690222
12621698584
12621706396
12621715063
12621723364
12621730383
12621740698
12621747839
12621755530
12621765661
12621773169
12621782324
12621788733
12621794836
12621803930
12621811682
12621819616
12621827063
12621834448
12621841650
12621848974
12621856176
12621863806
12621872045
12621879736
12621887853
12621895971
12621903845
12621911230
12621917577
12621925451
12621933324
12621941747
12621945776
12621951086
12621956701
12621962133
12621968481
12621973791
12621980321
12621987340
12621992406
12621998754
12622005224
12622010778
12622016942
12622023229
12622028295
12622032750
12622037511
12622043920
12622049901
12622053869
12622059911
12622066320
12622071996
12622076940
12622084020
12622087072
12622094579
12622097997
12622103612
12622109227
12622114232
12622121984
12622126500
12622133031
12622140416
12622148595
12622156652
12622162694
12622168920
12622174779
12622182225
12622188390
12622195531
12622201878
12622205602
12622211278
12622219273
12622224583
12622231358
12622239354
12622245763
12622252476
12622256993
12622264928
12622270543
12622277196
12622281468
12622287938
12622293370
12622299046
12622303380
12622309971
12622315526
12622322056
12622327733
12622331761
12622337742
12622342747
12622347020
12622352208
12622362217
12622369969
12622376011
12622382542
12622389317
12622393589
12622400181
12622404637
12622412144
12622416783
12622423313
12622427464
12622431980
12622437718
12622441746
12622448704
12622455235
12622460057
12622465733
12622471592
12622476048
12622482945
12622488438
12622493504
12622499546
12622505039
12622509739
12622517002
12622521885
12622527378
12622532200
12622538120
12622544346
12622550755
12622557835
12622562412
12622566868
12622573948
12622580051
12622583774
12622590549
12622596531
12622603428
12622608127
12622614902
12622618748
12622625767
12622630039
12622637241
12622642002
12622647739
12622652927
12622658481
12622664646
12622670322
12622676487
12622680698
12622687168
12622692844
12622698948
12622704319
12622708835
12622715305
12622720737
12622726657
12622735080
12622742343
12622748996
12622755161
12622761753
12622766208
12622773105
12622779514
12622785495
12622791355
12622797763
12622802768
12622809360
12622815830
12622824741
12622831699
12622838718
12622848972
12622856052
12622863864
12622870090
12622877414
12622883945
12622889499
12622897006
12622904758
12622912692
12622918490
12622926242
12622933627
12622941501
12622951449
12622957919
12622966342
12622974154
12622981784
12622989718
12622996798
12623004245
12623011508
12623017428
12623025851
12623034823
12623042330
12623050265
12623058016
12623066317
12623072726
12623079562
12623090060
12623095248
12623104830
12623110445
12623120394
12623127352
12623134859
12623140597
12623150790
12623156954
12623164950
12623171603
12623178683
12623185763
12623192843
12623200594
12623207857
12623215182
12623222811
12623230196
12623238924
12623245760
12623253512
12623260470
12623267305
12623274935
12623283236
12623292635
12623297396
12623308016
12623313570
12623321688
12623328585
12623337068
12623345003
12623353731
12623361055
12623368868
12623375582
12623383272
12623390901
12623398287
12623405550
12623414827
12623422823
12623430879
12623438020
12623443697
12623452241
12623460847
12623466890
12623476106
12623482027
12623488252
12623499055
12623506685
12623515474
12623522371
12623529512
12623537935
12623547151
12623554597
12623562166
12623570466
12623579072
12623587739
12623595674
12623603791
12623612092
12623620820
12623628388
12623635041
12623641633
12623649812
12623659394
12623666535
12623674348
12623682649
12623690034
12623698213
12623706330
12623714082
12623722260
12623730317
12623738923
12623743378
12623755036
12623762055
12623770234
12623776459
12623783967
12623793976
12623801606
12623809174
12623816376
12623824311
12623832245
12623840363
12623847809
12623856354
12623865387
12623871491
12623881012
12623889252
12623896271
12623902375
12623912262
12623919403
12623926850
12623935089
12623943085
12623950897
12623959015
12623967072
12623975800
12623983185
12623991303
12623999481
12624008209
12624016510
12624022247
12624032318
12624038055
12624047760
12624055695
12624065460
12624071930
12624082001
12624089203
12624098785
12624104217
12624114227
12624119903
12624128692
12624141937
12624150299
12624157196
12624165130
12624173492
12624180877
12624188263
12624194305
12624202179
12624210418
12624216888
12624226165
12624235321
12624240203
12624249175
12624254852
12624263702
12624269195
12624276275
12624283172
12624289459
12624295501
12624302032
12624307769
12624310760
12624319061
12624325591
12624332610
12624340789
12624346038
12624350982
12624358550
12624362395
12624368072
12624375945
12624383330
12624387359
12624393462
12624398162
12624404937
12624408599
12624415008
12624420623
12624425994
12624432158
12624436370
12624440581
12624447722
12624452178
12624457610
12624464568
12624472197
12624477813
12624483062
12624489592
12624493682
12624500762
12624504973
12624512175
12624518523
12624523894
12624528899
12624534392
12624540801
12624547026
12624552764
12624558867
12624565337
12624571135
12624576872
12624583098
12624588103
12624594023
12624598296
12624603606
12624610747
12624616545
12624621428
12624625945
12624632536
12624637114
12624643828
12624649321
12624654387
12624661162
12624666411
12624671171
12624677885
12624682158
12624687895
12624693815
12624700102
12624703642
12624711638
12624718535
12624724089
12624729521
12624733000
12624740019
12624744230
12624751310
12624758940
12624763762
12624768461
12624775419
12624779631
12624786345
12624791410
12624797209
12624805021
12624810636
12624816923
12624822782
12624827970
12624834074
12624840116
12624846342
12624853544
12624860014
12624866545
12624872648
12624876005
12624883207
12624890531
12624895963
12624902250
12624910001
12624915373
12624922758
12624929288
12624935880
12624942533
12624949064
12624956144
12624963041
12624970121
12624977872
12624982023
12624987089
12624993375
12624998136
12625003629
12625010038
12625015897
12625021329
12625026639
12625031949
12625036527
12625042569
12625047574
12625053739
12625058316
12625063016
12625068143
12625072904
12625079862
12625084317
12625090116
12625096769
12625102689
12625107877
12625114469
12625120450
12625125089
12625130704
12625136380
12625148038
12625154752
12625162564
12625168790
12625174771
12625184049
12625190823
12625197049
12625206509
12625213162
12625220059
12625226163
12625234402
12625241421
12625248990
12625256436
12625265164
12625273221
12625280118
12625288174
12625294217
12625301785
12625307950
12625317837
12625323819
12625334256
12625340359
12625348599
12625355496
12625363308
12625370511
12625379849
12625387356
12625397305
12625404934
12625410549
12625420132
12625425808
12625433499
12625441006
12625448574
12625456082
12625463894
12625472866
12625479946
12625487270
12625495144
12625499661
12625509365
12625516384
12625527370
12625534878
12625542812
12625549953
12625558132
12625563930
12625571194
12625580715
12625589321
12625595852
12625602260
12625611721
12625618923
12625626247
12625634426
12625644252
12625652492
12625659511
12625667141
12625675136
12625683742
12625691310
12625698696
12625708889
12625716274
12625723720
12625729885
12625736782
12625743678
12625750820
12625758083
12625765590
12625776027
12625783717
12625790614
12625798549
12625805873
12625813441
12625821620
12625829616
12625834010
12625845058
12625852504
12625860011
12625866420
12625872890
12625882350
12625891994
12625898768
12625909022
12625915309
12625924769
12625931117
12625937892
12625946742
12625953334
12625962916
12625969508
12625978358
12625985499
12625993006
12626000636
12626007960
12626016932
12626023829
12626032862
12626040248
12626045252
12626054713
12626062037
12626069788
12626076808
12626082484
12626091944
12626100672
12626107325
12626115748
12626124598
12626132410
12626138453
12626147486
12626154383
12626164820
12626169153
12626178431
12626184290
12626193384
12626199427
12626208216
12626215723
12626223902
12626233484
12626240992
12626247828
12626255396
12626262232
12626270350
12626278345
12626288111
12626295618
12626302088
12626309961
12626316614
12626326441
12626333704
12626341272
12626349451
12626357446
12626361475
12626372278
12626379602
12626387232
12626393274
12626401636
12626408228
12626418054
12626427393
12626433008
12626443262
12626452234
12626458459
12626466272
12626473535
12626481775
12626492273
12626498193
12626507470
12626514917
12626522851
12626531823
12626538720
12626547754
12626555139
12626562341
12626567468
12626571984
12626577356
12626582482
12626589318
12626596276
12626601220
12626605554
12626612451
12626616174
12626622827
12626626794
12626633874
12626640161
12626645165
12626652246
12626657922
12626663293
12626668176
12626673242
12626677697
12626684960
12626690453
12626695153
12626700524
12626704980
12626710107
12626715905
12626723229
12626728356
12626735192
12626741967
12626747948
12626753930
12626760277
12626766747
12626772545
12626777123
12626784203
12626788659
12626795312
12626799340
12626804833
12626811974
12626817345
12626822716
12626829674
12626833275
12626840050
12626844933
12626852013
12626857201
12626863243
12626871483
12626876732
12626883568
12626887657
12626894615
12626901573
12626908104
12626914635
12626920311
12626925560
12626931298
12626936669
12626942528
12626950218
12626957787
12626961205
12626968468
12626972496
12626978050
12626983482
12626988792
12626994164
12627002098
12627007774
12627013878
12627021019
12627026024
12627034447
12627038048
12627049766
12627056297
12627065391
12627073326
12627079185
12627083885
12627092979
12627099022
12627106163
12627112755
12627118980
12627124412
12627130760
12627135215
12627142662
12627146995
12627152916
12627157432
12627163108
12627167808
12627173729
12627180137
12627184288
12627190513
12627194664
12627200645
12627206565
12627211814
12627217002
12627221519
12627228294
12627233421
12627238853
12627243858
12627249595
12627254234
12627258689
12627265769
12627269859
12627274803
12627281944
12627286887
12627291587
12627296653
12627301536
12627307883
12627312766
12627318198
12627323997
12627332908
12627338645
12627343589
12627348350
12627353477
12627358909
12627364829
12627372031
12627378440
12627384727
12627389792
12627396201
12627404319
12627411704
12627416831
12627424155
12627435508
12627442588
12627448874
12627456199
12627465232
12627473227
12627480002
12627487632
12627494529
12627503562
12627511252
12627518943
12627526389
12627531699
12627539816
12627549094
12627556967
12627564169
12627571921
12627580466
12627587851
12627593649
12627602560
12627609885
12627618124
12627625632
12627633383
12627641196
12627646384
12627654257
12627663779
12627671286
12627678671
12627685995
12627710714
12627719504
12627725912
12627735678
12627745077
12627751303
12627759420
12627766256
12627775839
12627781088
12627789083
12627797995
12627806417
12627813742
12627820822
12627828512
12627836569
12627842977
12627851766
12627860433
12627866354
12627874166
12627883016
12627890585
12627895589
12627902670
12627912862
12627919637
12627925863
12627933065
12627940633
12627949178
12627960165
12627968465
12627974447
12627982564
12627990011
12627997884
12628003682
12628012533
12628020223
12628028585
12628035299
12628042257
12628052266
12628058248
12628065694
12628074483
12628081929
12628091329
12628098470
12628104390
12628113240
12628120381
12628128377
12628132833
12628142232
12628150655
12628156331
12628163594
12628171163
12628180928
12628187032
12628198018
12628206807
12628214070
12628226155
12628231648
12628241292
12628250691
12628259846
12628267354
12628276326
12628283955
12628291707
12628300252
12628308125
12628316182
12628320454
12628331318
12628336140
12628346760
12628353047
12628360676
12628368977
12628376850
12628384297
12628390400
12628399311
12628410115
12628417256
12628424885
12628431294
12628439289
12628447285
12628455219
12628462238
12628469074
12628478169
12628484455
12628492085
12628499653
12628508137
12628515522
12628521259
12628530048
12628538532
12628546711
12628555195
12628561359
12628569843
12628579059
12628584003
12628594257
12628601703
12628609638
12628620014
12628626178
12628633503
12628642109
12628649799
12628655292
12628663227
12628672626
12628678913
12628687702
12628693805
12628701862
12628707233
12628717426
12628722980
12628732868
12628739459
12628747333
12628756000
12628763385
12628770099
12628778949
12628785419
12628793720
12628801654
12628808307
12628814960
12628822345
12628831378
12628837482
12628846942
12628853290
12628861224
12628868548
12628874042
12628880145
12628885333
12628890521
12628895587
12628899859
12628905291
12628909808
12628915240
12628920306
12628925738
12628931537
12628936847
12628942767
12628947833
12628953570
12628958514
12628963458
12628968341
12628974139
12628980181
12628987139
12628992755
12628998553
12629002947
12629009295
12629012286
12629018633
12629022906
12629029070
12629035113
12629041827
12629046832
12629050372
12629056719
12629062090
12629066790
12629072100
12629078021
12629081744
12629087115
12629093584
12629098345
12629104876
12629110125
12629116289
12629123247
12629129839
12629135760
12629141558
12629147723
12629153704
12629159197
12629166888
12629176470
12629184344
12629188982
12629196734
12629201555
12629210589
12629222124
12629227678
12629238970
12629247087
12629257280
12629262529
12629272417
12629281023
12629288164
12629298418
12629302629
12629314226
12629321794
12629332353
12629339494
12629344866
12629354326
12629361528
12629368303
12629374895
12629382158
12629390154
12629397905
12629404680
12629411638
12629420488
12629426958
12629434343
12629440385
12629448930
12629455949
12629462907
12629471086
12629481157
12629487565
12629495073
12629501115
12629508134
12629514177
12629521928
12629528947
12629538530
12629546525
12629551652
12629559953
12629566972
12629571977
12629578996
12629587968
12629593522
12629600785
12629609025
12629617021
12629622025
12629630204
12629638444
12629646073
12629652116
12629658830
12629668473
12629674394
12629682206
12629689957
12629700700
12629707108
12629715531
12629724808
12629731156
12629735367
12629745866
12629755631
12629769181
12629777115
12629783524
12629791337
12629800065
12629809952
12629816300
12629825333
12629831742
12629842545
12629851029
12629856217
12629864518
12629873307
12629882645
12629890641
12629895706
12629904190
12629910355
12629919571
12629926834
12629932511
12629939774
12629948197
12629958939
12629967850
12629975845
12629986343
12629998367
12630007156
12630014847
12630028702
12630037002
12630047256
12630055252
12630065811
12630076126
12630084305
12630092911
12630105545
12630117386
12630128555
12630136184
12630149368
12630156753
12630166702
12630177505
12630186111
12630193984
12630204544
12630216079
12630227676
12630237380
12630245681
12630257278
12630266494
12630275466
12630286819
12630297622
12630306350
12630318130
12630328567
12630337356
12630345656
12630355300
12630364944
12630373916
12630384536
12630396621
12630404677
12630413527
12630422927
12630432570
12630441848
12630453566
12630465041
12630474990
12630481215
12630497939
12630507216
12630514174
12630525527
12630537306
12630545729
12630555678
12630565443
12630576125
12630587599
12630600417
12630606520
12630616286
12630630690
12630637038
12630649122
12630660963
12630669508
12630681776
12630690382
12630702528
12630711439
12630721815
12630731703
12630740004
12630750013
12630757032
12630768080
12630782057
12630792677
12630801344
12630812025
12630822096
12630829298
12630843397
12630852796
12630863111
12630871656
12630882642
12630888929
12630901990
12630910963
12630921949
12630929700
12630940870
12630949842
12630957899
12630970960
12630979932
12630990796
12631000257
12631007520
12631018018
12631027723
12631038099
12631044324
12631055249
12631065808
12631075147
12631086927
12631095838
12631104566
12631112927
12631125134
12631135144
12631146253
12631156873
12631163892
12631174878
12631183240
12631190015
12631202405
12631209912
12631220410
12631231152
12631242932
12631248486
12631259167
12631269970
12631280530
12631291028
12631300366
12631309216
12631318310
12631332531
12631342358
12631349072
12631359143
12631368420
12631380017
12631388562
12631399609
12631408581
12631417675
12631428478
12631436108
12631447155
12631456188
12631467541
12631475719
12631485119
12631495190
12631509411
12631517406
12631527599
12631538708
12631544262
12631555858
12631565685
12631576610
12631586254
12631594738
12631606273
12631614940
12631625621
12631634044
12631643688
12631653514
12631663646
12631671459
12631684642
12631693859
12631703258
12631712108
12631725170
12631732677
12631744090
12631753612
12631762035
12631771068
12631779674
12631793224
12631798656
12631806102
12631812511
12631820567
12631824962
12631834422
12631841563
12631849193
12631853404
12631862926
12631870677
12631877879
12631884166
12631893443
12631900889
12631908397
12631915233
12631922435
12631929759
12631936412
12631942820
12631949961
12631959239
12631969065
12631975169
12631981883
12631991343
12632000315
12632005625
12632011912
12632019236
12632028880
12632038035
12632045237
12632051280
12632061350
12632068186
12632076304
12632082407
12632090220
12632101023
12632109995
12632117258
12632122813
12632129465
12632137949
12632145334
12632151194
12632158274
12632168101
12632176523
12632181589
12632189524
12632197947
12632203806
12632210398
12632220041
12632227610
12632238352
12632247812
12632253427
12632264536
12632274546
12632282175
12632289682
12632298044
12632306345
12632317087
12632326364
12632334116
12632342783
12632350107
12632356638
12632363046
12632368051
12632375131
12632380930
12632384470
12632391855
12632399057
12632403940
12632410654
12632416208
12632422311
12632428659
12632434457
12632441110
12632448068
12632452951
12632459299
12632464059
12632472787
12632477304
12632483163
12632490548
12632495065
12632501840
12632506967
12632513620
12632518258
12632524972
12632529550
12632534799
12632541330
12632546762
12632551339
12632556649
12632561776
12632568734
12632574288
12632582040
12632586373
12632592233
12632597238
12632603951
12632610055
12632616525
12632622506
12632629464
12632635323
12632639962
12632646798
12632652474
12632658395
12632664803
12632670541
12632676766
12632682259
12632686105
12632694161
12632698373
12632704598
12632711068
12632716439
12632723641
12632728524
12632735360
12632741646
12632746895
12632752633
12632757699
12632762887
12632770272
12632774727
12632782540
12632788338
12632794808
12632800972
12632806954
12632813912
12632818978
12632826973
12632833626
12632837349
12632848519
12632855660
12632866585
12632871651
12632881233
12632889900
12632900032
12632906136
12632913094
12632922371
12632928352
12632939339
12632948799
12632955818
12632962715
12632972542
12632981087
12632987679
12632996040
12633003303
12633010750
12633018684
12633027473
12633033638
12633040840
12633049690
12633057380
12633064033
12633073250
12633079780
12633089607
12633095649
12633103462
12633112312
12633119880
12633127449
12633136482
12633143806
12633152107
12633159370
12633166206
12633173774
12633181037
12633189216
12633198982
12633207221
12633214362
12633221687
12633228584
12633236213
12633242683
12633251289
12633257697
12633268012
12633274360
12633279853
12633288703
12633296027
12633303474
12633310554
12633318610
12633330451
12633339423
12633344123
12633353583
12633358954
12633369147
12633375556
12633383002
12633390815
12633399421
12633403754
12633414374
12633420111
12633429816
12633436103
12633443183
12633452521
12633460822
12633469733
12633477240
12633483344
12633489264
12633498847
12633506476
12633513312
12633521185
12633528510
12633536688
12633544257
12633551520
12633559149
12633566046
12633573431
12633582526
12633590521
12633597052
12633605170
12633613592
12633619086
12633625128
12633633429
12633643622
12633651617
12633658270
12633665472
12633674261
12633681524
12633688971
12633696295
12633705267
12633713507
12633721014
12633729620
12633736822
12633744757
12633752569
12633759344
12633767156
12633775884
12633784368
12633791815
12633800237
12633807256
12633814764
12633820806
12633830084
12633838751
12633846563
12633853094
12633862554
12633868841
12633875555
12633884283
12633889532
12633898870
12633907903
12633917242
12633925054
12633931829
12633937810
12633945318
12633953557
12633964116
12633971868
12633979619
12633986944
12633993657
12634002202
12634010259
12634016545
12634025029
12634032109
12634041997
12634048467
12634054021
12634063542
12634070256
12634077764
12634086614
12634094426
12634099492
12634110356
12634116826
12634125005
12634132390
12634138677
12634145757
12634154729
12634161321
12634169621
12634176457
12634184148
12634191533
12634197880
12634206303
12634213628
12634222050
12634229741
12634237492
12634246342
12634252995
12634261540
12634268376
12634274785
12634281621
12634286625
12634291691
12634296879
12634303471
12634307743
12634313664
12634318730
12634324040
12634330571
12634335942
12634340824
12634346196
12634350956
12634356327
12634360844
12634366459
12634373234
12634379215
12634384464
12634390507
12634396549
12634401737
12634408451
12634414616
12634420414
12634426640
12634432682
12634438664
12634444096
12634449406
12634456486
12634461796
12634467350
12634474979
12634481083
12634488712
12634493412
12634499393
12634505314
12634512577
12634518375
12634525272
12634530521
12634535221
12634541935
12634547184
12634552982
12634557682
12634564029
12634569706
12634575748
12634581424
12634586673
12634593265
12634598087
12634604129
12634610050
12634615421
12634621646
12634627506
12634632877
12634638858
12634644107
12634650821
12634656436
12634662296
12634665531
12634672611
12634678226
12634683597
12634691715
12634697513
12634702884
12634708621
12634714237
12634719425
12634725772
12634731204
12634736942
12634742130
12634749942
12634753238
12634760257
12634765628
12634772708
12634777835
12634784671
12634789615
12634795962
12634802188
12634808841
12634814395
12634821353
12634827029
12634834109
12634839847
12634844851
12634851016
12634858279
12634864932
12634870608
12634877566
12634881656
12634891055
12634897281
12634904055
12634911380
12634921511
12634932986
12634941714
12634950808
12634959658
12634966555
12634975466
12634983767
12634991152
12634998843
12635007754
12635016787
12635024600
12635034792
12635042544
12635050723
12635059756
12635066836
12635074404
12635082339
12635090884
12635100588
12635110537
12635117861
12635126711
12635135256
12635144167
12635150942
12635160158
12635166079
12635174318
12635183474
12635191286
12635202822
12635213991
12635221437
12635231813
12635238405
12635248049
12635256166
12635266847
12635271425
12635282900
12635289919
12635298097
12635306154
12635312319
12635318544
12635324770
12635331300
12635337099
12635345644
12635354433
12635362733
12635371400
12635378847
12635383424
12635394533
12635398012
12635408143
12635414125
12635424928
12635430849
12635440431
12635447572
12635454713
12635464662
12635471620
12635481263
12635487611
12635497499
12635503663
12635511720
12635520204
12635527406
12635535463
12635544007
12635553102
12635558656
12635567567
12635572877
12635578919
12635588563
12635595765
12635606324
12635613038
12635621888
12635627931
12635634034
12635643617
12635650513
12635659608
12635668092
12635675355
12635682557
12635689820
12635696046
12635705811
12635712281
12635719666
12635727418
12635737061
12635743104
12635749573
12635757508
12635764405
12635770386
12635777527
12635786072
12635795960
12635802857
12635810364
12635817994
12635825562
12635832581
12635839966
12635847046
12635856262
12635862671
12635871155
12635877686
12635884278
12635893128
12635899780
12635908997
12635917297
12635924561
12635932678
12635940186
12635948059
12635954834
12635961426
12635969238
12635977661
12635987549
12635994812
12636002746
12636009460
12636017822
12636024658
12636032593
12636040100
12636051574
12636056335
12636066040
12636074829
12636082702
12636088867
12636095520
12636105590
12636114196
12636122070
12636129577
12636136413
12636144653
12636151489
12636158081
12636167358
12636175537
12636183532
12636191100
12636199279
12636206542
12636214050
12636220886
12636229064
12636235717
12636244567
12636251220
12636260253
12636266296
12636273986
12636283202
12636290710
12636298400
12636306396
12636316161
12636323791
12636330626
12636336730
12636346190
12636351256
12636361205
12636371032
12636378539
12636383849
12636391417
12636399718
12636407653
12636413939
12636422179
12636428527
12636437987
12636444335
12636451354
12636460082
12636468505
12636476500
12636484618
12636494505
12636504820
12636511351
12636522276
12636528990
12636539732
12636547789
12636556578
12636563780
12636572935
12636582091
12636587889
12636597716
12636603148
12636611082
12636619993
12636630247
12636639158
12636646300
12636656004
12636666319
12636671507
12636682066
12636691710
12636698057
12636707212
12636713499
12636721739
12636729307
12636737913
12636746580
12636752256
12636761473
12636770628
12636778013
12636787534
12636791807
12636796324
12636803037
12636807127
12636813719
12636819822
12636826170
12636833433
12636837949
12636845823
12636851255
12636858335
12636862974
12636872312
12636875242
12636883054
12636889646
12636894712
12636898923
12636904844
12636909788
12636914792
12636917417
12636925840
12636930845
12636935911
12636938352
12636945493
12636950986
12636955991
12636961850
12636966916
12636971006
12636977903
12636983762
12636987973
12636996274
12637002805
12637007505
12637012937
12637018369
12637024106
12637028806
12637034238
12637039853
12637046567
12637051389
12637057981
12637062375
12637069455
12637074521
12637079282
12637086301
12637092282
12637097714
12637103391
12637109128
12637115659
12637120725
12637124936
12637130917
12637139279
12637144711
12637150143
12637154904
12637161801
12637165829
12637170224
12637177060
12637185361
12637191952
12637197262
12637203671
12637207944
12637213254
12637219723
12637225339
12637230465
12637235959
12637242611
12637248410
12637253354
12637257809
12637264645
12637270443
12637275876
12637281979
12637289181
12637293515
12637299069
12637304867
12637310910
12637315914
12637321469
12637326168
12637333737
12637337399
12637344601
12637349972
12637357540
12637362972
12637368466
12637375607
12637381588
12637387448
12637393063
12637399349
12637406063
12637411251
12637418575
12637425411
12637429989
12637437862
12637441463
12637448849
12637453976
12637461056
12637467831
12637475094
12637481686
12637487240
12637491573
12637497433
12637501705
12637507931
12637514339
12637518429
12637524837
12637530208
12637535030
12637540523
12637546383
12637550167
12637556637
12637562862
12637567562
12637573055
12637579219
12637583980
12637588985
12637595394
12637600643
12637605098
12637610225
12637616695
12637623348
12637628780
12637633785
12637638668
12637644832
12637652645
12637660152
12637667781
12637675655
12637683895
12637689449
12637695491
12637704646
12637710994
12637718013
12637727107
12637733821
12637743159
12637749873
12637757075
12637765071
12637771846
12637778987
12637787166
12637796992
12637804622
12637809993
12637820064
12637827388
12637834895
12637841792
12637849910
12637854548
12637867122
12637871882
12637881709
12637887568
12637894831
12637903926
12637911006
12637917720
12637926570
12637933833
12637942134
12637949336
12637956294
12637963374
12637970576
12637978266
12637985652
12637993586
12638000422
12638008479
12638017817
12638024348
12638030817
12638040156
12638047541
12638055048
12638065424
12638072932
12638080439
12638087336
12638094355
12638100580
12638109003
12638118830
12638127192
12638136774
12638144831
12638150507
12638158564
12638166376
12638175776
12638183344
12638192133
12638198969
12638207087
12638214533
12638224359
12638230890
12638237787
12638248712
12638254816
12638264765
12638271356
12638278742
12638287653
12638295770
12638301935
12638309686
12638317194
12638325800
12638334833
12638343256
12638350092
12638358148
12638362909
12638373590
12638380731
12638389581
12638397088
12638406427
12638412958
12638419366
12638429071
12638435235
12638442621
12638451654
12638458917
12638465997
12638474542
12638481439
12638489190
12638493646
12638504693
12638514215
12638523248
12638527581
12638538629
12638546380
12638551507
12638560784
12638567986
12638576348
12638584344
12638591790
12638599542
12638607659
12638614739
12638622857
12638629632
12638638177
12638647149
12638656182
12638663689
12638671746
12638678521
12638686639
12638692986
12638701653
12638710076
12638717217
12638724663
12638733086
12638741082
12638751030
12638758477
12638765130
12638773247
12638777459
12638791130
12638797783
12638806084
12638814568
12638821221
12638827568
12638836235
12638846672
12638853935
12638863518
12638869133
12638876763
12638885918
12638893242
12638898491
12638906853
12638915764
12638924858
12638931633
12638939507
12638946831
12638955681
12638963188
12638971306
12638978569
12638986015
12638995842
12639002434
12639010673
12639016655
12639025444
12639034843
12639043327
12639050346
12639056450
12639064933
12639071586
12639078422
12639087577
12639095817
12639101310
12639108818
12639115654
12639120292
12639126945
12639131523
12639137748
12639142448
12639148612
12639154228
12639157707
12639162712
12639168998
12639173820
12639180412
12639185417
12639192191
12639199821
12639204154
12639211356
12639217582
12639220573
12639226798
12639231071
12639236930
12639244010
12639250175
12639255668
12639261710
12639268546
12639273429
12639279288
12639284904
12639291312
12639297233
12639302176
12639307853
12639313346
12639318290
12639325004
12639331473
12639335319
12639343863
12639349112
12639354789
12639358268
12639365897
12639370719
12639377799
12639384635
12639390738
12639393973
12639402091
12639408194
12639413260
12639418143
12639426322
12639432730
12639437003
12639441947
12639448905
12639454337
12639460929
12639465628
12639472708
12639478079
12639484305
12639489005
12639495047
12639499991
12639505423
12639512381
12639516287
12639522147
12639527640
12639533987
12639539542
12639543875
12639550101
12639554739
12639560538
12639566214
12639572623
12639579397
12639587149
12639596121
12639602347
12639608694
12639614187
12639623221
12639629812
12639636099
12639641409
12639648794
12639656118
12639661062
12639665823
12639673147
12639678396
12639686697
12639691580
12639697134
12639704153
12639709768
12639715383
12639721304
12639727407
12639735220
12639741567
12639747366
12639753469
12639759512
12639765554
12639770315
12639775991
12639782156
12639790090
12639797170
12639801748
12639809255
12639813039
12639820730
12639826406
12639832632
12639837698
12639843801
12639849416
12639856008
12639861745
12639867727
12639873220
12639879201
12639884817
12639891408
12639898611
12639904836
12639910146
12639915761
12639921743
12639926992
12639933156
12639939138
12639945974
12639949086
12639956777
12639961538
12639968251
12639975576
12639980275
12639986013
12639993093
12639999379
12640006581
12640014211
12640022145
12640030446
12640036367
12640045766
12640050282
12640061940
12640068898
12640077992
12640085927
12640093556
12640102773
12640109242
12640117970
12640128041
12640138417
12640145924
12640154774
12640159962
12640171498
12640178273
12640187672
12640196034
12640203358
12640213673
12640219655
12640230153
12640237843
12640245961
12640253468
12640262379
12640272816
12640279469
12640286549
12640298329
12640306202
12640313404
12640323963
12640330433
12640342335
12640349354
12640358692
12640368946
12640375721
12640383228
12640395496
12640400318
12640411854
12640419971
12640427906
12640438465
12640444691
12640454090
12640461841
12640470997
12640479359
12640488331
12640495411
12640504505
12640511097
12640518970
12640529041
12640535083
12640544666
12640550220
12640560657
12640566028
12640576709
12640584644
12640590808
12640600574
12640606739
12640616504
12640621631
12640631397
12640637744
12640647876
12640654163
12640663867
12640669177
12640679859
12640685535
12640696033
12640703418
12640711536
12640720203
12640726672
12640733142
12640742969
12640749622
12640759204
12640765735
12640774951
12640782458
12640789722
12640797107
12640804187
12640813342
12640820422
12640828174
12640833056
12640844897
12640852954
12640858935
12640865100
12640874377
12640881457
12640890368
12640896960
12640904772
12640911792
12640919360
12640927966
12640934863
12640942492
12640950427
12640957507
12640965685
12640973742
12640981310
12640986926
12640997302
12641005053
12641011218
12641019091
12641027636
12641036059
12641043261
12641047900
12641055529
12641063280
12641072191
12641080187
12641086169
12641095019
12641103075
12641107348
12641117602
12641124926
12641131579
12641139391
12641147509
12641155748
12641165270
12641172960
12641180895
12641188402
12641194384
12641202806
12641211840
12641220995
12641227709
12641238512
12641246385
12641252855
12641260790
12641269212
12641276964
12641285936
12641293932
12641301683
12641308946
12641314256
12641321947
12641330553
12641338060
12641345933
12641353136
12641360704
12641368944
12641376939
12641384752
12641390550
12641398607
12641405931
12641415574
12641425340
12641431382
12641440049
12641445665
12641453477
12641461595
12641470445
12641476426
12641484239
12641493943
12641501451
12641509324
12641515061
12641520494
12641525865
12641530015
12641537461
12641542954
12641548081
12641553697
12641558640
12641563706
12641568772
12641573960
12641578843
12641584153
12641589219
12641595872
12641601853
12641607468
12641614365
12641618943
12641626328
12641632432
12641637009
12641640916
12641647507
12641651902
12641657456
12641663499
12641670334
12641676255
12641682358
12641688340
12641694810
12641700242
12641705735
12641710557
12641717454
12641723740
12641728135
12641733567
12641739487
12641745347
12641751389
12641757554
12641761277
12641769028
12641775803
12641780991
12641785874
12641792649
12641796494
12641804795
12641811508
12641817795
12641824387
12641830857
12641835129
12641841355
12641847946
12641853867
12641859482
12641866501
12641873154
12641879746
12641889084
12641894943
12641900925
12641907211
12641914047
12641919662
12641925949
12641932724
12641938644
12641943527
12641948898
12641953842
12641959457
12641965439
12641971542
12641977035
12641982345
12641987106
12641992172
12641995407
12642003219
12642007919
12642014450
12642019333
12642026230
12642033432
12642039169
12642045150
