12647467073
12647471955
12647477571
12647483186
12647488252
12647494905
12647500886
12647506501
12647512300
12647518891
12647525971
12647532075
12647538972
12647544648
12647552338
12647559235
12647564545
12647571748
12647579255
12647586274
12647593232
12647601594
12647608308
12647613984
12647621613
12647627350
12647631867
12647640595
12647647858
12647653046
12647659516
12647667023
12647674042
12647678742
12647687958
12647693940
12647699921
12647706086
12647713959
12647719635
12647727692
12647734528
12647742829
12647747956
12647754914
12647764435
12647770539
12647778351
12647786103
12647792755
12647797150
12647804413
12647809479
12647815094
12647820221
12647827240
12647832611
12647838104
12647844940
12647850372
12647856354
12647861603
12647867584
12647872345
12647878998
12647885956
12647891998
12647899750
12647905304
12647911468
12647916473
12647923553
12647929535
12647935882
12647941376
12647945831
12647952423
12647958648
12647964630
12647971893
12647977997
12647983124
12647990143
12647997039
12648002166
12648008575
12648016388
12648023101
12648029266
12648035675
12648040374
12648046356
12648053192
12648060333
12648068206
12648074249
12648081024
12648086700
12648097381
12648103546
12648112701
12648120208
12648126434
12648132720
12648141265
12648149322
12648154998
12648163543
12648170623
12648176971
12648186431
12648194488
12648201507
12648206573
12648214751
12648220794
12648227874
12648234527
12648239532
12648246062
12648253386
12648260344
12648265716
12648271819
12648278716
12648284575
12648290069
12648295989
12648302459
12648308074
12648314299
12648320952
12648329619
12648337371
12648344878
12648352690
12648360137
12648366606
12648373686
12648380644
12648387908
12648394011
12648399260
12648407622
12648413970
12648420867
12648428008
12648432707
12648441374
12648446928
12648455046
12648458830
12648468291
12648474333
12648481169
12648488676
12648493803
12648502226
12648509062
12648517912
12648525542
12648533049
12648541716
12648547697
12648557768
12648565886
12648571867
12648579863
12648587187
12648592741
12648602507
12648609953
12648616911
12648624723
12648631803
12648639677
12648646879
12648653044
12648662748
12648668974
12648677580
12648682768
12648690946
12648697782
12648705229
12648712980
12648719450
12648730680
12648739713
12648748136
12648755827
12648763334
12648772428
12648780180
12648786649
12648794950
12648801908
12648810331
12648818326
12648826261
12648833097
12648839628
12648845853
12648852384
12648860135
12648866483
12648873502
12648880338
12648888150
12648893400
12648900663
12648906766
12648914029
12648919645
12648929715
12648936246
12648943265
12648949796
12648955411
12648963834
12648969571
12648975064
12648980741
12648988614
12648992398
12648998258
12649002530
12649007779
12649013028
12649017850
12649023587
12649027615
12649032376
12649038175
12649042386
12649048123
12649052396
12649059171
12649063565
12649069241
12649074551
12649079678
12649083829
12649088956
12649097562
12649101956
12649107876
12649112820
12649118741
12649123074
12649128995
12649134976
12649139187
12649145169
12649149258
12649154996
12649160061
12649165066
12649170071
12649173794
12649180264
12649185940
12649191494
12649196316
12649201809
12649206570
12649210598
12649216946
12649223355
12649228421
12649233425
12649238491
12649242947
12649248074
12649253994
12649260403
12649266323
12649274319
12649280178
12649285610
12649292507
12649300320
12649307461
12649314053
12649320034
12649327175
12649333096
12649337978
12649345181
12649352505
12649357632
12649363430
12649367947
12649372402
12649376369
12649381191
12649386379
12649390835
12649396084
12649400234
12649403713
12649410610
12649417690
12649424709
12649429043
12649433681
12649439297
12649442592
12649448025
12649452907
12649458584
12649462978
12649468532
12649473476
12649477321
12649482082
12649485866
12649492153
12649496730
12649503750
12649508754
12649514309
12649520595
12649526760
12649532009
12649537685
12649542263
12649548549
12649553371
12649558803
12649563747
12649570156
12649576015
12649581874
12649587123
12649592189
12649597072
12649601772
12649606899
12649612819
12649619411
12649625026
12649630702
12649636379
12649643276
12649648891
12649654567
12649657985
12649666591
12649672267
12649679347
12649683314
12649688502
12649693874
12649699550
12649705714
12649710963
12649717738
12649725062
12649731654
12649740504
12649748317
12649754176
12649761195
12649770717
12649778712
12649784938
12649793300
12649801600
12649809413
12649816981
12649824672
12649834986
12649843470
12649857753
12649864527
12649876002
12649885340
12649893519
12649904444
12649908595
12649920069
12649930079
12649938685
12649946803
12649955042
12649962855
12649971033
12649975306
12649987757
12649995020
12650003077
12650010523
12650018946
12650028040
12650036158
12650044520
12650052637
12650060633
12650068812
12650077112
12650085474
12650092981
12650100855
12650106775
12650114954
12650120752
12650128992
12650137354
12650145166
12650152429
12650161768
12650169885
12650177332
12650183252
12650191797
12650199976
12650207849
12650214868
12650223352
12650229212
12650237817
12650246545
12650254053
12650260095
12650269312
12650277673
12650285669
12650293542
12650300928
12650307703
12650315088
12650320825
12650331018
12650339990
12650348352
12650356531
12650362268
12650371606
12650378991
12650386804
12650394738
12650401880
12650411523
12650416711
12650425927
12650432763
12650440210
12650447534
12650455651
12650463830
12650471704
12650479150
12650486779
12650493981
12650501367
12650510095
12650517846
12650526025
12650535790
12650542687
12650549767
12650557824
12650564538
12650571557
12650582909
12650589989
12650599206
12650606896
12650613793
12650622765
12650630578
12650638756
12650649560
12650663537
12650670983
12650680443
12650689843
12650697045
12650706932
12650714379
12650723595
12650731530
12650740258
12650747643
12650756310
12650764855
12650771263
12650779625
12650787377
12650795433
12650801170
12650809654
12650817406
12650825829
12650832359
12650843102
12650850548
12650857933
12650863731
12650871971
12650880455
12650887901
12650893822
12650901756
12650910667
12650918053
12650926353
12650934227
12650941673
12650950096
12650958763
12650967308
12650975425
12650983543
12650993614
12651001609
12651008445
12651016624
12651026329
12651034324
12651038169
12651049949
12651056297
12651063682
12651070823
12651078575
12651087181
12651095054
12651102256
12651107993
12651112754
12651117576
12651122642
12651128806
12651135215
12651142051
12651146812
12651151267
12651155662
12651161887
12651165916
12651173118
12651179099
12651184592
12651190208
12651195823
12651202231
12651207480
12651212730
12651220054
12651224998
12651231223
12651235740
12651241904
12651247214
12651252524
12651258445
12651265525
12651271140
12651278220
12651282859
12651289573
12651293479
12651299887
12651305075
12651311118
12651317160
12651325095
12651333640
12651336936
12651344931
12651351767
12651357749
12651363181
12651368979
12651375510
12651379904
12651385398
12651390891
12651395712
12651400107
12651406638
12651411398
12651415793
12651420249
12651426108
12651430319
12651437705
12651443198
12651446860
12651451498
12651456686
12651460959
12651467734
12651473410
12651479086
12651484824
12651491598
12651497458
12651501974
12651507162
12651513571
12651520346
12651525778
12651531027
12651536093
12651542807
12651547629
12651553305
12651558249
12651565451
12651570639
12651576986
12651582235
12651587606
12651594870
12651600546
12651606894
12651611227
12651618307
12651623251
12651629476
12651634970
12651639975
12651646505
12651652792
12651659017
12651663778
12651669943
12651674459
12651679708
12651685690
12651691610
12651698446
12651703268
12651709982
12651715780
12651721029
12651727010
12651733724
12651741048
12651747335
12651754110
12651760030
12651765829
12651775045
12651781148
12651786764
12651796163
12651801717
12651809835
12651814413
12651823141
12651826864
12651836812
12651841573
12651850545
12651855550
12651863363
12651869283
12651875142
12651881246
12651887593
12651895101
12651902974
12651911580
12651919820
12651925374
12651930257
12651939656
12651945699
12651954366
12651963704
12651972859
12651981893
12651988667
12651995381
12652003072
12652012959
12652020711
12652026509
12652035420
12652043294
12652051350
12652059529
12652067769
12652077107
12652083943
12652090108
12652098836
12652106038
12652112874
12652121235
12652129475
12652138569
12652144795
12652153218
12652159443
12652166829
12652176289
12652185505
12652192952
12652200825
12652208393
12652215962
12652223286
12652232868
12652238850
12652246846
12652255757
12652263142
12652270588
12652279133
12652285908
12652293049
12652299275
12652308430
12652317707
12652323383
12652331806
12652337482
12652348652
12652354755
12652362934
12652371784
12652378620
12652386005
12652392658
12652401203
12652407429
12652414936
12652423176
12652431843
12652437763
12652446491
12652454303
12652461811
12652467548
12652477008
12652486042
12652494098
12652500446
12652509723
12652515644
12652525714
12652532428
12652540607
12652549579
12652554340
12652566852
12652575336
12652582904
12652590656
12652598529
12652608905
12652618305
12652629047
12652639056
12652648883
12652658099
12652667926
12652677447
12652685504
12652693439
12652701678
12652708880
12652718280
12652727191
12652736224
12652746905
12652753619
12652762164
12652770465
12652779132
12652786151
12652793719
12652802874
12652808306
12652816729
12652824359
12652833697
12652841937
12652847674
12652856524
12652863055
12652873736
12652880877
12652889361
12652895892
12652905413
12652911456
12652919817
12652926409
12652932513
12652938738
12652947466
12652955828
12652961321
12652969927
12652976397
12652982561
12652990191
12652997515
12653006426
12653013262
12653019732
12653027422
12653033037
12653041399
12653048113
12653058489
12653065996
12653071734
12653081072
12653086931
12653094378
12653105608
12653113481
12653120623
12653128496
12653136431
12653143938
12653150957
12653159685
12653166338
12653174394
12653183794
12653190874
12653199480
12653205400
12653211870
12653220049
12653228410
12653235429
12653240984
12653246721
12653252214
12653257463
12653262529
12653267839
12653274370
12653280168
12653284990
12653290910
12653294939
12653301652
12653309587
12653317338
12653325273
12653330827
12653335710
12653342607
12653347490
12653355119
12653359819
12653365434
12653370134
12653376359
12653381303
12653385881
12653390214
12653395219
12653399064
12653402970
12653408525
12653412126
12653419206
12653423661
12653427812
12653432878
12653437516
12653441728
12653445634
12653454057
12653458329
12653463456
12653468461
12653473405
12653477799
12653482316
12653488114
12653491837
12653496537
12653501420
12653506974
12653511002
12653515031
12653521378
12653525773
12653531205
12653536149
12653542008
12653548417
12653554642
12653561051
12653567826
12653573685
12653578751
12653585221
12653590714
12653596451
12653601578
12653607010
12653612931
12653618729
12653624955
12653631424
12653637589
12653643876
12653649369
12653654252
12653658219
12653664505
12653668839
12653675248
12653681290
12653687882
12653692582
12653696976
12653701554
12653706559
12653712601
12653719498
12653726822
12653732498
12653737137
12653741837
12653747574
12653753556
12653758621
12653767838
12653774979
12653781815
12653788651
12653795242
12653801407
12653808243
12653812882
12653819595
12653826187
12653832657
12653837540
12653845474
12653850784
12653858047
12653864517
12653869583
12653874344
12653880936
12653886795
12653892349
12653899246
12653905105
12653910354
12653916641
12653922806
12653928360
12653934585
12653939651
12653945022
12653950943
12653957596
12653965347
12653972122
12653979690
12653989578
12653996902
12654005630
12654013504
12654020828
12654028030
12654033767
12654040542
12654050857
12654058914
12654067214
12654076309
12654084304
12654092056
12654100845
12654107497
12654114700
12654121474
12654129226
12654135818
12654141433
12654150588
12654161574
12654169753
12654176711
12654183120
12654192763
12654199538
12654207290
12654213393
12654224624
12654231093
12654237746
12654245376
12654253493
12654261001
12654268447
12654275954
12654284560
12654290847
12654297805
12654304702
12654309829
12654317275
12654326369
12654333388
12654340712
12654348403
12654356093
12654363417
12654368910
12654378615
12654387099
12654393691
12654402968
12654412489
12654421278
12654435866
12654444960
12654453871
12654463515
12654472243
12654479933
12654488234
12654499769
12654508253
12654517286
12654526198
12654534926
12654542982
12654551588
12654559156
12654567213
12654575087
12654583693
12654589003
12654597792
12654604689
12654613722
12654621412
12654628858
12654634901
12654642225
12654652235
12654660047
12654666822
12654675184
12654682081
12654688734
12654696241
12654704908
12654710951
12654719862
12654727308
12654733350
12654740491
12654748975
12654755933
12654763685
12654768568
12654776563
12654784009
12654791639
12654801954
12654808423
12654816907
12654824415
12654832410
12654839917
12654847913
12654855909
12654863233
12654871839
12654880689
12654888013
12654895703
12654905225
12654912671
12654919751
12654928601
12654934583
12654944226
12654952222
12654958997
12654966992
12654974439
12654983228
12654989942
12654998792
12655005139
12655015332
12655024243
12655031445
12655040967
12655049206
12655057019
12655067029
12655074536
12655085583
12655091565
12655102002
12655109448
12655119824
12655128674
12655135754
12655145947
12655156750
12655166516
12655174633
12655182385
12655191113
12655198681
12655207043
12655215283
12655221508
12655224499
12655230786
12655237133
12655242199
12655247143
12655253552
12655257031
12655265454
12655269848
12655276440
12655280468
12655287121
12655292309
12655297802
12655302990
12655308178
12655314159
12655319225
12655323681
12655330151
12655335155
12655341381
12655346996
12655351574
12655358898
12655364513
12655370129
12655378246
12655384655
12655390514
12655397716
12655403209
12655410290
12655415722
12655420849
12655428600
12655433788
12655439403
12655445568
12655450939
12655455822
12655461803
12655466747
12655473339
12655476818
12655484996
12655490917
12655495983
12655502513
12655507823
12655512279
12655518932
12655524059
12655530101
12655535533
12655541759
12655548290
12655554820
12655559276
12655565807
12655568981
12655577464
12655582713
12655588390
12655594005
12655600414
12655607311
12655614269
12655620738
12655627208
12655633006
12655639415
12655643993
12655649425
12655655467
12655660960
12655668040
12655672862
12655679271
12655685374
12655690196
12655696055
12655702281
12655709178
12655718699
12655724864
12655732371
12655737132
12655742015
12655748423
12655755442
12655761424
12655767405
12655772349
12655776744
12655783335
12655787852
12655796214
12655801219
12655807139
12655814219
12655821726
12655826365
12655831919
12655838145
12655843943
12655848521
12655853404
12655859934
12655865550
12655870249
12655875315
12655880564
12655886851
12655894419
12655899424
12655905467
12655910044
12655915537
12655920725
12655925181
12655931406
12655936594
12655941721
12655947642
12655952036
12655957346
12655961680
12655967112
12655973704
12655980295
12655986643
12655991526
12655995737
12656001597
12656006235
12656014841
12656021189
12656027170
12656034250
12656042917
12656051340
12656058237
12656068064
12656077463
12656085459
12656092112
12656099375
12656106211
12656113718
12656124033
12656131357
12656139963
12656149240
12656159250
12656166269
12656177194
12656185861
12656194772
12656203867
12656212961
12656219431
12656228403
12656234933
12656244150
12656253793
12656262277
12656269113
12656278085
12656284616
12656294565
12656303110
12656314523
12656324350
12656333810
12656343087
12656353647
12656362313
12656374154
12656382394
12656392221
12656402108
12656408822
12656418161
12656424935
12656433969
12656444283
12656452584
12656462106
12656470406
12656476937
12656486886
12656493173
12656501839
12656510323
12656515939
12656524728
12656531991
12656540658
12656547311
12656555855
12656563790
12656571053
12656578683
12656588021
12656596261
12656604745
12656613778
12656620186
12656627572
12656637032
12656643197
12656652352
12656659737
12656668892
12656676644
12656685067
12656691353
12656700753
12656706673
12656715218
12656723824
12656729683
12656737007
12656745674
12656751229
12656760872
12656770027
12656777718
12656785164
12656791084
12656799507
12656806892
12656818855
12656827766
12656833565
12656841682
12656849068
12656855049
12656863838
12656870125
12656876472
12656885750
12656893074
12656899788
12656906746
12656915596
12656922798
12656931526
12656938484
12656947883
12656953926
12656962410
12656968940
12656975715
12656983284
12656990974
12656997383
12657007331
12657014045
12657022102
12657028449
12657036140
12657044624
12657051887
12657058540
12657067634
12657074836
12657083137
12657089057
12657097419
12657103278
12657111823
12657117683
12657131416
12657142951
12657150825
12657162604
12657172065
12657178107
12657185248
12657194221
12657204413
12657211554
12657218818
12657225531
12657232306
12657239509
12657247077
12657254828
12657263923
12657270819
12657278388
12657284980
12657291022
12657297919
12657309272
12657317755
12657324652
12657332038
12657337226
12657346442
12657353522
12657360724
12657368170
12657375433
12657382086
12657390143
12657394782
12657399664
12657404974
12657410345
12657415717
12657422369
12657426276
12657431952
12657437262
12657443610
12657448065
12657454779
12657459357
12657464911
12657470831
12657476019
12657481207
12657488470
12657494757
12657500799
12657507330
12657511908
12657518927
12657523443
12657528204
12657535772
12657543280
12657548590
12657554388
12657559576
12657564886
12657569098
12657575018
12657579779
12657589483
12657597418
12657603338
12657608221
12657614263
12657618536
12657625433
12657629888
12657634649
12657642523
12657647589
12657654119
12657658514
12657665472
12657669500
12657676397
12657680914
12657687627
12657695501
12657701543
12657705938
12657712103
12657719183
12657725896
12657730474
12657736455
12657741766
12657749578
12657755682
12657761480
12657770391
12657775884
12657792303
12657799749
12657806157
12657811101
12657817266
12657823430
12657829046
12657835698
12657840581
12657846135
12657851262
12657855596
12657860723
12657867070
12657871526
12657876348
12657880864
12657887822
12657893132
12657898442
12657904790
12657909673
12657913579
12657918828
12657924626
12657931706
12657937016
12657943181
12657949407
12657954839
12657959355
12657964482
12657969121
12657974858
12657979253
12657984380
12657990239
12657994206
12658001042
12658005620
12658012761
12658017094
12658024846
12658030766
12658035283
12658040471
12658046818
12658052190
12658056767
12658062077
12658069035
12658075322
12658080998
12658085576
12658091801
12658096318
12658102727
12658107365
12658114567
12658120549
12658125065
12658132451
12658137211
12658144352
12658151921
12658158329
12658164067
12658171086
12658177311
12658182743
12658189091
12658194401
12658200688
12658206059
12658212712
12658217594
12658225285
12658230839
12658236454
12658243778
12658252506
12658260502
12658269962
12658278690
12658286686
12658294071
12658300175
12658308781
12658317509
12658325687
12658332096
12658342472
12658347355
12658358341
12658365665
12658373478
12658388920
12658397465
12658407352
12658415653
12658422367
12658431095
12658440189
12658449466
12658457706
12658463993
12658473636
12658479068
12658489933
12658499027
12658505741
12658514224
12658522647
12658530582
12658539920
12658547733
12658555179
12658562564
12658570804
12658577396
12658586124
12658593387
12658602969
12658611514
12658619876
12658626712
12658635501
12658642032
12658649966
12658659854
12658666629
12658674319
12658682376
12658689883
12658694156
12658705325
12658713504
12658721805
12658729617
12658737857
12658744510
12658753970
12658760379
12658767154
12658776797
12658783755
12658793460
12658801577
12658808901
12658817568
12658825015
12658833438
12658841250
12658848025
12658856326
12658865847
12658872134
12658878848
12658888491
12658894961
12658903384
12658913088
12658919863
12658929690
12658938540
12658945071
12658952395
12658961977
12658969790
12658977114
12658983767
12658992067
12659000185
12659009096
12659017214
12659025393
12659031862
12659040102
12659046572
12659055056
12659065248
12659071596
12659081240
12659087587
12659097292
12659105104
12659112490
12659120851
12659129213
12659137026
12659145693
12659153688
12659161928
12659169374
12659177980
12659190920
12659200014
12659204530
12659214540
12659223878
12659232851
12659241395
12659249757
12659254396
12659265138
12659275026
12659282716
12659288637
12659295900
12659304323
12659311647
12659318910
12659327150
12659334657
12659342042
12659349000
12659358888
12659366700
12659373109
12659379945
12659387635
12659395509
12659402040
12659408265
12659417115
12659424195
12659430543
12659436524
12659444032
12659451844
12659461427
12659468263
12659474915
12659482789
12659491700
12659498780
12659507508
12659515809
12659521790
12659531007
12659537415
12659547303
12659553712
12659561341
12659571534
12659580201
12659588624
12659597657
12659604004
12659612122
12659618592
12659628296
12659635254
12659646424
12659654847
12659662903
12659670777
12659678833
12659684326
12659692688
12659702210
12659710510
12659716187
12659723267
12659726380
12659733826
12659739807
12659747193
12659752014
12659758545
12659765259
12659771118
12659777527
12659782715
12659788269
12659793579
12659800415
12659803955
12659812195
12659817993
12659825256
12659830933
12659837341
12659843140
12659849670
12659854309
12659860718
12659865356
12659870483
12659875244
12659883240
12659888550
12659895813
12659900879
12659906067
12659912536
12659917419
12659924560
12659928161
12659937439
12659945129
12659950195
12659955017
12659962219
12659968933
12659976501
12659982849
12659987670
12659992614
12659998168
12660003967
12660010925
12660017333
12660023193
12660028137
12660034057
12660038024
12660043640
12660049560
12660058044
12660061462
12660068054
12660073852
12660079223
12660084411
12660089660
12660096557
12660101928
12660108947
12660112548
12660119994
12660126220
12660132506
12660138427
12660145019
12660149352
12660154906
12660160888
12660167174
12660173888
12660179625
12660184508
12660191039
12660195067
12660201720
12660205443
12660210814
12660218261
12660223876
12660229674
12660235045
12660241515
12660247435
12660253783
12660259276
12660265258
12660271117
12660276061
12660281676
12660289000
12660293456
12660298766
12660305419
12660310973
12660317931
12660323790
12660328368
12660334654
12660341063
12660344847
12660352843
12660358946
12660365843
12660372313
12660378539
12660386839
12660393858
12660398497
12660407652
12660415770
12660423094
12660434202
12660441588
12660451292
12660459166
12660466307
12660472655
12660482481
12660491453
12660499022
12660508482
12660515623
12660524107
12660531920
12660541929
12660547300
12660558104
12660565977
12660574095
12660582579
12660592955
12660601744
12660609068
12660617491
12660629270
12660640684
12660651914
12660660581
12660668089
12660681089
12660692930
12660704099
12660717100
12660720518
12660735410
12660745603
12660756284
12660771116
12660781492
12660794004
12660803647
12660812742
12660822812
12660834775
12660846372
12660855771
12660868833
12660879514
12660888791
12660900632
12660911496
12660923215
12660929440
12660939694
12660953854
12660961545
12660973813
12660983517
12660991757
12661000790
12661010007
12661020566
12661030148
12661041806
12661047970
12661061581
12661070492
12661079953
12661093136
12661102414
12661113217
12661122555
12661131710
12661140377
12661150936
12661162106
12661171871
12661185360
12661197323
12661207272
12661217587
12661226681
12661239803
12661245724
12661259762
12661269466
12661280941
12661288448
12661295101
12661313839
12661320309
12661334713
12661343502
12661356319
12661367000
12661377743
12661391659
12661398678
12661411007
12661421627
12661433223
12661439754
12661455684
12661464778
12661473567
12661486568
12661496211
12661506709
12661518245
12661528499
12661534480
12661548946
12661560237
12661568965
12661580745
12661591548
12661600764
12661610103
12661620357
12661630672
12661642024
12661654109
12661662898
12661671748
12661683833
12661693049
12661703059
12661713008
12661725032
12661736384
12661747676
12661762019
12661771907
12661787470
12661798030
12661807002
12661817317
12661826472
12661837214
12661846186
12661856318
12661869379
12661879572
12661885249
12661893061
12661901240
12661910700
12661918391
12661925715
12661933283
12661941462
12661950373
12661958613
12661965815
12661975702
12661983149
12661991572
12661999384
12662007074
12662015925
12662024469
12662031183
12662040949
12662047846
12662056330
12662062860
12662075434
12662081110
12662092462
12662101740
12662109003
12662117548
12662124811
12662133539
12662140863
12662146906
12662157526
12662163934
12662171991
12662181451
12662189874
12662197198
12662205255
12662212945
12662221612
12662229425
12662236017
12662245599
12662251825
12662261102
12662268060
12662277643
12662284356
12662291803
12662298761
12662308893
12662314508
12662324945
12662331842
12662340814
12662348260
12662357598
12662364740
12662373101
12662378411
12662385125
12662389581
12662396295
12662402703
12662408563
12662413506
12662417718
12662424188
12662429315
12662435601
12662439874
12662445855
12662450311
12662455193
12662461541
12662466729
12662471307
12662476434
12662481377
12662486382
12662492181
12662498650
12662504388
12662509942
12662514458
12662520562
12662526238
12662533196
12662539788
12662545586
12662551446
12662557549
12662563531
12662569268
12662574944
12662581841
12662586663
12662593438
12662599175
12662604851
12662607842
12662614983
12662619622
12662624688
12662629021
12662634941
12662639885
12662646233
12662650566
12662656365
12662661003
12662667473
12662672173
12662677178
12662684563
12662690605
12662694878
12662699394
12662704949
12662708245
12662714165
12662718498
12662726921
12662731316
12662737908
12662742241
12662746941
12662752068
12662758781
12662763176
12662769585
12662776543
12662781792
12662786430
12662791557
12662795525
12662801323
12662806755
12662812858
12662818108
12662824333
12662829765
12662834892
12662838005
12662845512
12662850090
12662856987
12662863945
12662868950
12662874748
12662878166
12662884636
12662889030
12662895622
12662899650
12662906547
12662910637
12662916191
12662921745
12662926567
12662930717
12662936821
12662941764
12662947380
12662952751
12662960319
12662966911
12662972404
12662977897
12662983573
12662988395
12662996818
12663002738
12663008232
12663013786
12663018791
12663024162
12663029411
12663035209
12663042533
12663046989
12663053703
12663060539
12663064933
12663070365
12663076957
12663082084
12663092216
12663099357
12663107719
12663113151
12663119376
12663126029
12663130118
12663139823
12663144340
12663150382
12663156486
12663162345
12663167960
12663173148
12663178885
12663182486
12663190238
12663192557
12663200553
12663206717
12663212699
12663223563
12663233573
12663240287
12663247245
12663254874
12663260123
12663270987
12663279654
12663287406
12663294242
12663303641
12663310782
12663318106
12663327200
12663334708
12663338553
12663350943
12663355704
12663364615
12663372672
12663379019
12663386038
12663394949
12663401907
12663408682
12663417837
12663426626
12663434683
12663441702
12663449637
12663457998
12663463614
12663475149
12663482840
12663488699
12663498343
12663504202
12663512686
12663518240
12663527151
12663537161
12663545095
12663554373
12663562185
12663570303
12663576040
12663582205
12663594412
12663600454
12663607534
12663615286
12663622366
12663630056
12663637136
12663644827
12663652517
12663659536
12663668569
12663674062
12663683584
12663689016
12663697744
12663704153
12663712636
12663719350
12663726613
12663733755
12663743093
12663749563
12663758108
12663764821
12663774831
12663782277
12663788503
12663799855
12663807729
12663815908
12663823232
12663832814
12663841359
12663846975
12663856374
12663865651
12663873586
12663880300
12663888173
12663897756
12663905690
12663913259
12663920766
12663928151
12663935780
12663943227
12663949452
12663957814
12663965199
12663971364
12663978810
12663984425
12663990773
12663999135
12664007558
12664013112
12664021351
12664029164
12664036366
12664044179
12664052907
12664057484
12664067067
12664073658
12664082020
12664088856
12664094960
12664101551
12664111317
12664117237
12664124989
12664132923
12664140126
12664146656
12664150318
12664159413
12664168019
12664176564
12664181568
12664190052
12664198109
12664204884
12664212818
12664221668
12664229969
12664235584
12664241993
12664250416
12664258839
12664264393
12664274220
12664281361
12664290577
12664297352
12664304127
12664312122
12664319263
12664326099
12664335499
12664341480
12664350879
12664359669
12664366199
12664375721
12664383655
12664391712
12664399646
12664407215
12664414234
12664421436
12664428699
12664436023
12664444812
12664452381
12664460315
12664469409
12664475452
12664484302
12664491870
12664498096
12664508045
12664516651
12664529407
12664537402
12664545947
12664552234
12664557666
12664563953
12664570666
12664577502
12664580798
12664588733
12664594653
12664602893
12664610095
12664616199
12664625293
12664631518
12664638904
12664644458
12664651721
12664656970
12664661670
12664667163
12664671863
12664677234
12664681567
12664686938
12664692859
12664698230
12664702929
12664707995
12664713733
12664719043
12664724719
12664730761
12664735461
12664741626
12664746691
12664751818
12664756945
12664765368
12664770251
12664777148
12664782214
12664787341
12664793933
12664798510
12664803393
12664807665
12664813708
12664818285
12664823962
12664828356
12664834887
12664839282
12664845873
12664851733
12664858080
12664863207
12664869006
12664873278
12664878466
12664882922
12664889819
12664894518
12664899462
12664905138
12664910082
12664916125
12664919726
12664927233
12664932970
12664938402
12664943346
12664951708
12664957201
12664962267
12664966845
12664973864
12664978930
12664983324
12664990770
12664994433
12665002794
12665008043
12665013781
12665018114
12665023973
12665028734
12665035021
12665040209
12665046617
12665052904
12665059069
12665064684
12665072618
12665078478
12665085924
12665091051
12665096910
12665105028
12665111620
12665116319
12665125047
12665128832
12665136034
12665140611
12665148485
12665153856
12665160509
12665164598
12665170824
12665175157
12665180772
12665187242
12665192308
12665197740
12665203844
12665207933
12665213365
12665218004
12665223131
12665227708
12665232347
12665238267
12665244737
12665250352
12665254808
12665261644
12665267015
12665271226
12665275804
12665283983
12665289537
12665293809
12665300157
12665303819
12665311021
12665317125
12665321946
12665326280
12665333055
12665337632
12665344285
12665350022
12665354966
12665359727
12665365220
12665372788
12665381578
12665389634
12665395738
12665402146
12665412156
12665418443
12665426743
12665435899
12665443528
12665451096
12665459214
12665468430
12665475571
12665482896
12665491624
12665498826
12665506455
12665514878
12665524460
12665530625
12665539841
12665547104
12665556382
12665563157
12665574082
12665581833
12665590012
12665598130
12665606064
12665613511
12665621567
12665627976
12665637253
12665644944
12665654282
12665663864
12665670273
12665680588
12665686875
12665696396
12665703293
12665710983
12665719101
12665728317
12665736130
12665745590
12665753891
12665760910
12665770065
12665776108
12665787460
12665794662
12665804123
12665813156
12665822555
12665830917
12665837814
12665846847
12665856918
12665863327
12665873581
12665879928
12665890670
12665896408
12665907333
12665915695
12665923385
12665931198
12665939559
12665947189
12665955795
12665960006
12665969711
12665976242
12665986556
12665992782
12665999923
12666009384
12666015548
12666024032
12666030441
12666039169
12666046554
12666052901
12666058761
12666068893
12666076766
12666083541
12666089461
12666096725
12666103499
12666113326
12666121383
12666129439
12666138045
12666146041
12666153121
12666161239
12666169295
12666174239
12666184127
12666190230
12666200972
12666209151
12666217147
12666224898
12666231185
12666239180
12666248397
12666257491
12666266524
12666274336
12666280623
12666289961
12666296370
12666304915
12666313399
12666323531
12666331709
12666339827
12666346907
12666354597
12666363264
12666371077
12666377730
12666386153
12666395003
12666402937
12666410383
12666417464
12666425337
12666432661
12666440474
12666448897
12666455794
12666465620
12666471785
12666479170
12666486128
12666493635
12666501081
12666510603
12666518537
12666525373
12666533064
12666539472
12666546125
12666555342
12666562727
12666571089
12666580610
12666587507
12666595686
12666602278
12666611067
12666620222
12666626814
12666637617
12666645246
12666656904
12666665205
12666674909
12666683332
12666689619
12666700239
12666702375
12666717512
12666727460
12666736677
12666746015
12666757001
12666764142
12666776471
12666786969
12666797712
12666807538
12666816144
12666828351
12666840192
12666856366
12666867841
12666879315
12666891767
12666901959
12666913800
12666925092
12666934247
12666941876
12666948895
12666955731
12666964093
12666972577
12666980878
12666989117
12666996442
12667004254
12667012372
12667019940
12667025433
12667035077
12667044415
12667052594
12667061383
12667068219
12667075421
12667085064
12667093121
12667103131
12667109539
12667119305
12667128521
12667134625
12667144268
12667150372
12667160443
12667167156
12667176678
12667183453
12667190960
12667198712
12667206524
12667215069
12667222637
12667230389
12667239056
12667245831
12667254559
12667262676
12667268841
12667278545
12667284710
12667292950
12667297893
12667305645
12667313518
12667320110
12667326519
12667334575
12667342937
12667351116
12667359234
12667367595
12667375469
12667383098
12667391521
12667399761
12667407390
12667414897
12667421917
12667428691
12667437114
12667444866
12667452251
12667460613
12667468181
12667475566
12667481426
12667490337
12667496135
12667506023
12667513164
12667521953
12667529338
12667536357
12667542888
12667552043
12667562236
12667568767
12667577129
12667583659
12667590373
12667598247
12667607341
12667615703
12667625712
12667635539
12667643413
12667650493
12667658000
12667665690
12667673930
12667682963
12667690654
12667699565
12667707621
12667715434
12667723246
12667730632
12667737651
12667746623
12667754313
12667761332
12667769633
12667778483
12667785990
12667791789
12667801127
12667807414
12667818522
12667826151
12667833537
12667840800
12667850199
12667858195
12667865336
12667874247
12667881449
12667889994
12667897135
12667905131
12667914347
12667921122
12667930094
12667938517
12667944498
12667954325
12667965067
12667973795
12667980753
12667993570
12668002359
12668013468
12668022013
12668032572
12668043375
12668050272
12668063333
12668072916
12668084207
12668092081
12668102335
12668111185
12668120889
12668132669
12668142496
12668150369
12668157388
12668164957
12668170450
12668178628
12668186868
12668192117
12668202676
12668208352
12668216470
12668222574
12668230386
12668235696
12668243203
12668250589
12668256814
12668263894
12668271585
12668277871
12668284524
12668292886
12668299173
12668306497
12668311990
12668319070
12668326272
12668330789
12668338784
12668346414
12668351968
12668359719
12668365518
12668371682
12668378762
12668385659
12668393960
12668400308
12668406289
12668414040
12668420022
12668425149
12668431496
12668439004
12668446206
12668452370
12668458718
12668465615
12668471413
12668477029
12668486245
12668494057
12668499489
12668507119
12668514443
12668522256
12668530373
12668536599
12668542153
12668549416
12668556862
12668564370
12668571022
12668580178
12668586647
12668593300
12668600869
12668609169
12668616555
12668624855
12668631874
12668638954
12668646034
12668654030
12668659889
12668669045
12668675514
12668682717
12668689736
12668696938
12668704140
12668711586
12668715492
12668727333
12668733315
12668743874
12668752907
12668759499
12668767921
12668773903
12668783058
12668788978
12668798500
12668806190
12668817726
12668827614
12668833778
12668843483
12668852028
12668860511
12668869301
12668877784
12668888099
12668894874
12668902137
12668912147
12668920509
12668926795
12668933876
12668938819
12668946266
12668952247
12668960365
12668968055
12668975196
12668981788
12668989723
12668997474
12669003150
12669015846
12669024390
12669030616
12669042030
12669048316
12669056007
12669061744
12669070167
12669078467
12669086646
12669093726
12669101905
12669108436
12669114539
12669121619
12669130652
12669136939
12669143592
12669151221
12669158423
12669164588
12669171241
12669179908
12669187476
12669192725
12669199378
12669207373
12669216101
12669221595
12669232581
12669237342
12669247595
12669250891
12669257544
12669262915
12669268103
12669274146
12669278906
12669284766
12669290869
12669296484
12669302100
12669306982
12669312109
12669317236
12669323279
12669329016
12669333838
12669338477
12669343787
12669349951
12669355994
12669360754
12669366247
12669372290
12669378088
12669383765
12669390356
12669395605
12669400671
12669404822
12669411902
12669417456
12669422522
12669426977
12669434302
12669440466
12669446936
12669452185
12669459631
12669466955
12669472143
12669477575
12669483496
12669488379
12669495947
12669499731
12669507055
12669513464
12669519018
12669523291
12669529699
12669534521
12669540014
12669544348
12669551611
12669556066
12669562780
12669566931
12669574072
12669579077
12669585424
12669592382
12669597265
12669604467
12669609655
12669614904
12669621984
12669627050
12669634008
12669639806
12669646703
12669653417
12669658971
12669663488
12669669958
12669677892
12669683996
12669690587
12669695226
12669700475
12669708349
12669713720
12669720922
12669725622
12669730932
12669737951
12669743871
12669751012
12669757360
12669762182
12669767492
12669774022
12669778173
12669783544
12669788366
12669796666
12669803563
12669808751
12669812902
12669819188
12669821996
12669829869
12669835912
12669841710
12669847753
12669853917
12669858678
12669866063
12669870397
12669876622
12669881261
12669885777
12669893102
12669899693
12669904515
12669911229
12669916295
12669921910
12669927037
12669932347
12669938939
12669942296
12669952061
12669956517
12669962743
12669970006
12669976170
12669978856
12669985936
12669991368
12669999608
12670004185
12670010655
12670015172
12670022191
12670026646
12670031712
12670037694
12670045384
12670055943
12670061924
12670068394
12670074437
12670079991
12670086705
12670092869
12670099827
12670103550
12670110752
12670116429
12670124974
12670131199
12670140232
12670149876
12670155552
12670163792
12670169285
12670181187
12670188938
12670196873
12670203953
12670212803
12670219395
12670225437
12670231541
12670239841
12670245884
12670256077
12670262852
12670270725
12670278599
12670286106
12670293125
12670298923
12670307651
12670317173
12670324619
12670330112
12670338108
12670346592
12670354465
12670360263
12670369053
12670379428
12670387119
12670394138
12670401279
12670408420
12670415927
12670424106
12670431797
12670440891
12670447849
12670455478
12670461948
12670470310
12670476779
12670484165
12670493137
12670500644
12670507785
12670516025
12670522800
12670530429
12670539096
12670545566
12670554721
12670563510
12670569369
12670578769
12670584628
12670593478
12670601169
12670606540
12670618930
12670624789
12670632724
12670639743
12670646945
12670654757
12670662204
12670671603
12670680331
12670689486
12670697543
12670703707
12670712069
12670720736
12670727999
12670736727
12670744906
12670751986
12670761691
12670772067
12670780245
12670794161
12670803683
12670809115
12670818636
12670824923
12670833895
12670840975
12670849947
12670856966
12670865633
12670873385
12670878451
12670887362
12670894747
12670901949
12670910982
12670918184
12670925570
12670932406
12670939974
12670947847
12670954012
12670961214
12670969881
12670978243
12670984407
12670990511
12670997042
12671004671
12671010347
12671018831
12671027010
12671032503
12671042513
12671047823
12671056673
12671061800
12671070772
12671078523
12671085603
12671091463
12671100008
12671105562
12671114351
12671122041
12671132722
12671139741
12671148164
12671153841
12671162202
12671169771
12671177217
12671182893
12671191804
12671199800
12671205415
12671216829
12671225252
12671233674
12671242463
12671251558
12671255952
12671266084
12671273774
12671282075
12671290620
12671299958
12671308503
12671318330
12671324800
12671334138
12671342073
12671347932
12671357575
12671365083
12671375276
12671382234
12671390473
12671398469
12671407624
12671415925
12671424592
12671431611
12671438386
12671443024
12671447053
12671453034
12671457246
12671465424
12671472932
12671480927
12671488251
12671496186
12671502656
12671507783
12671514741
12671519928
12671531525
12671536713
12671542878
12671547577
12671552521
12671559906
12671564301
12671571259
12671575226
12671582306
12671586029
12671591034
12671596833
12671602326
12671607636
12671612091
12671616974
12671621674
12671628998
12671632843
12671638703
12671642304
12671648041
12671652130
12671657929
12671662872
12671670502
12671675140
12671680634
12671685150
12671692108
12671697601
12671702545
12671709015
12671715668
12671720428
12671726898
12671733002
12671737884
12671743988
12671749115
12671753632
12671759796
12671765839
12671771332
12671776214
12671780426
12671785370
12671790680
12671797516
12671802765
12671808746
12671814361
12671820953
12671825226
12671830902
12671837799
12671843597
12671850067
12671853912
12671860931
12671865753
12671870758
12671875213
12671882537
12671887542
12671892669
12671897918
12671902740
12671907562
12671912200
12671918243
12671923797
12671929046
12671934783
12671940826
12671945831
12671950164
12671956268
12671960784
12671968841
12671973724
12671978179
12671984771
12671989105
12671997344
12672004913
12672011871
12672019256
12672025909
12672032989
12672039580
12672044952
12672050506
12672057586
12672063506
12672069305
12672074309
12672080230
12672084685
12672090301
12672096343
12672102447
12672107573
12672112578
12672116912
12672121489
12672125640
12672132537
12672136992
12672142485
12672147735
12672153289
12672158904
12672162505
12672166228
12672172087
12672179534
12672183867
12672189605
12672195464
12672200591
12672209502
12672217925
12672225798
12672231963
12672239348
12672249297
12672256316
12672264128
12672272429
12672279692
12672286406
12672295012
12672299101
12672313139
12672319182
12672327116
12672336150
12672344511
12672348662
12672359099
12672365629
12672374602
12672381376
12672391508
12672397734
12672404875
12672414091
12672421232
12672428618
12672436308
12672446745
12672454435
12672461760
12672468840
12672476957
12672484892
12672493193
12672500639
12672509489
12672516935
12672527555
12672534452
12672543058
12672551481
12672560209
12672568876
12672576505
12672585539
12672593107
12672601713
12672611173
12672619901
12672627286
12672635587
12672643034
12672651945
12672659147
12672669401
12672678556
12672685026
12672695463
12672701322
12672712308
12672718412
12672729703
12672737211
12672747953
12672752774
12672765836
12672772916
12672784757
12672794706
12672803128
12672811002
12672819425
12672827664
12672836698
12672841397
12672852323
12672861783
12672866849
12672876737
12672883878
12672893216
12672899442
12672908963
12672917020
12672924527
12672933560
12672940945
12672947781
12672956143
12672963650
12672971341
12672978726
12672986966
12672996426
12673004605
12673012539
12673018765
12673028286
12673036343
12673042752
12673050869
12673059414
12673066250
12673075772
12673082241
12673091580
12673098782
12673106655
12673113308
12673121853
12673129666
12673137600
12673145230
12673153591
12673163052
12673171658
12673178921
12673187283
12673193813
12673201809
12673210720
12673216946
12673226162
12673232998
12673240871
12673249538
12673259304
12673266079
12673273342
12673282619
12673290188
12673296840
12673305324
12673313198
12673321926
12673329128
12673338649
12673345119
12673354824
12673361538
12673371425
12673377834
12673385158
12673394802
12673403530
12673409816
12673418178
12673427516
12673432704
12673441493
12673447109
12673458400
12673466029
12673475551
12673483058
12673490627
12673498622
12673506496
12673515712
12673523891
12673531825
12673539882
12673548244
12673556483
12673560756
12673571803
12673582118
12673588466
12673600306
12673607936
12673612819
12673626307
12673632594
12673640956
12673648951
12673660182
12673670436
12673678187
12673685878
12673692652
12673696009
12673704310
12673710414
12673716395
12673723048
12673726954
12673734828
12673740809
12673746302
12673751551
12673756800
12673762537
12673768763
12673774439
12673780299
12673785487
12673792811
12673797205
12673803126
12673809046
12673815577
12673818934
12673826197
12673831812
12673835718
12673841456
12673848170
12673855433
12673859034
12673867090
12673872400
12673877833
12673884302
12673890223
12673894617
12673900355
12673903162
12673912256
12673918299
12673926294
12673931360
12673937098
12673943018
12673949732
12673955225
12673962244
12673968103
12673974390
12673979883
12673984644
12673991236
12673995203
12674002893
12674008203
12674013574
12674019007
12674024683
12674030786
12674036951
12674042261
12674048425
12674054102
12674060693
12674066004
12674072046
12674078027
12674083154
12674087793
12674093652
12674099512
12674105188
12674110864
12674116235
12674121912
12674128381
12674134058
12674138757
12674144678
12674150049
12674157617
12674165979
12674172815
12674179162
12674184472
12674190881
12674194543
12674201745
12674207055
12674215295
12674219934
12674225549
12674231714
12674238244
12674245263
12674252221
12674257898
12674266198
12674272241
12674279199
12674284814
12674289758
12674295556
12674301293
12674305871
12674313745
12674319238
12674325158
12674329736
12674335107
12674340356
12674345971
12674351403
12674357507
12674364037
12674369531
12674374047
12674380029
12674385339
12674390832
12674397240
12674401940
12674407861
12674413537
12674416955
12674424950
12674429772
12674435387
12674442284
12674446313
12674454003
12674459801
12674465661
12674471398
12674476708
12674482812
12674488976
12674493493
12674500573
12674506127
12674511986
12674518151
12674522912
12674529686
12674534569
12674539208
12674545311
12674551354
12674557579
12674563195
12674568749
12674574547
12674580040
12674587548
12674594445
12674605004
12674612877
12674620812
12674628563
12674636864
12674644859
12674652916
12674659325
12674668663
12674676415
12674685753
12674692284
12674699974
12674709373
12674717613
12674725243
12674731712
12674741966
12674747826
12674757774
12674764732
12674772728
12674780357
12674789024
12674795860
12674804222
12674811302
12674821190
12674829002
12674836753
12674843834
12674852195
12674861473
12674870323
12674879539
12674885581
12674892967
12674901023
12674910179
12674916648
12674923667
12674933860
12674944846
12674953513
12674965904
12674973777
12674981284
12674990379
12674999351
12675007713
12675017966
12675025291
12675033469
12675042136
12675049705
12675057883
12675065513
12675073569
12675082114
12675090781
12675097739
12675105796
12675112204
12675120200
12675129783
12675136618
12675146811
12675153525
12675162864
12675169394
12675176718
12675185813
12675193076
12675200461
12675208457
12675215659
12675223593
12675232627
12675241416
12675248801
12675256857
12675263266
12675272971
12675280539
12675287863
12675297385
12675305869
12675312460
12675320151
12675329794
12675337302
12675344748
12675351767
12675359823
12675367636
12675376242
12675383749
12675391806
12675398275
12675407858
12675414999
12675422445
12675431906
12675441061
12675450705
12675458456
12675464560
12675473837
12675480123
12675490133
12675496481
12675506918
12675513326
12675522665
12675529135
12675539510
12675549398
12675557455
12675565023
12675572958
12675581930
12675587850
12675596273
12675606710
12675614706
12675622640
12675631673
12675639425
12675646627
12675654561
12675662374
12675670553
12675678487
12675688619
12675695821
12675704671
12675712056
12675722188
12675729512
12675737630
12675745931
12675753926
12675762349
12675770955
12675778829
12675790120
12675798665
12675806844
12675814107
12675822347
12675831319
12675841512
12675848409
12675858357
12675865926
12675875996
12675885274
12675891499
12675899556
12675905476
12675914448
12675920613
12675931050
12675939473
12675946553
12675953328
12675960225
12675967854
12675974446
12675981343
12675989094
12675999348
12676006367
12676014058
12676022603
12676028950
12676037434
12676043110
12676052632
12676058979
12676065388
12676072651
12676076680
12676083027
12676087055
12676093159
12676101521
12676106220
12676110737
12676117817
12676124043
12676130329
12676133503
12676141194
12676147114
12676154011
12676158711
12676164509
12676167561
12676176289
12676180317
12676186481
12676193378
12676199177
12676204609
12676209919
12676215900
12676220905
12676225910
12676233967
12676239338
12676245258
12676251362
12676255451
12676260639
12676266926
12676271808
12676279499
12676284199
12676290241
12676298053
12676302692
12676309406
12676315571
12676322040
12676328571
12676334003
12676336994
12676344074
12676348468
12676355365
12676361042
12676366901
12676370319
12676377948
12676382892
12676390644
12676395160
12676402606
12676407978
12676412982
12676423480
12676429523
12676434772
12676443195
12676447772
12676453815
12676458148
12676466022
12676470844
12676477374
12676482196
12676488300
12676493976
12676498614
12676502765
12676508380
12676514300
12676519305
12676524371
12676529193
12676534259
12676539447
12676544452
12676550250
12676556781
12676562274
12676565204
12676571795
12676576068
12676582965
12676587542
12676593524
12676597796
12676604754
12676609942
12676616229
12676620501
12676626422
12676630999
12676636248
12676643756
12676647540
12676654864
12676659014
12676665850
12676670367
12676677020
12676682269
12676689044
12676694232
12676699298
12676705523
12676711321
12676716021
12676721942
12676727130
12676735674
12676740618
12676747088
12676753008
12676758807
12676764117
12676768938
12676775347
12676779803
12676787981
12676792193
12676799029
12676803423
12676810686
12676816424
12676822100
12676826800
12676832842
12676838701
12676845415
12676851580
12676855974
12676860857
12676866228
12676872210
12676879961
12676886431
12676893450
12676899736
12676909258
12676915484
12676923906
12676929888
12676939409
12676948564
12676956560
12676964556
12676973406
12676979875
12676989641
12676995928
12677002703
12677012590
12677020403
12677026994
12677036882
12677044023
12677053667
12677060869
12677071184
12677080461
12677090593
12677098344
12677106523
12677113786
12677123247
12677131120
12677140398
12677148149
12677153703
12677161271
12677169023
12677176164
12677181291
12677190629
12677197587
12677206071
12677211686
12677220170
12677225969
12677233903
12677240312
12677251115
12677258744
12677264848
12677273881
12677280778
12677288529
12677295671
12677303849
12677313066
12677321488
12677323380
12677334733
12677342667
12677351090
12677358170
12677366410
12677373124
12677381669
12677389420
12677396012
12677405045
12677411881
12677419694
12677427384
12677434830
12677442216
12677453141
12677458634
12677466691
12677473282
12677481583
12677490677
12677498612
12677503190
12677512955
12677520279
12677528946
12677535233
12677545243
12677554398
12677563614
12677570023
12677580887
12677590470
12677598221
12677602249
12677613846
12677621414
12677629166
12677636368
12677643875
12677651688
12677661453
12677668594
12677675797
12677684463
12677691788
12677696060
12677709488
12677716995
12677724991
12677732498
12677740311
12677750076
12677757339
12677764358
12677774551
12677781448
12677789444
12677797195
12677805130
12677813491
12677821243
12677828384
12677840469
12677849807
12677857742
12677866165
12677874954
12677882827
12677893264
12677900772
12677910781
12677917922
12677928176
12677936416
12677943435
12677950271
12677961684
12677966750
12677976089
12677983962
12677991897
12678000442
12678006972
12678016494
12678022903
12678033217
12678040298
12678050429
12678058974
12678066909
12678073256
12678083938
12678090529
12678098464
12678108168
12678115798
12678122939
12678130202
12678136977
12678146193
12678151870
12678162245
12678170912
12678178054
12678184523
12678193862
12678201430
12678208083
12678215224
12678223891
12678231215
12678239882
12678245619
12678255080
12678261122
12678270155
12678280959
12678289503
12678296584
12678305006
12678313856
12678321242
12678326430
12678331801
12678339003
12678345900
12678352675
12678359389
12678365248
12678370619
12678376173
12678382887
12678389357
12678394911
12678402601
12678409742
12678416945
12678423292
12678431837
12678438124
12678444715
12678449110
12678455885
12678461439
12678467848
12678474195
12678479872
12678486158
12678492262
12678496717
12678503553
12678509901
12678516859
12678522901
12678530287
12678535902
12678540113
12678546461
12678554945
12678559461
12678568006
12678574598
12678580213
12678587781
12678593031
12678599439
12678607984
12678613111
12678620923
12678628736
12678634962
12678641553
12678647657
12678652845
12678656446
12678663587
12678671338
12678676954
12678681836
12678687940
12678693921
12678698987
12678704908
12678711133
12678716199
12678721875
12678727430
12678735059
12678740735
12678746167
12678751416
12678756848
12678762952
12678769666
12678775220
12678781323
12678787305
12678793286
12678799939
12678806592
12678812329
12678816235
12678823071
12678828687
12678835889
12678841992
12678847302
12678853162
12678860242
12678866040
12678871960
12678878430
12678885144
12678890149
12678895886
12678902539
12678908642
12678915112
12678917920
12678924512
12678930005
12678935986
12678942334
12678947888
12678954480
12678961072
12678966443
12678972363
12678977063
12678983105
12678989880
12678995129
12679001904
12679005566
12679012158
12679018200
12679023754
12679029492
12679035656
12679040661
12679048779
12679054455
12679059826
12679064587
12679070507
12679075878
12679082043
12679088268
12679093029
12679100170
12679105236
12679111889
12679115978
12679123974
12679127941
12679135204
12679140942
12679149120
12679154553
12679162731
12679171337
12679175426
12679184032
12679188305
12679197155
12679206615
12679213879
12679220837
12679228771
12679236034
12679243297
12679249706
12679260143
12679265697
12679275524
12679281017
12679288402
12679295177
12679302135
12679309398
12679318004
12679325573
12679333629
12679341747
12679347728
12679353832
12679364147
12679370922
12679378978
12679386119
12679394969
12679402294
12679411815
12679418224
12679424144
12679433727
12679439952
12679448680
12679455150
12679462962
12679471202
12679479686
12679486583
12679494273
12679502208
12679508983
12679516124
12679524486
12679531016
12679537852
12679546702
12679552928
12679561229
12679569346
12679578624
12679585276
12679592418
12679599376
12679607859
12679614940
12679623240
12679631419
12679637950
12679644969
12679655284
12679661997
12679668223
12679676036
12679681346
12679691844
12679702281
12679710093
12679718394
12679726511
12679734202
12679740183
12679749522
12679758738
12679767649
12679777476
12679785776
12679792673
12679800791
12679809702
12679817942
12679830881
12679838328
12679848093
12679855784
12679864084
12679871592
12679879648
12679891855
12679910959
12679925608
12679938669
12679954782
12679967111
12679978769
12679989878
12680000681
12680012033
12680019418
12680025949
12680033884
12680040292
12680048349
12680055551
12680063791
12680070749
12680077951
12680084177
12680091623
12680098337
12680104867
12680110910
12680119028
12680126047
12680132577
12680139047
12680146127
12680152597
12680159982
12680166635
12680174081
12680177987
12680188974
12680197213
12680204416
12680210580
12680217599
12680225106
12680232797
12680239938
12680247872
12680251779
12680261361
12680268136
12680277291
12680283517
12680292123
12680299813
12680309945
12680315743
12680323129
12680329171
12680335946
12680344979
12680350350
12680360726
12680369454
12680375619
12680381783
12680389840
12680397103
12680403634
12680410287
12680417061
12680425301
12680432198
12680438241
12680445687
12680452523
12680460091
12680468209
12680476937
12680484871
12680492745
12680500130
12680507271
12680514290
12680519600
12680528145
12680533577
12680540718
12680549446
12680556221
12680565682
12680572273
12680578194
12680587227
12680594856
12680605354
12680610726
12680620186
12680627571
12680632881
12680636910
12680642403
12680647285
12680653450
12680659370
12680665291
12680670601
12680674629
12680680122
12680687019
12680706917
12680712837
12680719002
12680724983
12680730720
12680737861
12680742744
12680749336
12680756416
12680762153
12680766121
12680773018
12680778022
12680785164
12680790291
12680796699
12680801033
12680805793
12680809333
12680813789
12680818733
12680823982
12680829231
12680835456
12680841255
12680846687
12680851448
12680857124
12680862739
12680867500
12680873786
12680877876
12680883369
12680888191
12680892158
12680897407
12680902229
12680908576
12680912666
12680916511
12680923408
12680927680
12680933173
12680936836
12680943671
12680949043
12680953620
12680959113
12680965949
12680969855
12680976386
12680982185
12680987250
12680992866
12680998237
12681002326
12681008491
12681016364
12681021369
12681025825
12681031013
12681037299
12681041633
12681049079
12681053351
12681060676
12681066474
12681072394
12681077643
12681082282
12681087531
12681093818
12681097663
12681103522
12681110541
12681115729
12681121405
12681126532
12681131171
12681138739
12681142829
12681146796
12681154914
12681159003
12681164679
12681170050
12681175971
12681179694
12681185675
12681191779
12681196967
12681203314
12681209174
12681213751
12681219000
12681224738
12681231085
12681236090
12681239752
12681247443
12681253729
12681259650
12681264777
12681272467
12681277777
12681282355
12681288641
12681294012
12681302618
12681308966
12681315130
12681320624
12681326300
12681329230
12681336249
12681342535
12681348456
12681353766
12681358893
12681363043
12681368841
12681373236
12681379767
12681385504
12681391424
12681394110
12681401861
12681405767
12681410894
12681416265
12681420782
12681426031
12681432318
12681436773
12681443304
12681447576
12681454962
12681460760
12681469183
12681478155
12681484197
12681492925
12681499212
12681507330
12681513677
12681521612
12681528509
12681537481
12681546331
12681554632
12681558904
12681568121
12681576238
12681584722
12681591436
12681596258
12681606206
12681612310
12681619451
12681626775
12681636663
12681643804
12681650701
12681657293
12681666143
12681672857
12681683538
12681690435
12681696660
12681705388
12681712102
12681718572
12681727788
12681735173
12681741521
12681751165
12681757390
12681767583
12681772893
12681781926
12681790471
12681797307
12681803533
12681810918
12681818913
12681827153
12681833073
12681842351
12681848943
12681857976
12681865605
12681871587
12681877751
12681886418
12681895756
12681903630
12681910649
12681919560
12681928105
12681935978
12681946904
12681955143
12681963810
12681972050
12681983525
12681990605
12682001225
12682011540
12682028080
12682037724
12682049931
12682059696
12682067082
12682082096
12682090092
12682100163
12682112187
12682126652
12682135929
12682146183
12682156254
12682165409
12682173466
12682182560
12682195438
12682206974
12682217045
12682227115
12682237064
12682245487
12682254032
12682264408
12682274173
12682284305
12682294681
12682303531
12682314945
12682323917
12682334842
12682343021
12682352054
12682361453
12682369876
12682381046
12682390689
12682402347
12682410404
12682419803
12682429080
12682439517
12682449222
12682456851
12682468448
12682478335
12682486209
12682496951
12682506656
12682518252
12682524722
12682536441
12682548404
12682557437
12682569278
12682580264
12682590640
12682598025
12682608828
12682617862
12682625308
12682638919
12682641726
12682661013
12682670535
12682682986
12682694216
12682706301
12682716128
12682730166
12682740237
12682750735
12682764101
12682772768
12682786623
12682793642
12682805178
12682817385
12682827028
12682840517
12682847292
12682858828
12682871950
12682884218
12682896975
12682903994
12682916628
12682926393
12682938295
12682949037
12682956789
12682968996
12682981630
12682990907
12683002321
12683010622
12683020570
12683029421
12683040346
12683049745
12683060976
12683071474
12683081544
12683092653
12683095766
12683113283
12683122987
12683134279
12683141359
12683153505
12683162599
12683170839
12683179689
12683185548
12683194886
12683201905
12683209352
12683218507
12683226319
12683233888
12683244447
12683251588
12683258668
12683265504
12683271790
12683279359
12683287721
12683293763
12683298890
12683304933
12683310426
12683313111
12683320130
12683324525
12683331788
