12727566904
12727572458
12727578928
12727586130
12727593271
12727598154
12727603891
12727609385
12727615427
12727620798
12727626108
12727632028
12727639292
12727646372
12727651804
12727657297
12727663889
12727668894
12727675241
12727681467
12727688791
12727695383
12727702890
12727709238
12727715402
12727721994
12727727792
12727734323
12727741769
12727747934
12727754831
12727759775
12727766977
12727773447
12727780221
12727785898
12727792428
12727798349
12727804208
12727810678
12727816110
12727822336
12727828683
12727836984
12727843698
12727848764
12727855172
12727860116
12727867440
12727874643
12727880319
12727886789
12727893441
12727899911
12727906564
12727911264
12727919015
12727924813
12727930673
12727935556
12727942391
12727948068
12727955697
12727963204
12727968331
12727975656
12727980050
12727987191
12727991586
12727999093
12728003976
12728013863
12728019967
12728028329
12728034493
12728041634
12728050851
12728057931
12728065072
12728073800
12728081429
12728087716
12728092599
12728099923
12728106820
12728112496
12728118416
12728124337
12728131173
12728137215
12728142525
12728150155
12728156319
12728163643
12728172310
12728180977
12728186959
12728194710
12728202462
12728207955
12728215340
12728222115
12728229500
12728237862
12728243660
12728251778
12728259529
12728266854
12728273873
12728278267
12728285103
12728289620
12728298775
12728303841
12728311531
12728317329
12728324410
12728330086
12728335213
12728342232
12728349861
12728355598
12728362068
12728367439
12728374458
12728381050
12728387092
12728393074
12728401314
12728407417
12728412178
12728419929
12728425972
12728433418
12728438301
12728445503
12728450264
12728457771
12728463997
12728470710
12728476020
12728482490
12728487007
12728494270
12728501350
12728507698
12728513374
12728519844
12728526130
12728533393
12728539985
12728546211
12728553108
12728559516
12728567573
12728573493
12728580268
12728586128
12728594245
12728600044
12728607795
12728614814
12728622077
12728626655
12728635749
12728642768
12728651374
12728660712
12728666450
12728675971
12728682685
12728692145
12728699897
12728709601
12728724738
12728744269
12728765021
12728784919
12728803839
12728822089
12728840460
12728859442
12728881781
12728902228
12728914130
12728923224
12728933356
12728949408
12728962653
12728974982
12728988592
12728999884
12729012030
12729018011
12729025641
12729031866
12729038763
12729045416
12729053473
12729059881
12729067450
12729074408
12729081732
12729089483
12729096075
12729102301
12729109320
12729115850
12729123419
12729128424
12729137213
12729143499
12729149786
12729157415
12729161505
12729166021
12729171453
12729176214
12729180120
12729185552
12729189337
12729195013
12729199957
12729204412
12729208502
12729214849
12729219427
12729223882
12729228521
12729234319
12729238714
12729245611
12729249517
12729257146
12729261419
12729267705
12729272649
12729279241
12729285772
12729290838
12729296453
12729302129
12729308294
12729313543
12729318609
12729324346
12729328618
12729336187
12729341314
12729346258
12729352605
12729360296
12729366826
12729372747
12729379522
12729385625
12729392522
12729398320
12729404241
12729411748
12729415654
12729420354
12729423711
12729428960
12729433843
12729438787
12729443181
12729446721
12729451116
12729455937
12729460759
12729466191
12729472173
12729479253
12729484014
12729489995
12729494573
12729499638
12729503911
12729508611
12729512456
12729517217
12729521062
12729526738
12729530522
12729536809
12729542729
12729547246
12729552373
12729556218
12729560246
12729565984
12729570073
12729577824
12729581547
12729587529
12729591862
12729597966
12729602360
12729606572
12729611821
12729616765
12729621892
12729627019
12729632329
12729636723
12729641972
12729646794
12729650639
12729658818
12729664799
12729668278
12729673283
12729678837
12729684636
12729690312
12729694462
12729701664
12729705754
12729711064
12729715641
12729720036
12729726445
12729731877
12729736515
12729741642
12729746891
12729750797
12729757817
12729761967
12729767277
12729771855
12729778019
12729782719
12729788517
12729794865
12729800785
12729805302
12729809208
12729815067
12729820316
12729825871
12729832279
12729836430
12729842350
12729846928
12729852909
12729859379
12729864872
12729870243
12729879276
12729885563
12729891483
12729897526
12729904423
12729910038
12729915226
12729923038
12729932682
12729938480
12729946781
12729953861
12729962406
12729969486
12729975589
12729982547
12729992435
12729998539
12730007511
12730015995
12730022830
12730030033
12730040225
12730046634
12730057193
12730064151
12730069522
12730076602
12730085513
12730093143
12730099979
12730108463
12730116031
12730124149
12730133365
12730139957
12730149844
12730156558
12730164127
12730172671
12730180057
12730188052
12730195315
12730203616
12730211673
12730218631
12730227237
12730234805
12730242923
12730249392
12730257998
12730264651
12730274966
12730281314
12730287478
12730296695
12730303775
12730313906
12730319400
12730329592
12730335513
12730343997
12730348147
12730360171
12730369387
12730377322
12730384707
12730392703
12730396975
12730407961
12730415163
12730425417
12730433047
12730442019
12730455386
12730463137
12730470095
12730477907
12730485110
12730494265
12730501284
12730506411
12730515017
12730522890
12730531069
12730538820
12730547304
12730554201
12730561464
12730567812
12730578615
12730586184
12730594423
12730600954
12730609682
12730618532
12730626161
12730633486
12730641725
12730649416
12730657656
12730662660
12730673891
12730681093
12730690920
12730697450
12730707765
12730715028
12730724062
12730731203
12730740602
12730748415
12730758119
12730764772
12730773927
12730780641
12730790651
12730797243
12730806459
12730812684
12730821473
12730828431
12730836244
12730845704
12730851686
12730861879
12730867860
12730878907
12730886048
12730894899
12730900636
12730910462
12730916566
12730924928
12730932984
12730938966
12730946595
12730954103
12730958741
12730967408
12730973512
12730982240
12730990601
12730997010
12731006043
12731015565
12731024293
12731031068
12731039063
12731045411
12731054444
12731062867
12731069825
12731079407
12731087525
12731093873
12731101502
12731110657
12731118287
12731125916
12731132813
12731140687
12731148682
12731156861
12731165711
12731171936
12731180298
12731188172
12731194825
12731204285
12731210572
12731218750
12731226319
12731234680
12731242127
12731249512
12731257507
12731266419
12731272583
12731279358
12731290650
12731297119
12731305115
12731311585
12731318542
12731328125
12731335999
12731343872
12731348328
12731357361
12731361633
12731369324
12731373047
12731380066
12731384277
12731390686
12731396362
12731401611
12731406738
12731411438
12731415527
12731421753
12731426513
12731432190
12731437378
12731445190
12731450500
12731456421
12731460876
12731467468
12731472656
12731477966
12731482177
12731487976
12731494140
12731498657
12731504943
12731509704
12731515380
12731520019
12731524597
12731530822
12731535217
12731540588
12731544799
12731549072
12731554931
12731559631
12731565368
12731571838
12731578430
12731583679
12731588439
12731593383
12731599059
12731604064
12731608520
12731615356
12731619811
12731625365
12731630675
12731635619
12731639770
12731644958
12731649047
12731655944
12731660033
12731665282
12731671386
12731676452
12731681090
12731686278
12731692504
12731696471
12731703795
12731708007
12731714782
12731718566
12731724486
12731730040
12731735717
12731740172
12731747863
12731752929
12731758239
12731764037
12731768248
12731775145
12731780150
12731785826
12731790221
12731797911
12731803405
12731808348
12731812682
12731818602
12731826476
12731832884
12731835631
12731844237
12731849730
12731855834
12731860167
12731864745
12731871336
12731875243
12731881957
12731888548
12731895140
12731900694
12731905699
12731910826
12731916563
12731921690
12731927184
12731933531
12731938353
12731944517
12731948057
12731954405
12731958739
12731965269
12731970091
12731975035
12731981444
12731987974
12731993651
12731998717
12732004515
12732009886
12732015257
12732023008
12732028013
12732034788
12732040159
12732045713
12732051939
12732058104
12732064940
12732068724
12732074522
12732079893
12732082457
12732089598
12732093748
12732099729
12732105711
12732109434
12732115354
12732121458
12732125852
12732132078
12732136228
12732141661
12732147947
12732152281
12732159178
12732163694
12732175413
12732182798
12732189939
12732199033
12732207639
12732214170
12732222715
12732231321
12732237302
12732244627
12732253049
12732261594
12732267210
12732273618
12732282285
12732289548
12732298887
12732304380
12732312925
12732319578
12732326352
12732333616
12732340390
12732346555
12732356992
12732362851
12732371335
12732376462
12732385129
12732390134
12732399045
12732406308
12732412290
12732418393
12732428525
12732431943
12732443906
12732450009
12732459470
12732466916
12732475766
12732481381
12732490170
12732499265
12732505063
12732512936
12732521848
12732529660
12732537411
12732542783
12732551388
12732558041
12732565121
12732573849
12732580685
12732587521
12732595090
12732602048
12732609555
12732616269
12732625485
12732629818
12732639401
12732645504
12732654599
12732660458
12732669613
12732675900
12732683468
12732691220
12732696530
12732705075
12732712460
12732724545
12732732418
12732740475
12732749264
12732756161
12732765865
12732773007
12732783871
12732791317
12732799557
12732808651
12732815243
12732823788
12732830807
12732837521
12732844967
12732853573
12732859005
12732867184
12732875545
12732883358
12732889339
12732898433
12732905941
12732914119
12732921993
12732930050
12732937313
12732945614
12732954525
12732962459
12732968807
12732977596
12732984676
12732992244
12732999630
12733006526
12733017024
12733022823
12733030391
12733036983
12733044673
12733052852
12733060542
12733067745
12733074825
12733083492
12733091914
12733096309
12733106014
12733112544
12733122432
12733129146
12733139033
12733145015
12733151668
12733161189
12733169063
12733176082
12733185176
12733191035
12733198848
12733207149
12733213740
12733221064
12733229365
12733236934
12733244136
12733253779
12733262080
12733269526
12733276728
12733283686
12733292170
12733302241
12733307551
12733316645
12733324702
12733332453
12733340144
12733347529
12733355891
12733366572
12733374690
12733382319
12733390070
12733397150
12733409480
12733417292
12733425410
12733433039
12733440607
12733448054
12733456782
12733464167
12733471735
12733479365
12733487665
12733497492
12733504145
12733511225
12733520197
12733528559
12733537897
12733545649
12733553888
12733562311
12733570673
12733579218
12733587397
12733593439
12733600214
12733605829
12733610163
12733617304
12733621088
12733626276
12733628839
12733637140
12733641962
12733647394
12733652704
12733658136
12733665155
12733682306
12733689081
12733691766
12733698297
12733701776
12733707941
12733713251
12733718805
12733723505
12733727777
12733732172
12733735956
12733740778
12733744623
12733748895
12733755853
12733760370
12733764154
12733769159
12733772699
12733778009
12733781305
12733787897
12733791925
12733797296
12733801568
12733805597
12733809503
12733813775
12733818414
12733823114
12733827264
12733832696
12733836847
12733842767
12733847284
12733852655
12733855767
12733862542
12733867425
12733871637
12733876214
12733879937
12733885675
12733890618
12733895257
12733899957
12733904534
12733909173
12733914117
12733918328
12733923394
12733927850
12733933831
12733937249
12733942071
12733946893
12733950860
12733956109
12733960442
12733967461
12733972344
12733977349
12733982781
12733987603
12733992852
12733997796
12734000481
12734009026
12734014825
12734021783
12734026910
12734031609
12734036797
12734042840
12734049187
12734055596
12734061577
12734065301
12734070489
12734074517
12734078606
12734082818
12734088372
12734093010
12734096795
12734100884
12734105706
12734109978
12734114800
12734121453
12734126336
12734132805
12734136834
12734143059
12734147210
12734151238
12734155266
12734161065
12734165459
12734171929
12734177300
12734183525
12734186821
12734193169
12734198235
12734203423
12734208855
12734213677
12734218315
12734223686
12734228264
12734232964
12734238213
12734243401
12734247124
12734252312
12734258537
12734262749
12734269158
12734274223
12734282524
12734291191
12734299675
12734305779
12734311333
12734320366
12734326836
12734334465
12734342949
12734351189
12734357231
12734367363
12734373466
12734380729
12734389274
12734395500
12734404655
12734411430
12734419670
12734427421
12734434074
12734440544
12734450431
12734456596
12734464592
12734468559
12734479850
12734488334
12734496147
12734502677
12734510673
12734516838
12734525382
12734531303
12734538810
12734547660
12734556144
12734564811
12734573844
12734579887
12734586112
12734594962
12734600517
12734610099
12734619682
12734625541
12734634025
12734642142
12734649100
12734656791
12734664725
12734673148
12734682731
12734689689
12734698966
12734705741
12734714530
12734723319
12734729850
12734737967
12734745963
12734752860
12734759513
12734766654
12734775504
12734781058
12734790274
12734798148
12734804190
12734813407
12734823172
12734831473
12734838492
12734846549
12734854483
12734861380
12734868338
12734874991
12734881278
12734889273
12734895499
12734903494
12734911490
12734920157
12734928336
12734935538
12734944510
12734951834
12734957876
12734965933
12734974905
12734982229
12734988333
12734995657
12735001333
12735008841
12735017447
12735026114
12735033255
12735040396
12735048513
12735055655
12735061636
12735069143
12735077200
12735085073
12735091665
12735103994
12735110220
12735119741
12735125967
12735136404
12735143423
12735153066
12735161184
12735168569
12735175222
12735185781
12735191946
12735199819
12735208486
12735216909
12735224599
12735232351
12735238821
12735246267
12735252492
12735261159
12735268850
12735274038
12735284109
12735292898
12735298879
12735306020
12735312856
12735322438
12735329580
12735335500
12735345571
12735351064
12735360463
12735367971
12735375417
12735382253
12735389760
12735396901
12735406789
12735415334
12735424367
12735434499
12735443105
12735452748
12735460622
12735469594
12735477834
12735486501
12735495717
12735501271
12735509877
12735518300
12735524342
12735532704
12735539113
12735549061
12735553883
12735563771
12735570668
12735580250
12735586964
12735597584
12735607960
12735617482
12735629567
12735637074
12735644642
12735654713
12735659291
12735665882
12735671986
12735676380
12735683155
12735689259
12735693531
12735699085
12735704579
12735709706
12735714405
12735718922
12735724171
12735729725
12735735096
12735740101
12735744679
12735748707
12735755970
12735761036
12735766102
12735770619
12735775257
12735780811
12735788990
12735793018
12735798267
12735803761
12735808155
12735814320
12735819630
12735822437
12735828480
12735834278
12735838306
12735843555
12735848377
12735852955
12735858570
12735863209
12735869251
12735874134
12735880482
12735884022
12735889332
12735893787
12735900501
12735905140
12735909839
12735917652
12735922046
12735928577
12735933948
12735938709
12735944690
12735949634
12735954517
12735963428
12735972461
12735979846
12735989978
12735997180
12736005237
12736009815
12736016773
12736021533
12736025745
12736031421
12736038379
12736043567
12736049182
12736054797
12736060779
12736066272
12736071460
12736078052
12736083545
12736089832
12736092700
12736098499
12736103442
12736109363
12736114368
12736119861
12736135120
12736138782
12736144580
12736149158
12736156299
12736160571
12736166308
12736171191
12736176379
12736180896
12736184802
12736189197
12736194751
12736199023
12736205310
12736209948
12736213611
12736218921
12736222400
12736227282
12736232226
12736237597
12736241504
12736247180
12736250903
12736255664
12736261462
12736266162
12736270495
12736277880
12736282641
12736287097
12736290454
12736296191
12736300830
12736306933
12736311267
12736318102
12736322009
12736328173
12736333727
12736338305
12736341784
12736347826
12736352709
12736360217
12736364001
12736371081
12736374560
12736380602
12736385363
12736389758
12736394030
12736400378
12736405383
12736413195
12736420580
12736427477
12736436693
12736444262
12736451708
12736461962
12736468310
12736475634
12736483263
12736490526
12736497423
12736505175
12736513659
12736521410
12736528063
12736535814
12736541674
12736550524
12736558947
12736563463
12736572374
12736583544
12736592638
12736601488
12736610704
12736618028
12736626512
12736636766
12736644151
12736652330
12736663927
12736672655
12736679918
12736684007
12736693773
12736699510
12736707567
12736715440
12736722520
12736730089
12736736131
12736745103
12736751085
12736760850
12736767869
12736778550
12736784532
12736794908
12736802598
12736811570
12736817918
12736827562
12736834886
12736842637
12736850084
12736859544
12736865525
12736874620
12736883103
12736889939
12736899949
12736906846
12736915818
12736922715
12736932420
12736938340
12736946702
12736952927
12736958970
12736968430
12736976182
12736982285
12736988755
12736997605
12737005296
12737010972
12737018845
12737027512
12737035203
12737042283
12737049973
12737057297
12737064805
12737069138
12737079148
12737087632
12737095078
12737101670
12737109421
12737116135
12737123276
12737129136
12737139328
12737148789
12737156479
12737162949
12737170273
12737176132
12737185532
12737191574
12737201157
12737210983
12737219101
12737226853
12737232285
12737240097
12737247482
12737255783
12737261154
12737270798
12737277878
12737284592
12737292465
12737300766
12737307114
12737313827
12737320908
12737331772
12737338608
12737345932
12737352341
12737359909
12737368637
12737376938
12737386398
12737394211
12737404220
12737414535
12737419784
12737430282
12737437362
12737445785
12737452804
12737461959
12737468978
12737477340
12737484603
12737490890
12737499069
12737504989
12737514511
12737521102
12737528365
12737536422
12737541854
12737548080
12737559127
12737566085
12737573898
12737577926
12737588668
12737596175
12737604354
12737611678
12737619430
12737627181
12737635909
12737644515
12737650863
12737657271
12737663802
12737670699
12737676986
12737684310
12737692611
12737699813
12737706893
12737713790
12737722884
12737730025
12737737960
12737744979
12737755660
12737761458
12737770552
12737775984
12737782332
12737786727
12737793502
12737796919
12737805281
12737809737
12737815352
12737819502
12737825728
12737830428
12737835188
12737840315
12737848372
12737853499
12737859969
12737865218
12737870467
12737876631
12737881331
12737886275
12737892561
12737896284
12737901533
12737906416
12737912398
12737918379
12737924116
12737928572
12737934065
12737939131
12737944807
12737950361
12737955672
12737959761
12737965803
12737970686
12737976179
12737981978
12737987471
12737993452
12737997847
12738003462
12738009077
12738014631
12738020185
12738025373
12738029890
12738036665
12738042524
12738047468
12738052046
12738058638
12738063826
12738070784
12738077009
12738084089
12738088667
12738093916
12738098982
12738104170
12738110151
12738116804
12738121443
12738127180
12738133161
12738138777
12738143415
12738148542
12738151716
12738159650
12738166853
12738173627
12738177595
12738184980
12738190107
12738195844
12738201459
12738207624
12738210859
12738218915
12738223615
12738228986
12738232648
12738239667
12738244428
12738252729
12738255903
12738262922
12738267621
12738272870
12738276960
12738283063
12738287885
12738292524
12738300275
12738306501
12738311139
12738317060
12738321515
12738325849
12738332807
12738337018
12738342939
12738348310
12738353681
12738358991
12738364423
12738369306
12738375226
12738381085
12738388166
12738399640
12738408856
12738416608
12738422406
12738425641
12738432782
12738439130
12738444806
12738451459
12738457257
12738461957
12738467145
12738470380
12738476971
12738483258
12738486859
12738495343
12738501324
12738505719
12738510846
12738517865
12738522748
12738527875
12738533490
12738541424
12738545697
12738552167
12738557782
12738562604
12738568402
12738573041
12738578534
12738586285
12738590497
12738597760
12738602826
12738608258
12738612896
12738621258
12738629132
12738637188
12738647686
12738656353
12738665631
12738675396
12738684674
12738689800
12738700115
12738707012
12738716290
12738722149
12738730572
12738736675
12738743572
12738752239
12738758038
12738767193
12738774700
12738781292
12738788738
12738797955
12738805157
12738815838
12738823833
12738831219
12738837810
12738847332
12738856243
12738863811
12738874492
12738884380
12738895244
12738902874
12738910564
12738916973
12738926616
12738933879
12738942119
12738950115
12738957805
12738965801
12738972331
12738978496
12738987102
12738995342
12739003154
12739009624
12739019817
12739025005
12739033672
12739039714
12739047344
12739051738
12739059978
12739069499
12739077861
12739082988
12739091533
12739098979
12739105266
12739114787
12739120708
12739130351
12739139323
12739147624
12739154277
12739161906
12739168376
12739175944
12739182170
12739191691
12739197978
12739207438
12739213359
12739221904
12739227946
12739235820
12739245097
12739250834
12739260539
12739267070
12739275798
12739282878
12739290324
12739298014
12739304911
12739311381
12739321513
12739326762
12739336283
12739342326
12739352091
12739357768
12739366923
12739372660
12739380839
12739391276
12739399943
12739409098
12739418558
12739426005
12739435465
12739444742
12739451456
12739463541
12739471537
12739478495
12739486368
12739493326
12739500223
12739508890
12739517374
12739523539
12739530619
12739539103
12739545328
12739554605
12739562418
12739569254
12739578714
12739588907
12739597452
12739604898
12739614359
12739622110
12739627908
12739633829
12739643350
12739650186
12739655801
12739663431
12739671609
12739679300
12739686258
12739693460
12739696939
12739706155
12739714700
12739721597
12739728860
12739736368
12739744424
12739751077
12739759012
12739765176
12739773172
12739780923
12739787698
12739795205
12739802835
12739811563
12739816995
12739825967
12739833230
12739838967
12739846353
12739857034
12739862161
12739870950
12739877297
12739886148
12739891702
12739901040
12739909768
12739916177
12739924600
12739933267
12739939370
12739947305
12739955056
12739962991
12739966836
12739975625
12739981179
12739985757
12739991250
12739994302
12740001198
12740004067
12740012002
12740017678
12740024148
12740029946
12740035317
12740038735
12740046242
12740050759
12740056923
12740062478
12740068154
12740073098
12740079018
12740083779
12740091042
12740095681
12740105019
12740109414
12740116677
12740122353
12740129738
12740135170
12740141762
12740148415
12740153176
12740159462
12740164284
12740170510
12740175026
12740179116
12740185463
12740189308
12740196694
12740201393
12740208229
12740211769
12740217384
12740224159
12740230873
12740237038
12740242287
12740247414
12740252235
12740258217
12740263710
12740269203
12740274147
12740279335
12740285561
12740291969
12740296974
12740302101
12740307167
12740310829
12740318642
12740323830
12740330116
12740335853
12740341774
12740347389
12740351478
12740357216
12740361549
12740366249
12740373085
12740381263
12740385841
12740391945
12740398048
12740402321
12740407936
12740412330
12740417518
12740423072
12740429786
12740433998
12740438819
12740444435
12740450355
12740456153
12740459388
12740467567
12740472450
12740478675
12740483558
12740488807
12740494117
12740499732
12740504249
12740509620
12740514381
12740519996
12740525062
12740529334
12740534278
12740540626
12740544898
12740551856
12740556495
12740562904
12740567359
12740572547
12740579810
12740584022
12740591163
12740595069
12740602820
12740608131
12740615089
12740621131
12740626441
12740631141
12740642310
12740647864
12740655738
12740663306
12740669776
12740677710
12740683875
12740688453
12740695716
12740703162
12740709388
12740716407
12740722754
12740727881
12740731848
12740737708
12740743079
12740749182
12740753333
12740759986
12740765235
12740770362
12740774756
12740779578
12740786353
12740791236
12740799597
12740809668
12740816565
12740826941
12740832190
12740841223
12740847876
12740858435
12740865332
12740873328
12740879309
12740886145
12740894751
12740903723
12740910132
12740916968
12740926733
12740932104
12740940893
12740948279
12740955359
12740963904
12740970739
12740977697
12740987951
12740995398
12741004309
12741011633
12741019323
12741026831
12741036352
12741045690
12741053137
12741061804
12741069677
12741075414
12741083532
12741092199
12741100744
12741108251
12741117468
12741125890
12741132482
12741138586
12741147680
12741153600
12741162878
12741171484
12741179723
12741186315
12741193456
12741203344
12741210241
12741217870
12741225683
12741234167
12741241918
12741251012
12741258336
12741266698
12741274205
12741282262
12741288793
12741295385
12741305272
12741311498
12741322179
12741331273
12741338536
12741344213
12741354528
12741360753
12741368810
12741377477
12741386022
12741393102
12741401830
12741408421
12741417699
12741424352
12741435033
12741442296
12741455296
12741461949
12741475377
12741484959
12741496739
12741508275
12741517247
12741522801
12741528782
12741535985
12741545018
12741551182
12741557530
12741565587
12741571324
12741580174
12741586338
12741595494
12741600499
12741610508
12741618382
12741631138
12741638707
12741643101
12741652561
12741659153
12741667027
12741674595
12741682041
12741690952
12741701084
12741708653
12741718174
12741725315
12741734226
12741740330
12741748631
12741757603
12741764683
12741773838
12741782322
12741788853
12741797825
12741805637
12741814121
12741821445
12741825291
12741836765
12741844028
12741853122
12741859836
12741867710
12741874973
12741883945
12741891697
12741898166
12741906833
12741913974
12741923801
12741929172
12741941745
12741947849
12741956699
12741964267
12741970432
12741979831
12741988376
12741996372
12742004001
12742012546
12742019626
12742025790
12742034580
12742044528
12742053378
12742062534
12742069736
12742077365
12742084140
12742093478
12742101596
12742109836
12742118014
12742126010
12742134616
12742142611
12742149264
12742160861
12742168612
12742177829
12742186190
12742191378
12742197299
12742203524
12742212008
12742217257
12742222262
12742232699
12742238436
12742246005
12742251071
12742256747
12742261508
12742266757
12742272372
12742278842
12742283419
12742290011
12742294283
12742301119
12742307284
12742313387
12742320834
12742327181
12742333468
12742339755
12742344759
12742350008
12742354830
12742360201
12742366671
12742372591
12742378512
12742384493
12742390291
12742396334
12742401949
12742407503
12742414889
12742422457
12742428072
12742434359
12742440767
12742445772
12742450777
12742455721
12742461825
12742469149
12742474886
12742480440
12742484835
12742491365
12742497469
12742502352
12742508150
12742513094
12742521822
12742527132
12742533052
12742541658
12742547823
12742552523
12742558687
12742563936
12742568086
12742574190
12742578218
12742584017
12742588777
12742595552
12742600069
12742605928
12742610323
12742615022
12742620210
12742625948
12742630953
12742637422
12742642549
12742647615
12742653108
12742658296
12742664156
12742670137
12742675386
12742683076
12742688509
12742694490
12742699007
12742703584
12742710054
12742715120
12742721528
12742726533
12742732087
12742736543
12742742647
12742748567
12742754121
12742758882
12742766267
12742771638
12742781709
12742788118
12742795015
12742801240
12742805635
12742813325
12742818818
12742823091
12742828828
12742833833
12742838960
12742843537
12742848542
12742853303
12742859284
12742864961
12742869782
12742874909
12742880525
12742885713
12742891633
12742897431
12742902924
12742908845
12742913361
12742919770
12742924470
12742929353
12742934480
12742939545
12742945039
12742952180
12742957001
12742963532
12742969331
12742974213
12742980439
12742985383
12742991486
12742997163
12743002534
12743008881
12743013398
12743021088
12743026764
12743035187
12743041169
12743049958
12743058808
12743064667
12743073700
12743082306
12743089692
12743095795
12743103608
12743111969
12743121247
12743128693
12743136933
12743143341
12743152375
12743158722
12743169220
12743175873
12743186005
12743192536
12743201019
12743207428
12743217194
12743225922
12743234833
12743241241
12743251068
12743257477
12743268463
12743275299
12743286102
12743292450
12743302215
12743308685
12743319305
12743325775
12743336151
12743342376
12743351837
12743358307
12743368988
12743375457
12743383636
12743390045
12743401275
12743408477
12743416412
12743424408
12743432403
12743436737
12743450408
12743457611
12743466583
12743475433
12743483734
12743488128
12743502960
12743510284
12743519195
12743526641
12743535369
12743541045
12743549895
12743557952
12743566253
12743572112
12743580718
12743586577
12743595672
12743601531
12743610869
12743616729
12743625823
12743634673
12743642547
12743651336
12743660003
12743666167
12743673613
12743682158
12743690215
12743697966
12743705230
12743713225
12743720610
12743728484
12743735991
12743743193
12743750823
12743758147
12743765898
12743774993
12743782805
12743791350
12743798918
12743807219
12743814665
12743821013
12743828337
12743836150
12743843413
12743850981
12743858183
12743865935
12743873259
12743880095
12743889311
12743895720
12743904875
12743912077
12743918730
12743924589
12743934477
12743942839
12743949736
12743957548
12743966398
12743973173
12743980253
12743989470
12743996489
12744004118
12744012968
12744019804
12744028532
12744034330
12744043424
12744051908
12744059599
12744068083
12744075224
12744083463
12744091032
12744098417
12744106352
12744113737
12744124540
12744131315
12744139738
12744148344
12744157072
12744165922
12744173917
12744181608
12744189908
12744197294
12744207426
12744214384
12744222440
12744233426
12744241788
12744249357
12744259000
12744266752
12744277250
12744285367
12744293790
12744298307
12744309781
12744319425
12744328397
12744335355
12744343534
12744352201
12744360379
12744368741
12744376798
12744383389
12744391629
12744400540
12744408719
12744415067
12744422635
12744432095
12744439664
12744446927
12744452115
12744459866
12744464444
12744470914
12744476163
12744481290
12744486722
12744493497
12744499051
12744506619
12744512845
12744518765
12744522488
12744528958
12744534573
12744539578
12744545132
12744552212
12744557827
12744563137
12744569241
12744574368
12744578762
12744585720
12744589688
12744598050
12744601773
12744609158
12744614346
12744620144
12744625271
12744631008
12744637600
12744644497
12744649136
12744654690
12744660671
12744666531
12744673062
12744678860
12744684231
12744690457
12744694668
12744701626
12744706020
12744712978
12744717251
12744723843
12744728420
12744735867
12744742275
12744748135
12744752529
12744758816
12744764492
12744771084
12744776394
12744785305
12744790859
12744798122
12744803249
12744811916
12744821377
12744829494
12744837795
12744845791
12744851833
12744863857
12744871242
12744878811
12744889064
12744897670
12744904140
12744911220
12744919155
12744926235
12744932399
12744940029
12744947231
12744956264
12744966030
12744974391
12744983486
12744991664
12745000026
12745007839
12745016322
12745025295
12745033778
12745041042
12745049464
12745056544
12745065272
12745072780
12745081264
12745088710
12745100978
12745111659
12745119472
12745127101
12745132411
12745143886
12745151637
12745157924
12745167506
12745174769
12745182154
12745189845
12745200038
12745207545
12745216578
12745223109
12745229945
12745237513
12745244654
12745252284
12745261500
12745269679
12745275904
12745284266
12745292567
12745300013
12745305872
12745314661
12745322840
12745330286
12745337000
12745346094
12745354029
12745362757
12745370814
12745382105
12745390162
12745398951
12745407557
12745414087
12745424341
12745430811
12745442835
12745447596
12745462732
12745474085
12745484156
12745493311
12745503626
12745515100
12745523828
12745534387
12745544580
12745555933
12745564050
12745574121
12745584009
12745595667
12745604822
12745614954
12745626672
12745637292
12745647790
12745656702
12745666589
12745675561
12745686365
12745696618
12745710412
12745722986
12745734704
12745744714
12745755578
12745767114
12745779260
12745790185
12745798059
12745807275
12745818811
12745825402
12745835656
12745846398
12745854760
12745866906
12745876550
12745884301
12745896996
12745906091
12745917748
12745928796
12745940026
12745946740
12745960168
12745970116
12745979088
12745989648
12746000085
12746008874
12746022912
12746032250
12746043053
12746051110
12746061669
12746071923
12746081932
12746090783
12746102806
12746110802
12746121849
12746130577
12746141075
12746151634
12746161217
12746169518
12746179588
12746190636
12746200584
12746210960
12746218468
12746223717
12746233299
12746240135
12746245750
12746255638
12746263634
12746271324
12746277733
12746285850
12746292320
12746296654
12746306419
12746313316
12746319481
12746325767
12746332969
12746339378
12746345726
12746353538
12746361290
12746367149
12746374290
12746379783
12746386863
12746395042
12746401451
12746408653
12746414878
12746422142
12746429588
12746437644
12746445152
12746451255
12746460716
12746467735
12746476585
12746485435
12746493430
12746499412
12746509361
12746516868
12746524253
12746532676
12746538474
12746545554
12746552268
12746560569
12746567039
12746572410
12746581809
12746586692
12746594810
12746601218
12746610373
12746617026
12746626059
12746636619
12746642051
12746649314
12746656577
12746664756
12746670981
12746677817
12746684897
12746693625
12746701133
12746709555
12746717368
12746723654
12746731711
12746738852
12746746787
12746756003
12746762412
12746771872
12746777426
12746784140
12746792380
12746799948
12746805197
12746813925
12746824179
12746831442
12746840414
12746847739
12746856222
12746862265
12746870688
12746876364
12746885824
12746893271
12746899252
12746905966
12746911032
12746916708
12746924460
12746930380
12746936361
12746942831
12746949057
12746956076
12746962606
12746968771
12746976461
12746983358
12746989157
12746997274
12747002401
12747008566
12747013998
12747021566
12747028036
12747033895
12747039816
12747045736
12747051779
12747055136
12747064718
12747071676
12747077779
12747082052
12747086630
12747093527
12747101095
12747110616
12747114767
12747120748
12747126669
12747132833
12747140951
12747148031
12747152975
12747159688
12747164754
12747171285
12747177328
12747182088
12747190511
12747195455
12747201986
12747207113
12747211873
12747215963
12747222982
12747228536
12747235799
12747240621
12747245992
12747252156
12747258016
12747264363
12747269124
12747274434
12747280477
12747284444
12747290486
12747294271
12747299764
12747303670
12747310201
12747315572
12747320943
12747325337
12747330403
12747336080
12747341268
12747345235
12747353902
12747358479
12747363973
12747369405
12747373372
12747378255
12747383504
12747387593
12747395894
12747401448
12747406758
12747411946
12747418721
12747424092
12747427998
12747433369
12747438313
12747444661
12747448811
12747455647
12747460225
12747465291
12747469502
12747477193
12747484151
12747489583
12747494282
12747499837
12747503743
12747509785
12747513814
12747520039
12747526631
12747530842
12747536824
12747542195
12747546223
12747551106
12747556843
12747561726
12747568440
12747573140
12747578694
12747583149
12747587788
12747592549
12747599690
12747601277
12747611897
12747618244
12747622944
12747630512
12747637776
12747644612
12747651325
12747656880
12747664570
12747672138
12747678303
12747688557
12747697041
12747703083
12747715290
12747719318
12747729694
12747736591
12747743977
12747751789
12747758747
12747765827
12747773762
12747781147
12747791157
12747797748
12747807514
12747815204
12747821979
12747828876
12747839679
12747847004
12747855671
12747863239
12747870014
12747876667
12747885212
12747892231
12747901569
12747907245
12747915912
12747922931
12747931598
12747938678
12747945514
12747952960
12747962299
12747970294
12747977680
12747984943
12747992389
12747997760
12748006061
12748015643
12748021808
12748030963
12748039325
12748046649
12748052386
12748061053
12748069110
12748076739
12748084308
12748092059
12748099139
12748108233
12748113910
12748122882
12748129718
12748137957
12748145465
12748154742
12748161395
12748170062
12748175616
12748184832
12748192340
12748199420
12748207904
12748215289
12748225787
12748231707
12748238604
12748247210
12748256732
12748264056
12748272479
12748281634
12748289813
12748298296
12748304034
12748313372
12748322039
12748329790
12748336321
12748345415
12748353838
12748361529
12748373308
12748382281
12748391131
12748402788
12748410479
12748423540
12748429033
12748439226
12748447710
12748455217
12748461992
12748470659
12748477678
12748483843
12748494829
12748501421
12748510454
12748519731
12748529436
12748536577
12748544512
12748552446
12748561723
12748569048
12748578203
12748585954
12748592180
12748601152
12748609636
12748615373
12748626360
12748632524
12748641069
12748646806
12748655900
12748662858
12748671098
12748679765
12748687700
12748695207
12748702226
12748707902
12748716569
12748724077
12748735246
12748741960
12748750688
12748758805
12748764848
12748773393
12748779313
12748786210
12748796464
12748803117
12748812211
12748818315
12748826005
12748831620
12748840165
12748846513
12748852860
12748863419
12748870561
12748879655
12748885209
12748894852
12748901872
12748909013
12748917130
12748924760
12748931535
12748940018
12748948258
12748954056
12748962540
12748971390
12748979081
12748985123
12748991410
12748999955
12749008988
12749014176
12749024247
12749031449
12749040299
12749046524
12749051590
12749056961
12749063370
12749068558
12749076249
12749080582
12749088761
12749094437
12749102127
12749106827
12749113114
12749118485
12749127457
12749132096
12749139786
12749144241
12749149613
12749154129
12749160355
12749164871
12749171707
12749175858
12749181717
12749184952
12749192215
12749197525
12749202042
12749207779
12749211990
12749217545
12749221817
12749228897
12749236465
12749242996
12749249344
12749257156
12749262283
12749268936
12749275162
12749277664
12749287796
12749292557
12749297256
12749301895
12749307083
12749312027
12749317459
12749321060
12749328384
12749331619
12749336685
12749341385
12749344803
12749350967
12749357742
12749363052
12749367508
12749372451
12749377212
12749381485
12749385574
12749392410
12749398025
12749403701
12749409500
12749414566
12749421401
12749427749
12749434341
12749437759
12749444961
12749450576
12749456436
12749462417
12749467605
12749473159
12749478835
12749485183
12749491042
12749497085
12749502456
12749505752
12749512954
12749520950
12749527419
12749532546
12749537917
12749540908
12749550124
12749556350
12749561172
12749565993
12749573623
12749579848
12749588393
12749593459
12749600051
12749603957
12749610671
12749615310
12749622939
12749628859
12749633376
12749638991
12749645644
12749650405
12749657790
12749663893
12749673110
12749682265
12749687819
12749693190
12749699782
12749705153
12749709731
12749717787
12749724135
12749729140
12749733107
12749739882
12749744948
12749749159
12749752821
12749758864
12749762831
12749767897
12749771315
12749777785
12749781752
12749787306
12749791212
12749799818
12749804945
12749807448
12749815993
12749820876
12749825270
12749829787
12749834853
12749840224
12749845778
12749850966
12749858717
12749864943
12749870985
12749877821
12749886244
12749892775
12749901137
12749907484
12749914015
12749920546
12749928358
12749935865
12749942152
12749950575
12749958509
12749965284
12749973219
12749980604
12749987440
12749997267
12750003126
12750011427
12750018263
12750024610
12750031996
12750038099
12750044386
12750053358
12750059339
12750069166
12750076368
12750085828
12750091871
12750101575
12750108045
12750117567
12750123670
12750132764
12750138746
12750147596
12750154066
12750162610
12750169141
12750178602
12750186719
12750193067
12750200147
12750209485
12750217725
12750224744
12750233106
12750242505
12750250928
12750257154
12750265577
12750272229
12750279248
12750289441
12750299756
12750306470
12750314710
12750325330
12750333875
12750341321
12750349072
12750355176
12750364453
12750372632
12750380627
12750388501
12750396558
12750403455
12750408826
12750417493
12750427258
12750434460
12750440808
12750449109
12750456067
12750462964
12750466626
12750479809
12750487073
12750493664
12750501294
12750510632
12750519360
12750526135
12750531445
12750541150
12750551281
12750557934
12750565503
12750571423
12750581066
12750589184
12750596142
12750604260
12750611462
12750620190
12750627880
12750636730
12750644299
12750651501
12750659618
12750665539
12750673473
12750680187
12750687634
12750694836
12750702648
12750709179
12750719433
12750725414
12750733837
12750740429
12750749523
12750756542
12750764232
12750774059
12750780773
12750792125
12750798900
12750805492
12750816539
12750824474
12750830578
12750840465
12750847484
12750856090
12750862560
12750869640
12750878185
12750883251
12750892284
12750898326
12750908336
12750914379
12750923534
12750929027
12750937938
12750943920
12750952709
12750957713
12750967601
12750975658
12750982372
12750991039
12750997569
12751005992
12751012218
12751020213
12751026744
12751036204
12751043651
12751052928
12751059764
12751067882
12751079112
12751088511
12751099193
12751107371
12751116771
12751123301
12751136973
12751144603
12751154002
12751160960
12751169688
12751177684
12751186289
12751193431
12751199412
12751205516
12751210398
12751215708
12751221018
12751226695
12751231272
12751238902
12751247630
12751254588
12751260508
12751265513
12751269541
12751275279
12751280833
12751286143
12751293284
12751298716
12751304392
12751310435
12751314585
12751319407
12751324778
12751330820
12751335642
12751340586
12751347544
12751355417
12751359934
12751366953
12751372751
12751378245
12751385264
12751390879
12751394785
12751399546
12751407053
12751412302
12751418039
12751422800
12751428904
12751433664
12751440561
12751445505
12751450937
12751456675
12751461985
12751467600
12751473154
12751479563
12751484506
12751491403
12751496103
12751502695
12751508127
12751513437
12751518808
12751523203
12751530466
12751537729
12751542429
12751549814
12751556589
12751562143
12751567758
12751572824
12751577707
12751585641
12751591501
12751595895
12751601694
12751606576
12751611887
12751616464
12751622018
12751631235
12751635873
12751642770
12751651987
12751657968
12751661996
12751670602
12751675607
12751683420
12751692087
12751697275
12751703012
12751707895
12751714792
12751720224
12751725778
12751729684
12751735604
12751739999
12751745370
12751749520
12751757333
12751762582
12751768624
12751774301
12751783395
12751789254
12751794015
12751800546
12751805917
12751809640
12751814584
12751818246
12751823129
12751827035
12751834115
12751840280
12751845895
12751850228
12751857247
12751861276
12751866647
12751872994
12751880074
12751885445
12751890633
12751895943
12751901986
12751906625
12751912240
12751918343
12751923714
12751930489
12751935799
12751940011
12751945077
12751949715
12751954110
12751959847
12751968453
12751974740
12751983834
12751993050
12752000741
12752007088
12752015206
12752023751
12752031441
12752035469
12752045052
12752051278
12752060189
12752066658
12752074898
12752081124
12752090584
12752096504
12752103585
12752112496
12752118233
12752127327
12752134773
12752145393
12752152718
12752160103
12752168343
12752176460
12752183357
12752191292
12752199898
12752208992
12752216377
12752226875
12752234016
12752245003
12752253425
12752264534
12752271492
12752282600
12752291084
12752298591
12752309272
12752317207
12752326301
12752333076
12752344734
12752349372
12752359565
12752368904
12752377143
12752385017
12752393257
12752398384
12752409431
12752417488
12752425666
12752433296
12752441291
12752445991
12752456245
12752462959
12752473212
12752481147
12752491462
12752499213
12752508796
12752516852
12752523078
12752529792
12752538947
12752545600
12752554938
12752561774
12752571418
12752577949
12752586310
12752593635
12752603095
12752613166
12752618049
12752627265
12752633551
12752643012
12752650397
12752660102
12752666693
12752677314
12752684088
12752693305
12752698981
12752707099
12752716010
12752724371
12752728644
12752739935
12752750189
12752758612
12752765143
12752773199
12752779486
12752786810
12752792731
12752800238
12752810553
12752819342
12752825262
12752831976
12752841315
12752847296
12752855963
12752862677
12752870428
12752877936
12752886541
12752891424
12752901068
12752908026
12752914801
12752922125
12752930548
12752937506
12752946051
12752952520
12752960455
12752967718
12752975042
12752980963
12752987188
12752997381
12753005682
12753014227
12753024297
12753028021
12753037969
12753043829
12753054266
12753061895
12753070623
12753077276
12753088506
12753096563
12753106878
12753114629
12753124395
12753135137
12753142766
12753151250
12753160283
12753167608
12753173406
12753183599
12753192510
12753199346
12753205205
12753214422
12753220403
12753227056
12753236272
12753244146
12753250005
12753258367
12753266484
12753279668
12753286504
12753292974
12753303105
12753310613
12753317265
12753325444
12753332524
12753339421
12753346806
12753354558
12753362370
12753369878
12753374394
12753380070
12753385075
12753389226
12753394963
12753399235
12753404179
12753408757
12753413701
12753418034
12753423283
12753428654
12753433232
12753437932
12753443669
12753449833
12753454045
12753459599
12753464543
12753468571
12753474247
12753478947
12753483708
12753489995
12753495427
12753499455
12753503849
12753510136
12753515568
12753520390
12753525151
12753532658
12753537114
12753541569
12753547245
12753552311
12753557621
12753561405
12753566838
12753574223
12753579228
12753585392
12753591068
12753595402
12753602482
12753608341
12753613651
12753620793
12753626408
12753632694
12753637028
12753642216
12753648991
12753655888
12753660831
12753667851
12753672672
12753679020
12753683659
12753689091
12753694035
12753699345
12753705082
12753711857
12753717350
12753724918
12753730778
12753736820
12753742740
12753749943
12753756168
12753763675
12753771366
12753776859
12753782963
12753788334
12753795353
12753800296
12753806644
12753812565
12753817386
12753823978
12753828800
12753834842
12753841312
12753846500
12753851566
12753859256
12753865055
12753872318
12753875736
12753883426
12753887699
12753893009
12753898441
12753904056
12753911502
12753915958
12753923099
12753927799
12753934207
12753939151
12753945377
12753948184
12753958316
12753964298
12753970401
12753973514
12753981021
12753987247
12753992923
12753996646
12754005984
12754011355
12754015872
12754022037
12754027713
12754032474
12754037112
12754043887
12754048160
12754056705
12754062076
12754067569
12754075198
12754080874
12754085696
12754092776
12754097720
12754105227
12754110720
12754116763
12754122744
12754129092
12754133425
12754140261
12754145266
12754151187
12754156253
12754163027
12754167544
12754172671
12754177920
12754184756
12754190249
12754198001
12754205142
12754211062
12754218020
12754226260
12754234072
12754246462
12754258974
12754281496
12754292483
12754302798
12754313357
12754324404
12754333681
12754347475
12754358950
12754367434
12754375002
12754384768
12754394350
12754402590
12754412172
12754420351
12754429018
12754439699
12754448976
12754457399
12754462831
12754472963
12754481142
12754490053
12754496889
12754503237
12754515260
12754524477
12754531374
12754540041
12754549135
12754557863
12754565492
12754576723
12754583192
12754596742
12754604799
12754611269
12754620241
12754627077
12754634218
12754641664
12754652223
12754659730
12754669191
12754675721
12754685121
12754691835
12754700074
12754706666
12754714784
12754722596
12754731874
12754740724
12754745912
12754755433
12754764772
12754771730
12754780946
12754789796
12754798097
12754806519
12754812379
12754821229
12754826478
12754832459
12754843140
12754850892
12754858338
12754861939
12754873658
12754880433
12754888123
12754894105
12754904420
12754912598
12754919739
12754926209
12754935792
12754942505
12754949036
12754955689
12754966797
12754974488
12754982850
12754990174
12754996399
12755005249
12755011536
12755017701
12755028015
12755034851
12755043701
12755049744
12755058594
12755067200
12755075073
12755079834
12755090271
12755099304
12755105530
12755113953
12755119934
12755129212
12755135620
12755147461
12755154419
12755165222
12755176086
12755182556
12755191833
12755202515
12755211975
12755221496
12755229370
12755238830
12755246399
12755255737
12755264770
12755273681
12755282226
12755290161
12755296753
12755306396
12755312561
12755319702
12755328430
12755337585
12755344787
12755354797
12755363769
12755371643
12755377929
12755386779
12755394470
12755402953
12755412292
12755419433
12755427612
12755436279
12755443725
12755450195
12755455932
12755466247
12755472961
12755479552
12755486327
12755496764
12755503112
12755511046
12755519164
12755526122
12755532409
12755541320
12755548522
12755554992
12755561706
12755568114
12755575988
12755584166
12755592833
12755599852
12755606749
12755613951
12755622069
12755626586
12755632384
12755639464
12755643431
12755648741
12755654235
12755660277
12755666258
12755671569
12755676146
12755681517
12755687926
12755693480
12755697386
12755703795
12755707335
12755714049
12755719176
12755725951
12755729247
12755736083
12755741515
12755747740
12755752806
12755759337
12755763914
12755767882
12755775267
12755780089
12755787657
12755791807
12755798338
12755802428
12755809996
12755817137
12755823607
12755830504
12755834837
12755843077
12755851134
12755856444
12755866026
12755871092
12755879271
12755884764
12755891905
12755898375
12755908018
12755914610
12755920286
12755924986
12755930784
12755935972
12755941038
12755947142
12755953977
12755959349
12755964598
12755968382
12755976682
12755982603
12755987791
12755993223
12755998960
12756004087
12756010984
12756015867
12756022520
12756025938
12756033323
12756038572
12756046446
12756051756
12756056516
12756061704
12756066831
12756070371
12756075742
12756081174
12756085630
12756091550
12756096006
12756101011
12756106321
12756110654
12756114988
12756121641
12756126584
12756132810
12756138486
12756144590
12756149228
12756154905
12756160459
12756166501
12756171079
12756178708
12756184324
12756189084
12756195981
12756199582
12756205320
12756213681
12756220334
12756225949
12756232602
12756237241
12756241696
12756247922
12756251828
12756259580
12756264890
12756271421
12756276731
12756281125
12756286496
12756292600
12756297910
12756306394
12756310483
12756317441
12756321896
12756328732
12756334592
12756339597
12756344663
12756353391
12756359128
12756364804
12756370969
12756378903
12756384640
12756391782
12756397458
12756405698
12756412289
12756420590
12756428403
12756433774
12756438168
12756443112
12756454770
12756462765
12756468686
12756474484
12756483212
12756491024
12756498043
12756503109
12756512875
12756518490
12756526852
12756534115
12756541195
12756548031
12756553219
12756563900
12756571835
12756579403
12756588497
12756595089
12756602657
12756609188
12756616757
12756623470
12756631527
12756637020
12756645565
12756653072
12756660030
12756668575
12756677669
12756682125
12756692196
12756699764
12756706966
12756714229
12756721371
12756728145
12756736202
12756743282
12756752254
12756757808
12756767086
12756773616
12756779842
12756786434
12756796138
12756801693
12756810482
12756818599
12756825069
12756832881
12756840145
12756847774
12756856868
12756864742
12756870784
12756879085
12756888118
12756893978
12756903560
12756909236
12756918269
12756925411
12756932613
12756939571
12756945735
12756955196
12756961482
12756971126
12756980403
12756986629
12756992915
12757001460
12757009395
12757017146
12757023433
12757034541
12757042720
12757050471
12757058711
12757068171
12757076228
12757085444
12757095393
12757104365
12757113032
12757119868
12757128901
12757137446
12757148310
12757157038
12757166987
12757177485
12757184504
12757192622
12757200129
12757210383
12757217890
12757225703
12757233820
12757242609
12757248591
12757257563
12757266840
12757272883
12757282831
12757291926
12757299494
12757308161
12757316035
12757323664
12757334101
12757341120
12757351191
12757358820
12757367609
12757375788
12757380182
12757393305
12757399775
12757410578
12757417414
12757426874
12757434809
12757442011
12757449701
12757459040
12757465570
12757475153
12757482050
12757487421
12757497003
12757503534
12757510553
12757517206
12757525507
12757533929
12757541620
12757548395
12757555719
12757564142
12757571344
12757578058
12757585687
12757592523
12757601190
12757607843
12757614068
12757622003
12757628656
12757634149
12757645440
12757654596
12757661248
12757667779
12757676324
12757686883
12757695367
12757699884
12757710015
12757718316
12757727471
12757735406
12757742913
12757751092
12757760919
12757768243
12757776177
12757785638
12757793145
12757802911
12757807977
12757813531
12757818719
12757824822
12757832879
12757837701
12757843560
12757848382
12757854607
12757859490
12757865472
12757872185
12757880913
12757888055
12757895196
12757898980
12757905633
12757914117
12757921258
12757927666
12757933648
12757939385
12757946526
12757951287
12757957757
12757962639
12757968560
12757973320
12757979424
12757984246
12757990227
12757995781
12758001336
12758007622
12758015190
12758021660
12758028008
12758034539
12758039238
12758044915
12758050835
12758056816
12758061882
12758066460
12758072380
12758078301
12758083672
12758088188
12758092827
12758100395
12758106194
12758110893
12758116142
12758120659
12758127007
12758131645
12758135735
12758143669
12758147758
12758153679
12758157829
12758165153
12758171623
12758176567
12758182671
12758190117
12758194450
12758199577
12758204582
12758209953
12758214348
12758220634
12758225212
12758232780
12758237846
12758244255
12758250114
12758255302
12758259941
12758265617
12758270317
12758276115
12758281974
12758288322
12758291130
12758297783
12758302177
12758310234
12758317009
12758323844
12758329887
12758337821
12758342704
12758348381
12758356193
12758361442
12758368217
12758373039
12758379264
12758384269
12758389274
12758395500
12758399223
12758405753
12758411063
12758417594
12758422660
12758427726
12758433952
12758439994
12758446159
12758453117
12758461600
12758466849
12758474723
12758481071
12758486503
12758494620
12758500175
12758505912
12758510367
12758517997
12758522819
12758529532
12758535819
12758540885
12758546317
12758555228
12758560721
12758566153
12758571219
12758579093
12758584220
12758593436
12758597647
12758604605
12758609549
12758613883
12758618766
12758623221
12758628287
12758632621
12758638785
12758646170
12758651908
12758659415
12758666190
12758675833
12758681632
12758688590
12758695242
12758702933
12758709464
12758716544
12758722647
12758731680
12758738028
12758746451
12758754019
12758760306
12758768668
12758777396
12758784964
12758792654
12758799185
12758807364
12758814017
12758823477
12758831350
12758837576
12758846609
12758853811
12758861441
12758871450
12758879263
12758888357
12758896414
12758904776
12758912222
12758918325
12758929129
12758935598
12758943655
12758952139
12758962087
12758970022
12758975027
12758984548
12758991323
12759001272
12759008291
12759015676
12759023733
12759031728
12759039053
12759047109
12759055776
12759063833
12759071706
12759080007
12759087453
12759095693
12759102346
12759111013
12759117727
12759125905
12759135244
12759141286
12759151418
12759157888
12759168813
12759178640
12759186757
12759195485
12759204824
12759212209
12759221852
12759227712
12759243032
12759249623
12759256948
12759267385
12759273671
12759283498
12759289906
12759299733
12759306569
12759314504
12759323964
12759330556
12759340016
12759346608
12759356313
12759365041
12759372731
12759379750
12759388844
12759397023
12759408925
12759416310
12759424122
12759431202
12759440297
12759448720
12759457570
12759465016
12759473195
12759479664
12759489003
12759495533
12759505360
12759512074
12759520497
12759529713
12759536427
12759545094
12759550404
12759559254
12759567372
12759576588
12759582813
12759590016
12759598438
12759605824
12759615406
12759623158
12759630054
12759638233
12759646473
12759655079
12759659229
12759670399
12759680103
12759685291
12759694630
12759702076
12759712330
12759717884
12759727283
12759734241
12759741810
12759750660
12759758106
12759764270
12759774463
12759782215
12759790943
12759798694
12759804798
12759814319
12759820484
12759828907
12759835803
12759845569
12759852466
12759862354
12759868274
12759877551
12759885608
12759892871
12759902026
12759909595
12759918933
12759926563
12759935291
12759942737
12759950427
12759959827
12759967456
12759977100
12759984851
12759992541
12759999621
12760009814
12760017932
12760026050
12760034167
12760044116
12760051440
12760059436
12760066760
12760076342
12760086474
12760092517
12760099292
12760108752
12760114917
12760124499
12760128894
12760133532
12760139514
12760143786
12760149706
12760154284
12760161852
12760166796
12760171557
12760176562
12760181567
12760191149
12760196398
12760202013
12760206103
12760212084
12760217822
12760223681
12760228136
12760233874
12760238390
12760243822
12760251574
12760257433
12760261950
12760267016
12760273485
12760277941
12760283495
12760288988
12760294848
12760301256
12760305407
12760310045
12760316637
12760322924
12760328356
12760333117
12760340441
12760345934
12760353441
12760358080
12760362658
12760369127
12760374010
12760380968
12760384691
12760392076
12760396044
12760401781
12760408556
12760413988
12760418932
12760424974
12760427904
12760435594
12760442247
12760445848
12760452501
12760457140
12760464159
12760469774
12760474901
12760480516
12760486559
12760492235
12760498888
12760504198
12760509691
12760515062
12760521288
12760527513
12760533800
12760538866
12760543748
12760549303
12760555589
12760561265
12760567735
12760573778
12760579332
12760584520
12760592393
12760596849
12760603258
12760608079
12760615281
12760620164
12760626268
12760631639
12760638170
12760645372
12760650804
12760658372
12760663011
12760669542
12760673021
12760680406
12760687852
12760692369
12760700486
12760705979
12760713426
12760717759
12760722093
12760728074
12760732286
12760738572
12760744065
12760749314
12760754991
12760760056
12760765916
12760771348
12760777024
12760782762
12760788865
12760793687
12760801804
12760807908
12760813889
12760819321
12760823411
12760830796
12760835557
12760842026
12760846116
12760851731
12760857102
12760862534
12760867234
12760872727
12760878342
12760883347
12760890244
12760894456
12760900132
12760905747
12760911118
12760916428
12760923447
12760926682
12760934067
12760939988
12760945542
12760950425
12760955735
12760960862
12760966965
12760972641
12760977036
12760988083
12760993454
12761003769
12761010727
12761020249
12761027512
12761037461
12761045944
12761055527
12761063889
12761070969
12761080490
12761088242
12761098923
12761109787
12761116623
12761125839
12761134506
12761142014
12761148422
12761158981
12761165268
12761175766
12761183029
12761191208
12761197616
12761206283
12761214767
12761222519
12761228866
12761238449
12761245468
12761254806
12761261276
12761268295
12761278061
12761284164
12761294052
12761299362
12761309677
12761315170
12761325241
12761332992
12761341110
12761349960
12761360641
12761367050
12761381576
12761389938
12761397811
12761407333
12761414718
12761424300
12761432540
12761439071
12761449752
12761458297
12761464217
12761470687
12761480208
12761487227
12761496627
12761503097
12761511397
12761521224
12761527144
12761537093
12761545028
12761552474
12761561019
12761569075
12761576278
12761587386
12761593734
12761601790
12761609420
12761617537
12761624495
12761634932
12761641219
12761649275
12761658003
12761664839
12761674361
12761680586
12761689864
12761697676
12761705244
12761711287
12761721419
12761727583
12761736128
12761745283
12761751326
12761760664
12761766829
12761775435
12761784834
12761792341
12761801375
12761809492
12761815535
12761824385
12761830366
12761839216
12761845808
12761856428
12761864180
12761871687
12761878645
12761891340
12761898542
12761906111
12761913618
12761922102
12761930281
12761938459
12761946455
12761955061
12761963545
12761971784
12761979841
12761989057
12761997602
12762006391
12762014265
12762019331
12762028730
12762037641
12762046613
12762052045
12762062116
12762069623
12762077497
12762086347
12762093854
12762101972
12762110090
12762117353
12762126569
12762132917
12762142560
12762149152
12762156781
12762164289
12762171979
12762178022
12762187299
12762195844
12762204572
12762209699
12762221417
12762228498
12762238629
12762245282
12762256085
12762268964
12762275678
12762282880
12762292340
12762298810
12762308148
12762316693
12762323224
12762333539
12762340131
12762350262
12762356915
12762366620
12762372967
12762379620
12762391705
12762399762
12762408673
12762417767
12762425763
12762434185
12762438336
12762452313
12762459698
12762470013
12762477581
12762488263
12762496380
12762502850
12762507977
12762513653
12762517742
12762524456
12762528790
12762535015
12762540875
