12766589204
12766594880
12766600557
12766606355
12766610750
12766615510
12766620759
12766625276
12766629976
12766635347
12766641389
12766646089
12766650788
12766655366
12766660005
12766664460
12766668611
12766673188
12766677217
12766681977
12766686372
12766691011
12766695222
12766699678
12766704927
12766709260
12766714570
12766719697
12766724214
12766729768
12766734284
12766739045
12766743501
12766748078
12766752412
12766757600
12766762116
12766767365
12766772431
12766777680
12766782075
12766786225
12766791901
12766797700
12766802277
12766805756
12766809968
12766813813
12766818024
12766821870
12766825959
12766830476
12766834077
12766838166
12766843049
12766847993
12766852570
12766857087
12766861237
12766867280
12766872834
12766879242
12766884186
12766890351
12766895600
12766901032
12766906525
12766912323
12766918061
12766925324
12766931122
12766935883
12766942414
12766951203
12766956757
12766965668
12766972138
12766980072
12766986176
12766992890
12766999481
12767005097
12767012665
12767020477
12767027191
12767034699
12767042084
12767049347
12767054413
12767063202
12767068573
12767077423
12767085419
12767092072
12767099396
12767106415
12767113739
12767120331
12767127655
12767135467
12767142792
12767149383
12767156158
12767163360
12767169464
12767175873
12767181976
12767188446
12767194915
12767200714
12767207794
12767214996
12767220123
12767227630
12767234222
12767240265
12767247284
12767254303
12767259491
12767267791
12767274139
12767280609
12767287750
12767293853
12767299652
12767306732
12767314056
12767320342
12767328033
12767334319
12767340911
12767346282
12767353179
12767360687
12767366912
12767373931
12767379302
12767384673
12767392303
12767399139
12767404693
12767410979
12767418487
12767425078
12767430755
12767436858
12767443511
12767450896
12767456634
12767467681
12767474578
12767481658
12767488921
12767496978
12767504241
12767511626
12767516997
12767525664
12767531462
12767539519
12767545317
12767553435
12767560759
12767566191
12767575286
12767581999
12767589385
12767597624
12767603301
12767611601
12767618498
12767624968
12767633269
12767639800
12767646697
12767653288
12767661284
12767667815
12767675566
12767682585
12767691313
12767698027
12767703642
12767709807
12767716948
12767723112
12767730681
12767737822
12767745268
12767749663
12767758513
12767765898
12767773161
12767779387
12767786772
12767793730
12767800505
12767807768
12767813261
12767820097
12767827971
12767835661
12767841642
12767850370
12767858122
12767867033
12767873625
12767885038
12767892423
12767900541
12767907255
12767915922
12767922819
12767930631
12767937406
12767944853
12767951872
12767959989
12767965299
12767971037
12767976896
12767982633
12767987089
12767993742
12768001859
12768011747
12768022306
12768033842
12768043668
12768053739
12768065091
12768073026
12768081876
12768091214
12768100248
12768107633
12768115934
12768123075
12768129911
12768140409
12768150052
12768159818
12768167630
12768176175
12768184232
12768191129
12768200772
12768209500
12768216886
12768224149
12768230985
12768238248
12768246243
12768253629
12768261990
12768269742
12768277066
12768284695
12768292752
12768300259
12768307339
12768314542
12768322476
12768329678
12768337124
12768344327
12768352017
12768359219
12768367398
12768374173
12768383084
12768390042
12768397488
12768407376
12768414212
12768421719
12768430569
12768437588
12768444912
12768452847
12768460720
12768469509
12768477383
12768485501
12768492886
12768499600
12768508938
12768515591
12768524258
12768531521
12768539761
12768547512
12768556667
12768565701
12768572353
12768582973
12768590115
12768597683
12768607143
12768616421
12768624111
12768633083
12768641201
12768650356
12768658169
12768664455
12768674343
12768683315
12768689541
12768698452
12768706752
12768717006
12768725856
12768732326
12768738247
12768749538
12768757839
12768766628
12768773525
12768781703
12768788478
12768796474
12768804958
12768812709
12768820766
12768829006
12768845668
12768864040
12768886684
12768905360
12768926295
12768946620
12768966578
12768993190
12769018580
12769037135
12769048487
12769058619
12769068202
12769084559
12769098536
12769113612
12769129298
12769141322
12769149806
12769159083
12769167017
12769174403
12769181605
12769190455
12769199000
12769207728
12769214747
12769224024
12769233179
12769241053
12769248377
12769256128
12769264856
12769272608
12769281031
12769290430
12769296534
12769305201
12769313868
12769321558
12769328943
12769340479
12769348474
12769355799
12769364405
12769372278
12769381433
12769388697
12769397547
12769406214
12769413172
12769421472
12769428980
12769435571
12769443323
12769450037
12769461023
12769468347
12769476770
12769484460
12769492090
12769499963
12769508935
12769516321
12769526330
12769535486
12769545068
12769556726
12769568811
12769577478
12769588830
12769599450
12769606042
12769617089
12769625940
12769638024
12769649072
12769656701
12769668786
12769676599
12769688317
12769695825
12769703149
12769709680
12769716515
12769720666
12769729882
12769736596
12769741662
12769748559
12769753625
12769761498
12769769372
12769776696
12769781091
12769788964
12769798058
12769804223
12769812401
12769820885
12769829491
12769836510
12769842858
12769850548
12769856469
12769864770
12769870995
12769878502
12769884484
12769891747
12769896447
12769904320
12769911278
12769916405
12769924950
12769931115
12769937950
12769943261
12769951012
12769957360
12769963341
12769969322
12769978417
12769983666
12769991051
12769999108
12770004540
12770011498
12770019066
12770027123
12770035729
12770044823
12770054955
12770061424
12770069359
12770075157
12770083641
12770091637
12770099815
12770105858
12770113304
12770119346
12770126610
12770132774
12770139915
12770145897
12770153465
12770159508
12770167320
12770174034
12770179954
12770186424
12770194481
12770200828
12770209190
12770216087
12770222251
12770234092
12770239952
12770246665
12770255638
12770263572
12770269554
12770276939
12770283836
12770292076
12770298423
12770306907
12770314536
12770323692
12770328330
12770337119
12770343711
12770351524
12770358665
12770367210
12770374961
12770381553
12770389243
12770397422
12770403098
12770411338
12770419028
12770426414
12770434165
12770441184
12770448935
12770458579
12770467368
12770474021
12770484946
12770493186
12770503989
12770512168
12770520896
12770529563
12770535666
12770544638
12770553122
12770558127
12770562339
12770566367
12770572959
12770577170
12770582846
12770587729
12770595114
12770599692
12770604392
12770608725
12770613303
12770618063
12770621542
12770627402
12770634116
12770639121
12770644064
12770649130
12770655112
12770659933
12770665121
12770670615
12770676352
12770682516
12770687277
12770693686
12770698996
12770705160
12770711569
12770717428
12770724081
12770728598
12770735312
12770740866
12770747091
12770751486
12770756857
12770760641
12770767477
12770773337
12770778524
12770784872
12770790121
12770793600
12770800985
12770806540
12770810751
12770816854
12770822592
12770826315
12770831503
12770836386
12770842977
12770846884
12770852377
12770858053
12770863546
12770867391
12770873617
12770879049
12770886862
12770891012
12770897726
12770901571
12770908895
12770915121
12770920126
12770924215
12770933248
12770938802
12770943136
12770948080
12770952291
12770958639
12770963400
12770968649
12770975607
12770980672
12770985677
12770991170
12770996419
12771000997
12771008138
12771013814
12771023580
12771030416
12771036336
12771044149
12771050374
12771057882
12771062826
12771068685
12771074178
12771080831
12771084798
12771090535
12771096761
12771102437
12771108968
12771113301
12771119588
12771124288
12771128499
12771136251
12771140645
12771147237
12771151754
12771157918
12771163655
12771170491
12771175069
12771181172
12771188619
12771195394
12771199849
12771207356
12771211751
12771217366
12771223164
12771228658
12771235188
12771242329
12771246053
12771254109
12771261678
12771267659
12771273885
12771279988
12771286519
12771292622
12771298482
12771303548
12771309285
12771315083
12771318928
12771326619
12771332234
12771338521
12771343525
12771350667
12771357319
12771366108
12771374348
12771382100
12771390400
12771399189
12771407185
12771414753
12771422993
12771431660
12771437702
12771448017
12771456318
12771466267
12771472187
12771482380
12771487812
12771497639
12771503071
12771512165
12771519734
12771528889
12771535053
12771544270
12771552509
12771562153
12771568134
12771577717
12771585651
12771594807
12771602863
12771611042
12771619282
12771629108
12771635517
12771643757
12771651874
12771661335
12771669452
12771677387
12771685810
12771696247
12771702533
12771714374
12771720722
12771736652
12771742450
12771752704
12771759845
12771767414
12771777240
12771785236
12771791644
12771798786
12771810138
12771815692
12771826312
12771833453
12771841632
12771849017
12771857928
12771867267
12771873981
12771883197
12771891986
12771899005
12771906451
12771915790
12771923907
12771930438
12771939776
12771946368
12771955707
12771962298
12771970416
12771980548
12771989825
12771996417
12772004840
12772013446
12772019488
12772028826
12772034869
12772045184
12772053973
12772064898
12772074053
12772080523
12772088824
12772096697
12772105303
12772114153
12772122637
12772129107
12772136858
12772143450
12772151690
12772158221
12772168230
12772175494
12772185137
12772192461
12772202532
12772209795
12772218645
12772226153
12772235674
12772243487
12772251299
12772260637
12772268267
12772277971
12772285112
12772292864
12772301348
12772308733
12772317827
12772323503
12772331804
12772339189
12772347673
12772355913
12772363542
12772371904
12772380693
12772388994
12772398638
12772404680
12772414507
12772422868
12772431718
12772438066
12772449175
12772455156
12772463945
12772472185
12772481035
12772490495
12772497331
12772508745
12772516496
12772528459
12772538469
12772548173
12772554399
12772566545
12772574357
12772581376
12772590471
12772597062
12772605241
12772611772
12772619401
12772627580
12772635636
12772642778
12772651628
12772658036
12772665727
12772672074
12772680741
12772687211
12772697160
12772703629
12772711198
12772717545
12772725907
12772732377
12772740922
12772747453
12772755265
12772763871
12772771317
12772777970
12772786210
12772794694
12772801530
12772806962
12772813859
12772818925
12772824296
12772831742
12772836747
12772843766
12772849015
12772853653
12772860428
12772865311
12772870865
12772875504
12772882218
12772886795
12772892960
12772897538
12772904313
12772909745
12772913895
12772920365
12772925553
12772930863
12772938248
12772944046
12772949112
12772954117
12772962113
12772968155
12772973282
12772978348
12772984940
12772989700
12772997147
12773001602
12773007828
12773012344
12773019058
12773024185
12773028946
12773033646
12773040665
12773046036
12773051041
12773055740
12773061295
12773067642
12773072464
12773077042
12773084000
12773089371
12773095779
12773099441
12773106460
12773112076
12773116531
12773121292
12773127945
12773132889
12773139663
12773144668
12773150528
12773157791
12773162796
12773169449
12773177444
12773180984
12773188186
12773196548
12773201614
12773206802
12773213394
12773217971
12773224563
12773229690
12773234024
12773238601
12773245498
12773250625
12773255630
12773260330
12773267166
12773272109
12773276504
12773281021
12773287185
12773291824
12773298232
12773303176
12773310928
12773316543
12773321304
12773326308
12773332595
12773337661
12773343520
12773348464
12773355117
12773360000
12773366897
12773372329
12773379165
12773384292
12773390273
12773395766
12773404738
12773410171
12773416762
12773421889
12773427260
12773432387
12773437819
12773443435
12773449416
12773454360
12773460158
12773465163
12773472182
12773477126
12773483962
12773489150
12773495864
12773500991
12773507338
12773512343
12773518325
12773523268
12773529433
12773535781
12773541640
12773546645
12773552992
12773557570
12773564528
12773568801
12773574721
12773579299
12773586806
12773591567
12773597853
12773603774
12773607924
12773614821
12773618910
12773625441
12773631300
12773638075
12773644118
12773653944
12773661757
12773669203
12773677077
12773685133
12773693312
12773701613
12773709791
12773717909
12773725966
12773734938
12773740858
12773749769
12773757704
12773766371
12773773817
12773783766
12773792738
12773799757
12773807631
12773817762
12773825819
12773836622
12773844557
12773851942
12773861097
12773869093
12773876356
12773885023
12773891554
12773901075
12773911695
12773919996
12773929334
12773940321
12773947462
12773956129
12773963087
12773972181
12773979322
12773988782
12773995252
12774003919
12774010694
12774018690
12774026868
12774034681
12774043165
12774051404
12774059949
12774067701
12774075635
12774083997
12774092115
12774099805
12774107679
12774115674
12774122571
12774133008
12774141370
12774150037
12774157239
12774165723
12774174085
12774182263
12774190198
12774198316
12774204907
12774213147
12774222058
12774229749
12774238599
12774244275
12774255200
12774261365
12774269971
12774276196
12774286145
12774292187
12774301098
12774310071
12774316540
12774322888
12774332287
12774340283
12774347851
12774356396
12774363842
12774369580
12774379162
12774387524
12774394360
12774402356
12774409069
12774417065
12774425061
12774433056
12774441174
12774449902
12774458691
12774464367
12774473461
12774481396
12774490612
12774498364
12774507946
12774513073
12774521923
12774529308
12774536266
12774543224
12774551281
12774557934
12774566601
12774574047
12774584301
12774590649
12774600109
12774609264
12774620434
12774629711
12774638683
12774649730
12774658214
12774664074
12774674633
12774681041
12774686779
12774695140
12774702709
12774709850
12774717418
12774723705
12774732067
12774738841
12774745738
12774750560
12774759044
12774765819
12774773265
12774779369
12774786815
12774794200
12774801585
12774810069
12774818492
12774825023
12774831615
12774837840
12774848094
12774856517
12774862987
12774872325
12774879954
12774885753
12774894237
12774903331
12774912791
12774924266
12774932628
12774938853
12774950145
12774958995
12774965159
12774970897
12774982310
12774989634
12774995311
12775003855
12775012156
12775018870
12775027110
12775035350
12775042063
12775048960
12775054820
12775060923
12775065501
12775070628
12775075755
12775083872
12775089488
12775096140
12775101756
12775105967
12775112009
12775117686
12775123362
12775131236
12775137583
12775143259
12775147593
12775154978
12775159983
12775167734
12775173044
12775180735
12775185984
12775190989
12775198374
12775201609
12775208689
12775215891
12775221872
12775227305
12775233225
12775241221
12775246042
12775252512
12775258432
12775263926
12775271128
12775275705
12775285288
12775292185
12775298777
12775304392
12775311350
12775319345
12775324839
12775333444
12775340586
12775346445
12775350717
12775357614
12775361276
12775366342
12775370981
12775379099
12775383432
12775389902
12775394113
12775401010
12775405649
12775412241
12775416513
12775426706
12775431772
12775439218
12775443918
12775449472
12775455759
12775461191
12775467111
12775472726
12775476633
12775483896
12775489816
12775495920
12775501108
12775505258
12775512216
12775518991
12775523630
12775528024
12775535653
12775541391
12775549325
12775556772
12775561715
12775565316
12775573861
12775578073
12775585092
12775590402
12775596505
12775601754
12775608285
12775612985
12775619088
12775625131
12775629586
12775637887
12775643746
12775648812
12775653390
12775658456
12775664193
12775671090
12775676461
12775682748
12775687936
12775694100
12775700387
12775707345
12775712655
12775718575
12775724435
12775729012
12775736825
12775741341
12775746651
12775752938
12775758248
12775765023
12775771920
12775777474
12775783211
12775788155
12775795357
12775801217
12775805855
12775810494
12775818673
12775824288
12775828743
12775835152
12775840706
12775847664
12775851326
12775858407
12775862435
12775869454
12775875557
12775882515
12775887337
12775893685
12775899666
12775905220
12775913826
12775919442
12775925972
12775931465
12775939766
12775944832
12775954842
12775961373
12775970650
12775976143
12775985603
12775993477
12776001045
12776009651
12776018257
12776026680
12776034798
12776042793
12776049934
12776057930
12776066170
12776074348
12776080879
12776088325
12776097603
12776105049
12776115242
12776123359
12776133125
12776141365
12776148506
12776157051
12776166145
12776174324
12776181770
12776192207
12776199348
12776207832
12776215705
12776222969
12776230842
12776238227
12776249885
12776257453
12776267646
12776274970
12776282111
12776288764
12776296943
12776303596
12776313056
12776319770
12776326667
12776335456
12776342170
12776348212
12776356635
12776364936
12776372260
12776378242
12776387214
12776393378
12776402411
12776408454
12776416083
12776423896
12776431647
12776437995
12776445075
12776453193
12776461615
12776469489
12776477240
12776483893
12776491339
12776497870
12776504462
12776512763
12776519477
12776528449
12776534979
12776543646
12776550055
12776558905
12776565375
12776573065
12776579718
12776584662
12776593390
12776602728
12776609381
12776619208
12776625494
12776635016
12776643866
12776651068
12776659979
12776667486
12776673773
12776680182
12776690680
12776700690
12776707098
12776717169
12776726629
12776733648
12776741644
12776754950
12776763189
12776771856
12776780035
12776786749
12776796331
12776803045
12776811529
12776818426
12776826422
12776833258
12776841680
12776848394
12776855779
12776864202
12776872137
12776878912
12776886236
12776892217
12776900579
12776906683
12776916814
12776923162
12776931646
12776937688
12776945074
12776953496
12776959295
12776968023
12776976446
12776984502
12776992681
12776998845
12777006231
12777016240
12777024175
12777033025
12777041143
12777050054
12777056646
12777064946
12777071050
12777076482
12777087590
12777092656
12777100103
12777107549
12777116399
12777124150
12777133000
12777138494
12777147344
12777154912
12777162541
12777170293
12777178105
12777185918
12777192204
12777200322
12777209966
12777218449
12777226079
12777231450
12777242131
12777249882
12777258977
12777266606
12777273381
12777282719
12777288090
12777297307
12777303532
12777313237
12777321599
12777329228
12777337407
12777346318
12777351323
12777362126
12777367314
12777375920
12777385441
12777393193
12777399906
12777406132
12777410954
12777416935
12777422062
12777426701
12777435368
12777439884
12777446537
12777450993
12777457340
12777464054
12777468449
12777474552
12777480412
12777487003
12777494389
12777502689
12777509342
12777515812
12777522282
12777529545
12777534855
12777540470
12777546818
12777550419
12777557865
12777563663
12777568302
12777573490
12777578068
12777583072
12777589298
12777593937
12777600773
12777604801
12777612736
12777616337
12777623050
12777627811
12777633243
12777638553
12777644230
12777651310
12777657169
12777662479
12777668644
12777674076
12777678592
12777687442
12777691227
12777697879
12777703495
12777710758
12777715274
12777721073
12777727725
12777735172
12777739505
12777748844
12777752689
12777758548
12777764224
12777770511
12777776126
12777784122
12777789981
12777794864
12777799503
12777804080
12777812015
12777817996
12777822879
12777829105
12777835391
12777839969
12777846927
12777853091
12777857242
12777864993
12777873294
12777877383
12777883365
12777888309
12777895999
12777903628
12777911136
12777916446
12777923037
12777929629
12777936099
12777940554
12777948672
12777954165
12777961306
12777966372
12777973208
12777979739
12777988528
12777993167
12778000735
12778005007
12778010989
12778014773
12778021609
12778025942
12778033633
12778038577
12778043521
12778048831
12778056887
12778061770
12778067690
12778072512
12778077395
12778087710
12778093630
12778098635
12778104617
12778109805
12778115237
12778125185
12778131350
12778139223
12778147341
12778152224
12778155886
12778161379
12778166933
12778172793
12778177675
12778185305
12778190981
12778195437
12778201113
12778205385
12778211062
12778217348
12778224123
12778229433
12778233706
12778239931
12778244204
12778251406
12778256899
12778261415
12778266176
12778271914
12778277773
12778283693
12778290529
12778299684
12778306154
12778315920
12778322450
12778328615
12778339479
12778345522
12778353456
12778362001
12778370790
12778379945
12778388673
12778396974
12778403932
12778411501
12778422121
12778430055
12778440553
12778448183
12778456727
12778464662
12778472658
12778480714
12778489076
12778494813
12778503419
12778511293
12778519105
12778524904
12778534974
12778541017
12778549745
12778557924
12778564698
12778572084
12778579652
12778587220
12778595826
12778601258
12778610292
12778622743
12778630982
12778637757
12778644410
12778655457
12778663148
12778671693
12778678285
12778688050
12778694764
12778700806
12778710023
12778719300
12778725587
12778734132
12778740174
12778747681
12778756837
12778762391
12778770325
12778780213
12778786072
12778793397
12778801636
12778809266
12778815186
12778823548
12778832032
12778840027
12778848755
12778854981
12778863037
12778875855
12778882691
12778890015
12778898865
12778906433
12778913635
12778921753
12778927735
12778936463
12778945069
12778952271
12778958191
12778967407
12778973389
12778981873
12778990662
12778997925
12779004639
12779012634
12779021484
12779028992
12779035889
12779043518
12779049499
12779057983
12779064087
12779071838
12779080017
12779088501
12779097473
12779102966
12779111328
12779118835
12779125305
12779132690
12779139770
12779147705
12779156189
12779164733
12779172851
12779180542
12779188842
12779196105
12779203552
12779208312
12779219604
12779227233
12779234008
12779241577
12779248107
12779254882
12779263122
12779271606
12779279174
12779285766
12779293823
12779300475
12779305358
12779316039
12779323424
12779329650
12779340270
12779347106
12779355651
12779363097
12779370788
12779377074
12779385436
12779391479
12779401000
12779407226
12779416198
12779422240
12779429870
12779437743
12779445739
12779451964
12779459472
12779467406
12779474852
12779482787
12779490172
12779496764
12779504210
12779511107
12779518920
12779528563
12779536864
12779544493
12779551573
12779561217
12779568358
12779577269
12779584776
12779592650
12779599913
12779606627
12779622496
12779629576
12779636778
12779644835
12779652159
12779660033
12779672117
12779679259
12779686155
12779693663
12779700316
12779710142
12779717283
12779723936
12779729002
12779734983
12779739866
12779745359
12779750303
12779756834
12779761168
12779768064
12779772642
12779777525
12779785276
12779789793
12779795896
12779799925
12779805906
12779812071
12779817991
12779824644
12779828977
12779833311
12779840147
12779846372
12779851560
12779856992
12779862669
12779867796
12779873899
12779877988
12779883970
12779890440
12779894834
12779899656
12779906675
12779915464
12779920469
12779926328
12779932859
12779936826
12779944517
12779949827
12779955137
12779958372
12779964109
12779968748
12779975034
12779980649
12779986875
12779992368
12779997983
12780004209
12780010923
12780016843
12780020322
12780026120
12780031919
12780037046
12780041806
12780049680
12780055967
12780061216
12780067197
12780073056
12780079648
12780084714
12780093869
12780100400
12780106443
12780112546
12780118222
12780123960
12780129086
12780134519
12780140805
12780145993
12780150754
12780155454
12780162290
12780167478
12780174497
12780180051
12780184445
12780191159
12780198117
12780202756
12780210324
12780216550
12780224362
12780232114
12780237424
12780242795
12780251523
12780260068
12780266965
12780273556
12780279416
12780285031
12780290402
12780296444
12780300412
12780305172
12780311276
12780315243
12780320126
12780327267
12780332699
12780336544
12780341427
12780345395
12780349484
12780357418
12780362790
12780369625
12780376278
12780382077
12780386166
12780392025
12780395504
12780402523
12780408749
12780414730
12780420284
12780425839
12780430416
12780436276
12780441952
12780447933
12780453182
12780460446
12780465939
12780473934
12780477779
12780483089
12780488155
12780492733
12780498714
12780505489
12780510555
12780517086
12780521786
12780528072
12780531429
12780537228
12780542843
12780548824
12780554012
12780561092
12780567684
12780574093
12780582821
12780588192
12780596004
12780601497
12780612179
12780618343
12780627742
12780633358
12780641048
12780649349
12780655758
12780663204
12780671016
12780679134
12780688228
12780696529
12780704097
12780710506
12780721309
12780726619
12780737666
12780743038
12780753963
12780760494
12780769344
12780776485
12780783015
12780788570
12780798946
12780809505
12780816768
12780824580
12780831721
12780841304
12780848140
12780858455
12780870234
12780879085
12780886714
12780896846
12780904414
12780913813
12780921870
12780927546
12780942500
12780949885
12780957515
12780964717
12780974177
12780981562
12780988032
12780997370
12781004023
12781014216
12781022761
12781029048
12781039546
12781048823
12781055354
12781064570
12781073359
12781079646
12781088313
12781096308
12781106684
12781114985
12781124445
12781130366
12781140620
12781146723
12781156000
12781163935
12781172419
12781180536
12781188654
12781194513
12781204523
12781212397
12781220636
12781228937
12781239740
12781246881
12781258051
12781264276
12781274469
12781280634
12781290705
12781298822
12781306024
12781314325
12781322382
12781327265
12781338983
12781346918
12781354791
12781362238
12781368707
12781376215
12781384088
12781388971
12781398737
12781405206
12781413751
12781420709
12781428339
12781434808
12781445062
12781451532
12781460809
12781467462
12781475763
12781484796
12781491266
12781500970
12781507257
12781517328
12781523553
12781532647
12781540887
12781548394
12781555719
12781564508
12781572076
12781579278
12781588922
12781596917
12781604180
12781613153
12781619927
12781626336
12781636407
12781642693
12781652703
12781659051
12781669671
12781675774
12781683892
12781692132
12781700677
12781705804
12781715813
12781722771
12781732659
12781742303
12781750970
12781759148
12781770257
12781778252
12781787346
12781794365
12781803643
12781810967
12781820855
12781828545
12781835320
12781842156
12781851799
12781859246
12781866936
12781873467
12781882500
12781887261
12781897087
12781903984
12781911003
12781917107
12781925163
12781933586
12781938591
12781947685
12781956230
12781962944
12781971672
12781978386
12781986565
12781994133
12782002556
12782010063
12782017265
12782025322
12782032768
12782038444
12782043083
12782050529
12782057487
12782067009
12782070366
12782076103
12782081352
12782086662
12782092094
12782100395
12782107902
12782112419
12782117485
12782124809
12782129692
12782135917
12782140434
12782146110
12782150627
12782156181
12782161125
12782166740
12782170768
12782179679
12782184562
12782187858
12782198173
12782203483
12782208732
12782216728
12782225883
12782234855
12782244743
12782255119
12782263114
12782270744
12782279166
12782286246
12782291740
12782295829
12782301566
12782307609
12782313407
12782318534
12782324393
12782330192
12782335074
12782341117
12782348624
12782354301
12782359366
12782365104
12782370231
12782375663
12782381522
12782386832
12782394278
12782399650
12782407157
12782412772
12782419669
12782426993
12782434928
12782439505
12782448172
12782452384
12782456351
12782461844
12782466117
12782471793
12782476615
12782481131
12782485282
12782489127
12782493460
12782498099
12782503287
12782508658
12782515433
12782521597
12782526480
12782533133
12782537528
12782544669
12782550955
12782555777
12782561697
12782566092
12782570059
12782576041
12782582510
12782588370
12782594595
12782601675
12782605826
12782612234
12782616263
12782625296
12782630911
12782638907
12782645560
12782651480
12782656973
12782661490
12782666556
12782672720
12782677664
12782683828
12782689810
12782694571
12782699331
12782704336
12782709341
12782716665
12782722403
12782726309
12782731558
12782738272
12782743338
12782750112
12782756033
12782762808
12782768972
12782775564
12782780752
12782785208
12782791983
12782796743
12782803396
12782807852
12782814626
12782819937
12782826162
12782832021
12782838186
12782843862
12782848867
12782854849
12782860952
12782866567
12782871938
12782877493
12782886037
12782892934
12782901846
12782908498
12782916616
12782925771
12782934621
12782942800
12782948354
12782961599
12782970388
12782978383
12782983632
12782992910
12783000478
12783006154
12783019216
12783027394
12783037526
12783040639
12783054921
12783063466
12783074636
12783080983
12783089162
12783098683
12783109426
12783117116
12783124623
12783133168
12783141042
12783146596
12783155263
12783161366
12783172597
12783180836
12783188039
12783196278
12783204396
12783212758
12783220509
12783228505
12783235158
12783242726
12783251881
12783259327
12783268849
12783276173
12783281300
12783289540
12783299855
12783306630
12783315785
12783322499
12783330677
12783337819
12783346424
12783353993
12783361134
12783371998
12783381031
12783390431
12783399525
12783406178
12783414478
12783422718
12783430958
12783453358
12783463368
12783471973
12783481251
12783491688
12783499866
12783506336
12783513843
12783519947
12783526539
12783532520
12783540088
12783547230
12783554310
12783562794
12783570057
12783577503
12783584644
12783591785
12783598438
12783605762
12783614307
12783621448
12783628467
12783632373
12783643238
12783650806
12783656299
12783662342
12783671741
12783678760
12783686450
12783693958
12783701465
12783708301
12783714771
12783721973
12783730029
12783737048
12783743884
12783750049
12783757922
12783764392
12783773303
12783780261
12783788318
12783795154
12783802661
12783809741
12783817493
12783824695
12783832873
12783840137
12783849109
12783854541
12783865771
12783872790
12783880542
12783886096
12783894091
12783900256
12783907946
12783915393
12783921313
12783928271
12783936023
12783941577
12783949511
12783957141
12783964038
12783970874
12783978564
12783985461
12783991992
12783999926
12784006213
12784016528
12784023242
12784030566
12784039416
12784047106
12784052966
12784058520
12784067919
12784073473
12784084338
12784089892
12784099108
12784107531
12784113695
12784121813
12784130602
12784136645
12784146898
12784152147
12784161974
12784169726
12784178026
12784183581
12784192614
12784202074
12784208422
12784216723
12784224535
12784230211
12784239366
12784244982
12784252977
12784260485
12784267382
12784274645
12784283190
12784290880
12784297411
12784304796
12784311571
12784316881
12784322313
12784327928
12784333360
12784337084
12784344103
12784348070
12784355821
12784361131
12784368883
12784372850
12784379442
12784385118
12784391283
12784396043
12784400926
12784406847
12784412096
12784417100
12784424242
12784429429
12784435472
12784439866
12784446153
12784450426
12784455003
12784465379
12784469529
12784475999
12784480516
12784486741
12784492112
12784499070
12784505235
12784512803
12784520921
12784527085
12784532701
12784538438
12784544480
12784549913
12784556626
12784563829
12784568772
12784572862
12784580247
12784585374
12784590440
12784594773
12784603929
12784609117
12784613694
12784619187
12784624253
12784628648
12784633714
12784639329
12784644273
12784650803
12784656541
12784661607
12784667222
12784671555
12784677842
12784684129
12784689744
12784695054
12784700730
12784705979
12784711594
12784716660
12784722336
12784728562
12784736680
12784743577
12784751267
12784756028
12784761948
12784765793
12784772995
12784779221
12784785752
12784791306
12784796555
12784802109
12784806015
12784810959
12784817612
12784823777
12784829270
12784834946
12784840134
12784847092
12784853989
12784862534
12784867600
12784872055
12784878891
12784884629
12784891709
12784897019
12784904221
12784910141
12784915878
12784920944
12784927353
12784932846
12784937607
12784943893
12784950363
12784955307
12784960983
12784967453
12784973434
12784979599
12784985947
12784994797
12785001083
12785005844
12785013290
12785019333
12785024338
12785031296
12785037338
12785042282
12785049240
12785056503
12785063156
12785070541
12785078048
12785085373
12785090377
12785097335
12785103927
12785109787
12785114853
12785119247
12785127426
12785132736
12785141525
12785148727
12785154708
12785161300
12785168807
12785175399
12785185592
12785192794
12785198837
12785206283
12785212570
12785220077
12785227401
12785235702
12785244735
12785251205
12785261092
12785267684
12785275619
12785283919
12785291976
12785298324
12785308700
12785318954
12785327071
12785336471
12785346175
12785353927
12785362838
12785372481
12785380721
12785390487
12785399276
12785407393
12785417464
12785425093
12785434859
12785441146
12785449996
12785455855
12785466292
12785472335
12785483016
12785491011
12785497603
12785506636
12785513472
12785519820
12785526228
12785535506
12785541365
12785552901
12785561079
12785569746
12785577864
12785587263
12785595381
12785602095
12785610396
12785619673
12785629683
12785636580
12785645552
12785655012
12785660505
12785670088
12785676375
12785686262
12785694746
12785703352
12785711531
12785718855
12785726912
12785734175
12785742414
12785750715
12785759077
12785767927
12785774702
12785782759
12785791181
12785799726
12785808759
12785816877
12785827314
12785836713
12785845869
12785852399
12785861982
12785871931
12785877180
12785887495
12785893049
12785903547
12785909223
12785917646
12785925031
12785931989
12785939496
12785948346
12785954023
12785962018
12785969831
12785977094
12785984662
12785993268
12785998029
12786007795
12786015302
12786022199
12786029950
12786036786
12786043317
12786052289
12786058881
12786068280
12786075238
12786082257
12786089032
12786097028
12786103620
12786114362
12786120892
12786127118
12786139508
12786147443
12786156171
12786166852
12786173505
12786180890
12786187726
12786195599
12786205426
12786211529
12786220196
12786227704
12786233746
12786241620
12786250287
12786256512
12786266949
12786277203
12786283856
12786292950
12786299664
12786309246
12786315838
12786324566
12786334454
12786340313
12786350506
12786358746
12786365093
12786373577
12786382733
12786390850
12786401104
12786409466
12786418560
12786423687
12786434063
12786439495
12786448101
12786457623
12786465801
12786472942
12786481121
12786487896
12786493938
12786504681
12786510784
12786521099
12786527202
12786537517
12786545635
12786552166
12786560650
12786567058
12786570965
12786577068
12786583172
12786590618
12786596050
12786601726
12786607647
12786614849
12786621685
12786627117
12786632122
12786639873
12786646892
12786654094
12786659893
12786668254
12786673686
12786678996
12786683696
12786689067
12786694133
12786699748
12786704875
12786711650
12786716106
12786722575
12786726848
12786732951
12786738445
12786744304
12786748943
12786754497
12786759074
12786764995
12786771587
12786777751
12786784953
12786789287
12786795634
12786802470
12786806682
12786811992
12786818522
12786824992
12786831096
12786836406
12786842509
12786848185
12786854960
12786860026
12786865275
12786874064
12786879435
12786886821
12786892802
12786898784
12786903239
12786910868
12786914531
12786921061
12786927348
12786934672
12786940531
12786945780
12786951762
12786957621
12786962443
12786970072
12786977397
12786981669
12786989054
12786995829
12787001994
12787006815
12787013773
12787018168
12787023661
12787030009
12787036540
12787043192
12787049723
12787054362
12787061808
12787066691
12787072794
12787078410
12787085245
12787089518
12787096049
12787102457
12787109049
12787114298
12787120157
12787125895
12787133707
12787139872
12787146525
12787152262
12787158793
12787164286
12787170084
12787174723
12787181131
12787186258
12787193522
12787198404
12787202860
12787209269
12787213907
12787219339
12787226847
12787235697
12787240274
12787246317
12787251749
12787258951
12787266275
12787271219
12787277689
12787282816
12787288187
12787295206
12787298990
12787307047
12787311929
12787317423
12787322122
12787328287
12787333536
12787340250
12787345804
12787352029
12787357217
12787362711
12787381143
12787388711
12787393472
12787399393
12787404886
12787409036
12787415811
12787420999
12787430765
12787434793
12787440530
12787446878
12787452615
12787458474
12787465066
12787472390
12787482644
12787492471
12787501321
12787508035
12787518106
12787524148
12787534097
12787542337
12787550210
12787558328
12787566323
12787574441
12787581643
12787588967
12787598916
12787606118
12787614236
12787624001
12787633828
12787642190
12787648843
12787656167
12787664529
12787670876
12787681191
12787687661
12787693642
12787704201
12787712868
12787719460
12787727944
12787735756
12787743935
12787753579
12787760048
12787769326
12787777626
12787784829
12787792031
12787799965
12787809121
12787815346
12787824562
12787832009
12787838539
12787849465
12787855873
12787865090
12787871742
12787882546
12787889198
12787897438
12787905983
12787912331
12787921242
12787929543
12787936195
12787943520
12787953529
12787961525
12787969032
12787976540
12787984718
12787992348
12788002174
12788009071
12788018898
12788031898
12788039772
12788048561
12788055641
12788062965
12788071693
12788080970
12788087379
12788097877
12788104286
12788116188
12788125831
12788133827
12788142127
12788148719
12788157508
12788167335
12788175697
12788182655
12788191078
12788197303
12788205360
12788214454
12788220802
12788233436
12788239722
12788249549
12788255714
12788265479
12788272010
12788281654
12788289954
12788296912
12788305274
12788312476
12788319922
12788328467
12788335181
12788342750
12788351844
12788361487
12788369178
12788377356
12788384131
12788392310
12788398474
12788407508
12788413611
12788419348
12788428931
12788438880
12788444861
12788452674
12788460181
12788467871
12788475745
12788483435
12788492774
12788498023
12788507361
12788515967
12788525610
12788533972
12788543127
12788549536
12788558936
12788565161
12788573340
12788578894
12788586523
12788593786
12788600989
12788609534
12788619665
12788626684
12788633154
12788639197
12788648718
12788655188
12788664770
12788670752
12788680578
12788688391
12788696325
12788704138
12788711645
12788720068
12788727270
12788734228
12788741674
12788751684
12788757421
12788764379
12788774389
12788781408
12788784460
12788797765
12788806921
12788814855
12788823583
12788831640
12788841772
12788853551
12788862463
12788870275
12788877294
12788885107
12788892309
12788898595
12788908056
12788916295
12788922887
12788929418
12788935460
12788940893
12788947118
12788951818
12788956029
12788960973
12788965551
12788972203
12788976476
12788981115
12788986303
12788991857
12788996556
12789001195
12789007848
12789014501
12789020238
12789025975
12789029760
12789035009
12789039464
12789044530
12789049535
12789057775
12789063085
12789070531
12789076085
12789082066
12789087804
12789094457
12789101048
12789107457
12789113500
12789120152
12789124547
12789129796
12789135533
12789140782
12789146947
12789152440
12789158665
12789165013
12789170384
12789177220
12789184605
12789190037
12789195164
12789200902
12789208104
12789213963
12789218968
12789224644
12789230259
12789236851
12789242039
12789246556
12789253392
12789260777
12789266026
12789272313
12789279026
12789283421
12789290623
12789295750
12789303257
12789308750
12789316075
12789321690
12789326878
12789334507
12789342564
12789349705
12789355992
12789363194
12789370274
12789375401
12789383152
12789387730
12789393528
12789399693
12789407688
12789414158
12789420078
12789426853
12789434422
12789440891
12789446140
12789453770
12789458836
12789464329
12789469212
12789476414
12789480564
12789486668
12789490085
12789495823
12789499180
12789505710
12789511265
12789518406
12789521946
12789525974
12789532383
12789536899
12789541477
12789545871
12789555454
12789562107
12789567051
12789574131
12789580051
12789585849
12789591343
12789599094
12789603061
12789610324
12789616672
12789621555
12789628330
12789636508
12789643405
12789650669
12789655185
12789660617
12789667453
12789673007
12789678317
12789684177
12789689121
12789693393
12789699558
12789703830
12789707736
12789713596
12789717136
12789725314
12789730319
12789736789
12789746249
12789752902
12789762729
12789769199
12789773898
12789787265
12789793979
12789800509
12789808993
12789815463
12789823642
12789830295
12789834994
12789848300
12789856173
12789862704
12789871859
12789878390
12789885104
12789893771
12789903231
12789910250
12789920016
12789926608
12789934664
12789941073
12789948458
12789957858
12789965304
12789972506
12789981539
12789988131
12789996127
12790002718
12790013155
12790022738
12790035433
12790042513
12790052706
12790062655
12790072787
12790081576
12790090304
12790100252
12790108065
12790116121
12790125277
12790132479
12790141390
12790148226
12790157259
12790165499
12790172884
12790181002
12790187532
12790194796
12790203218
12790210176
12790216280
12790225313
12790234529
12790241670
12790250093
12790257479
12790264314
12790273103
12790279634
12790287996
12790298555
12790306368
12790313142
12790320406
12790327058
12790335176
12790343599
12790352266
12790359102
12790373811
12790382722
12790390108
12790400117
12790408479
12790417756
12790425203
12790431245
12790438875
12790446992
12790454377
12790461580
12790469270
12790478547
12790486299
12790494233
12790501741
12790508210
12790515901
12790523896
12790531526
12790541169
12790548615
12790555818
12790563569
12790572968
12790582246
12790588471
12790597321
12790606721
12790611848
12790621674
12790629121
12790635407
12790645112
12790651093
12790659516
12790668549
12790676606
12790682465
12790691376
12790697358
12790707184
12790713227
12790721406
12790731659
12790739838
12790745697
12790754059
12790762665
12790770539
12790776581
12790785492
12790794587
12790801178
12790810456
12790818756
12790825775
12790835541
12790845795
12790856110
12790864960
12790873383
12790884857
12790893707
12790902557
12790910736
12790922028
12790930389
12790937897
12790945282
12790953583
12790960907
12790967438
12790975128
12790984344
12790992279
12791001129
12791007232
12791016632
12791024688
12791032440
12791040924
12791050811
12791058685
12791066131
12791074554
12791082672
12791091095
12791097992
12791105865
12791112762
12791119842
12791125152
12791130401
12791134368
12791139129
12791146942
12791155975
12791161041
12791166168
12791169952
12791174835
12791181426
12791185394
12791191619
12791195525
12791201263
12791208221
12791212615
12791218047
12791223541
12791228118
12791234283
12791237945
12791244476
12791250518
12791256194
12791260223
12791265655
12791270843
12791276702
12791281524
12791288543
12791292815
12791299590
12791303618
12791308684
12791313933
12791319549
12791325042
12791331511
12791337310
12791342254
12791348235
12791353911
12791357451
12791364348
12791370269
12791376372
12791381011
12791386382
12791391082
12791396758
12791402678
12791407805
12791412444
12791419036
12791423918
12791430876
12791435393
12791441802
12791448638
12791453032
12791460173
12791467375
12791473540
12791481169
12791486845
12791495024
12791499846
12791507903
12791513274
12791519926
12791526701
12791532866
12791538786
12791543303
12791547453
12791554045
12791557890
12791564482
12791571318
12791576140
12791583098
12791587492
12791591398
12791597685
12791601713
12791615629
12791622099
12791627287
12791632963
12791638517
12791644499
12791650969
12791656096
12791663847
12791669035
12791673735
12791681242
12791687101
12791692533
12791697599
12791704191
12791710112
12791717375
12791723722
12791731291
12791736173
12791743131
12791750334
12791756925
12791762541
12791767362
12791773649
12791779875
12791785185
12791790067
12791794157
12791803312
12791808195
12791814664
12791819364
12791823942
12791830534
12791835355
12791839140
12791847929
12791854520
12791859281
12791863309
12791869413
12791874906
12791880643
12791886014
12791892911
12791897916
12791905179
12791909940
12791915372
12791920987
12791926175
12791931424
12791937894
12791944974
12791950345
12791955106
12791963163
12791969693
12791977323
12791983487
12791991849
12792001310
12792008023
12792014310
12792023160
12792030179
12792037137
12792043546
12792054044
12792063626
12792072904
12792079984
12792090421
12792099942
12792109036
12792117093
12792124295
12792138150
12792146451
12792156399
12792163296
12792173245
12792179593
12792189236
12792197659
12792206509
12792212674
12792222439
12792228421
12792238308
12792244595
12792252652
12792260403
12792268582
12792276455
12792284634
12792291165
12792300442
12792309780
12792316311
12792323696
12792329739
12792335232
12792345730
12792353237
12792360562
12792369351
12792377041
12792385708
12792393642
12792403286
12792411587
12792419582
12792430080
12792440884
12792451137
12792458156
12792469692
12792478908
12792488674
12792496242
12792502834
12792512722
12792519253
12792526943
12792533230
12792543422
12792549770
12792558986
12792566372
12792572231
12792578762
12792584621
12792591945
12792600673
12792608913
12792616603
12792624904
12792632106
12792640163
12792645839
12792654628
12792662563
12792671047
12792678432
12792687160
12792694118
12792701381
12792708034
12792714809
12792723293
12792732143
12792740871
12792748012
12792754481
12792762355
12792768825
12792776454
12792786586
12792793666
12792800563
12792807765
12792816188
12792825648
12792832240
12792842555
12792850428
12792860499
12792868434
12792876918
12792885279
12792893580
12792902613
12792908656
12792918421
12792924342
12792933253
12792939478
12792949915
12792956019
12792966456
12792974024
12792979823
12792985316
12792994532
12793003138
12793012049
12793021876
12793028590
12793035975
12793042933
12793052882
12793058192
12793067774
12793076014
12793085047
12793092615
12793100611
12793107935
12793113733
12793120508
12793128077
12793134852
12793146814
12793156275
12793166407
12793174402
12793184351
12793192591
12793201197
12793208032
12793215845
12793225733
12793232996
12793238672
12793249475
12793257593
12793265161
12793272669
12793280725
12793287012
12793295129
12793303796
12793310754
12793320093
12793326929
12793331689
12793338769
12793346277
12793351831
12793356531
12793362939
12793367334
12793374841
12793380578
12793387414
12793393701
12793401697
12793406396
12793413171
12793418603
12793424402
12793429345
12793434533
12793439904
12793445337
12793449914
12793456567
12793462548
12793470056
12793474633
12793480798
12793486413
12793492639
12793497460
12793505822
12793511376
12793517480
12793522607
12793529443
12793535790
12793541284
12793547936
12793554589
12793562951
12793570397
12793576806
12793581750
12793587121
12793592126
12793599084
12793605248
12793611962
12793616540
12793621911
12793626488
12793631737
12793637292
12793643700
12793649743
12793655236
12793659875
12793665124
12793669945
12793675194
12793680077
12793685326
12793690270
12793697533
12793702111
12793707604
12793712792
12793718102
12793723168
12793729271
12793735558
12793740746
12793746544
12793752037
12793757653
12793762658
12793768883
12793775841
12793781884
12793787438
12793792992
12793799340
12793805077
12793809838
12793816307
12793821739
12793829430
12793835106
12793839134
12793844505
12793850548
12793856346
12793860863
12793867943
12793872215
12793880638
12793885399
12793891869
12793897240
12793903709
12793909752
12793914818
12793919884
12793928062
12793933189
12793939293
12793944237
12793950951
12793954918
12793961693
12793966637
12793972374
12793979393
12793984093
12793988609
12793995445
12793999840
12794006798
12794011802
12794017112
12794023582
12794029442
12794035240
12794040672
12794045738
12794051597
12794057335
12794062889
12794067833
12794075462
12794080162
12794086265
12794090415
12794098045
12794103111
12794108665
12794115440
12794121849
12794129295
12794134727
12794143516
12794148338
12794155113
12794160056
12794168723
12794174156
12794178672
12794186973
12794195579
12794203452
12794209129
12794217857
12794224876
12794232993
12794241355
12794247336
12794256003
12794265281
12794274253
12794283591
12794291831
12794299643
12794307212
12794314963
12794323508
12794329184
12794340659
12794348044
12794354514
12794362204
12794369284
12794378379
12794385581
12794397849
12794403342
12794411582
12794420676
12794430197
12794436606
12794445029
12794453574
12794462912
12794470603
12794477011
12794485800
12794492575
12794501791
12794509299
12794519492
12794527487
12794534567
12794541769
12794549094
12794557455
12794566794
12794575949
12794582358
12794591147
12794597738
12794604635
12794612204
12794619040
12794625082
12794633505
12794646688
12794654135
12794661825
12794670797
12794676840
12794687887
12794696554
12794704550
12794714132
12794721334
12794728475
12794734884
12794743490
12794750875
12794760519
12794769369
12794778585
12794785116
12794793600
12794801595
12794806173
12794816610
12794823507
12794832967
12794841634
12794849752
12794858480
12794865987
12794880636
12794887288
12794895223
12794905721
12794913167
12794922323
12794931844
12794940755
12794948262
12794956624
12794964864
12794975606
12794984395
12794992452
12795001180
12795009419
12795017171
12795026875
12795033772
12795040364
12795046651
12795057759
12795066792
12795074849
12795082112
12795091023
12795098225
12795105794
12795111897
12795120442
12795127034
12795136067
12795142476
12795148152
12795158528
12795166829
12795174702
12795183064
12795190510
12795200093
12795210774
12795216267
12795227192
12795234700
12795240437
12795245991
12795255940
12795261677
12795271687
12795280049
12795289570
12795295246
12795304280
12795309590
12795318867
12795324543
12795333393
12795340840
12795347309
12795354572
12795361408
12795369099
12795378315
12795382954
12795391743
12795398335
12795408161
12795416340
12795423908
12795431477
12795439838
12795446918
12795455463
12795462971
12795469196
12795480243
12795489033
12795506672
12795515033
12795523517
12795533649
12795541767
12795547321
12795558857
12795566669
12795575153
12795579914
12795583515
12795590839
12795597858
12795602191
12795608478
12795612934
12795618610
12795625141
12795631427
12795638934
12795643695
12795651080
12795657306
12795663471
12795669635
12795674945
12795680743
12795686664
12795691974
12795697284
12795702777
12795708514
12795714496
12795719501
12795724506
12795730548
12795735370
12795741778
12795746600
12795752582
12795757342
12795764483
12795768878
12795775348
12795780902
12795788409
12795793292
12795798785
12795803973
12795809405
12795815326
12795821124
12795826068
12795831134
12795837359
12795842364
12795848101
12795854632
12795859637
12795866168
12795871966
12795877154
12795882769
12795889117
12795894000
12795902301
12795906817
12795913348
12795919207
12795925250
12795930804
12795936236
12795942034
12795946429
12795951251
12795957049
12795962542
12795969805
12795975115
12795980181
12795986468
12795992266
12795997271
12796003497
12796007952
12796013323
12796019488
12796025408
12796031451
12796037066
12796041521
12796046892
12796052508
12796057940
12796064226
12796070330
12796076128
12796081621
12796087114
12796091997
12796097674
12796104204
12796110918
12796115984
12796122027
12796126665
12796134111
12796138628
12796144243
12796150469
12796154680
12796161333
12796166094
12796173174
12796178545
12796183062
12796188616
12796194353
12796199358
12796207048
12796211809
12796217241
12796222429
12796229143
12796234209
12796240495
12796247270
12796254900
12796260576
12796267290
12796273027
12796279192
12796283464
12796289262
12796294695
12796303423
12796307695
12796313432
12796319597
12796323991
12796329729
12796334672
12796339128
12796346574
12796350786
12796356401
12796362260
12796366167
12796372209
12796377580
12796384111
12796390275
12796394975
12796400468
12796406938
12796411821
12796417985
12796423356
12796428422
12796434159
12796440019
12796447221
12796455949
12796462968
12796470719
12796480363
12796486711
12796496415
12796501908
12796514787
12796523759
12796530900
12796539628
12796546647
12796554459
12796560929
12796571183
12796578324
12796587174
12796593766
12796601334
12796611039
12796617081
12796628129
12796636918
12796643143
12796651688
12796660599
12796668534
12796674820
12796682694
12796691849
12796700028
12796708329
12796716324
12796722733
12796730240
12796738785
12796748001
12796755570
12796762162
12796771317
12796777603
12796786454
12796796036
12796801895
12796811905
12796819840
12796827774
12796836136
12796844986
12796853043
12796859573
12796868240
12796878067
12796883316
12796893326
12796902237
12796910477
12796917984
12796926529
12796933609
12796942276
12796949478
12796957352
12796964371
12796975174
12796985122
12796992996
12797000625
12797006241
12797018997
12797028030
12797034439
12797040847
12797052444
12797061233
12797071548
12797076736
12797087295
12797093032
12797103164
12797109573
12797119522
12797125625
12797134109
12797142410
12797150466
12797157851
12797166763
12797173904
12797182937
12797191238
12797200820
12797208266
12797217727
12797224929
12797230117
12797238479
12797249709
12797256423
12797265151
12797273452
12797282180
12797289016
12797297011
12797305434
12797313491
12797321181
12797329482
12797338149
12797346755
12797355422
12797364150
12797370864
12797380263
12797387587
12797394789
12797403578
12797409865
12797420241
12797426589
12797435805
12797442946
12797453566
12797460463
12797466383
12797476820
12797482863
12797493056
12797501356
12797508253
12797517165
12797526808
12797535902
12797543226
12797551710
12797560744
12797568800
12797575514
12797583143
12797592238
12797599379
12797607863
12797617079
12797624830
12797631666
12797640882
12797647413
12797655287
12797665419
12797674757
12797681471
12797690077
12797697340
12797705396
12797714491
12797719435
12797731580
12797739637
12797747572
12797755872
12797763441
12797770765
12797779310
12797786573
12797797193
12797805067
12797812940
12797821973
12797828565
12797835279
12797845289
12797854444
12797861036
12797871473
12797880750
12797889600
12797899549
12797909742
12797917920
12797924451
12797935437
12797941175
12797947461
12797952344
12797958448
12797963147
12797969678
12797974073
12797979810
12797986219
12797990430
12797996655
12798002515
12798008862
12798013501
12798019299
12798024854
12798031201
12798037122
12798042676
12798047803
12798052869
12798059155
12798065198
12798070020
12798076428
12798080945
12798087170
12798093030
12798097424
12798103833
12798108105
12798115063
12798121655
12798128003
12798134045
12798140393
12798146313
12798151318
12798156262
12798162366
12798168957
12798175427
12798181653
12798187878
12798192273
12798203686
12798211804
12798221936
12798230542
12798239087
12798247265
12798256115
12798266247
12798276318
12798287426
12798295056
12798304211
12798312267
12798320507
12798328808
12798337048
12798344982
12798355358
12798361889
12798369396
12798376232
12798384411
12798391674
12798400280
12798407665
12798414745
12798422863
12798429516
12798438305
12798445690
12798453625
12798461132
12798469494
12798477489
12798485363
12798493297
12798501232
12798509227
12798514599
12798524425
12798531932
12798542125
12798547863
12798560192
12798569774
12798575695
12798585338
12798593761
12798606273
12798614757
12798622447
12798629344
12798639049
12798644969
12798654430
12798661449
12798669444
12798678539
12798686107
12798693126
12798701182
12798708079
12798719127
12798726512
12798733836
12798741344
12798749766
12798756846
12798766002
12798773448
12798783824
12798789256
12798800120
12798807505
12798814769
12798821971
12798831919
12798839305
12798848033
12798855357
12798864939
12798873240
12798882579
12798892283
12798902049
12798908457
12798920298
12798927378
12798935801
12798945506
12798952158
12798961497
12798967234
12798977244
12798983897
12798993601
12799002512
12799014414
12799025584
12799033518
12799043467
12799053415
12799063181
12799073618
12799083445
12799092173
12799102060
12799112925
12799122568
12799132029
12799140818
12799150766
12799160593
12799168833
12799178903
12799189707
12799198801
12799209116
12799216745
12799227243
12799236459
12799244089
12799255075
12799266550
12799275949
12799284921
12799295602
12799304636
12799314401
12799324960
12799332834
12799344552
12799352121
12799365426
12799373666
12799387216
12799396493
12799409494
12799422311
12799431466
12799440805
12799452523
12799462289
12799472421
12799478036
12799490914
12799501351
12799509103
12799519418
12799530404
12799538705
12799549996
12799559518
12799569527
12799579110
12799586922
12799597237
12799608163
12799615365
12799622384
12799630013
12799636361
12799641976
12799649361
12799656258
12799660897
12799667916
12799675484
12799682259
12799687996
12799694710
12799700448
12799707039
12799711434
12799722298
12799730782
12799735909
12799742745
12799750374
12799757393
12799764412
12799771797
12799777535
12799783821
12799790108
12799794869
12799802925
12799808602
12799815926
12799822090
12799828194
12799833992
12799840523
12799846870
12799853645
12799861336
12799867561
12799876839
12799883736
12799889717
12799898384
12799904182
12799913093
12799920845
12799927864
12799935615
12799942268
12799947883
12799954536
12799962288
12799968818
12799976570
12799986213
12799991768
12800000007
12800007942
12800015083
12800020332
12800028144
12800036995
12800044990
12800050972
12800057930
12800063850
12800071479
12800079902
12800085639
12800095771
12800103706
12800110847
12800118720
12800125739
12800133491
12800141242
12800150764
12800156684
12800164497
12800171821
12800180000
12800186896
12800192451
12800202460
12800207770
12800217109
12800223090
12800229682
12800237189
12800243354
12800250861
12800259162
12800265143
12800273932
12800280890
12800288642
12800295600
12800301642
12800307746
12800318732
12800324225
12800331916
12800338752
12800346259
12800353156
12800361212
12800368598
12800375006
12800384284
12800389777
12800398871
12800405585
12800415412
12800421210
12800430731
12800437079
12800443976
12800449469
12800455145
12800460211
12800464606
12800469672
12800475409
12800480780
12800485663
12800490973
12800496893
12800502386
12800507391
12800512945
12800519598
12800525885
12800530768
12800536627
12800543951
12800546942
12800553595
12800557440
12800564947
12800571112
12800577459
12800581244
12800588385
12800592047
12800599737
12800605413
12800610724
12800616400
12800622869
12800627020
12800634039
12800637823
12800644232
12800649725
12800655950
12800661016
12800667303
12800672064
12800679510
12800684027
12800689947
12800696356
12800702459
12800710027
12800716924
12800721014
12800727728
12800732366
12800737371
12800747015
12800755132
12800764715
12800769170
12800776372
12800785101
12800792425
12800797491
12800802923
12800809759
12800815374
12800820684
12800825872
12800833013
12800837591
12800843755
12800849187
12800855840
12800861455
12800867376
12800873113
12800879155
12800884893
12800889470
12800894841
12800899785
12800907048
12800911748
12800916753
12800922124
12800926458
12800932500
12800937200
12800941777
12800949712
12800955266
12800959783
12800965398
12800969426
12800976201
12800980718
12800986211
12800993901
12801000493
12801005315
12801011540
12801017400
12801020696
12801025762
12801030949
12801037175
12801043034
12801047124
12801052312
12801058720
12801062627
12801070012
12801074223
12801079900
12801086308
12801091862
12801097905
12801104130
12801109868
12801114445
12801119877
12801127324
12801134038
12801138676
12801145268
12801149968
12801154118
12801161076
12801165471
12801174931
12801180058
12801184575
12801190556
12801195012
12801199162
12801207463
12801211857
12801219670
12801226689
12801231205
12801237004
12801242985
12801247746
12801254521
12801258915
12801267948
12801273869
12801278446
12801287052
12801292729
12801298222
12801308842
12801313664
12801324711
12801334782
12801341435
12801348942
12801357426
12801364384
12801373905
12801381351
12801391605
12801398929
12801405216
12801413456
12801419987
12801428531
12801435184
12801443241
12801451908
12801460880
12801468204
12801475101
12801481754
12801489628
12801496280
12801504520
12801513858
12801520633
12801527286
12801535831
12801542057
12801550724
12801558048
12801564640
12801574161
12801582218
12801589359
12801596561
12801603885
12801610782
12801618228
12801628421
12801636234
12801643985
12801651736
12801660648
12801671024
12801681094
12801688480
12801697452
12801704837
12801713260
12801720889
12801726871
12801734134
12801742984
12801750186
12801757998
12801766238
12801773257
12801780764
12801787783
12801795230
12801804080
12801811160
12801819583
12801827334
12801835086
12801842532
12801850344
12801857608
12801865481
12801870730
12801880679
12801886782
12801896792
12801902468
12801910342
12801917422
12801925051
12801932436
12801942751
12801949892
12801955813
12801965212
12801970827
12801978213
12801985964
12801994814
12802000979
12802009646
12802017885
12802025088
12802030703
12802038515
12802046877
12802051699
12802062929
12802070070
12802078188
12802085512
12802092348
12802101381
12802107424
12802116091
12802125551
12802134279
12802141542
12802149355
12802158693
12802166567
12802173891
12802183168
12802190309
12802199526
12802206911
12802214967
12802221742
12802232118
12802239259
12802248903
12802255800
12802263551
