12356201827
12356214217
12356223433
12356230758
12356238814
12356246383
12356254317
12356261824
12356270980
12356280379
12356288497
12356298934
12356306563
12356315596
12356323165
12356331404
12356340193
12356347334
12356355391
12356361739
12356368880
12356377852
12356384932
12356393233
12356401717
12356408308
12356413924
12356424055
12356431441
12356438704
12356447554
12356453291
12356460554
12356465803
12356476118
12356482344
12356491316
12356499006
12356506636
12356511641
12356519148
12356526472
12356534102
12356540510
12356548811
12356556623
12356563032
12356571028
12356576155
12356585005
12356590559
12356595808
12356602400
12356607954
12356613203
12356620466
12356626814
12356633161
12356639936
12356651228
12356657758
12356662458
12356671247
12356676740
12356683942
12356690473
12356698408
12356705183
12356711225
12356717939
12356722272
12356730451
12356737958
12356743818
12356749128
12356754865
12356762067
12356766462
12356774152
12356780988
12356787641
12356794721
12356800031
12356805768
12356811200
12356818464
12356824018
12356830426
12356835492
12356841596
12356847455
12356853315
12356859845
12356871198
12356881757
12356890546
12356896344
12356903546
12356908551
12356915326
12356922467
12356927106
12356934918
12356939862
12356946332
12356951642
12356958539
12356965741
12356970441
12356977033
12356980939
12356989179
12356995587
12357002850
12357010052
12357016583
12357024030
12357033734
12357041241
12357048260
12357055035
12357062848
12357069317
12357077252
12357082440
12357089520
12357096539
12357104474
12357110333
12357117352
12357123700
12357130108
12357136029
12357143292
12357150311
12357157269
12357164837
12357170086
12357178143
12357186871
12357193646
12357202557
12357209942
12357219036
12357226177
12357235333
12357241680
12357250286
12357257122
12357266766
12357273907
12357279522
12357283428
12357293011
12357297222
12357305584
12357311871
12357320538
12357326214
12357334637
12357339641
12357350567
12357358562
12357364422
12357373150
12357378887
12357387005
12357392193
12357401043
12357405315
12357415569
12357423748
12357430401
12357435222
12357443462
12357451702
12357457500
12357466350
12357473369
12357479839
12357488018
12357494243
12357501567
12357507915
12357515361
12357522441
12357528240
12357535259
12357541728
12357551311
12357558635
12357565776
12357573039
12357581584
12357587322
12357596782
12357603130
12357611858
12357619731
12357625590
12357632304
12357640544
12357647563
12357656718
12357664104
12357672343
12357679545
12357686931
12357693889
12357702678
12357709147
12357717997
12357725871
12357733073
12357741374
12357747905
12357755290
12357761027
12357767924
12357776713
12357783610
12357791423
12357798503
12357805827
12357812480
12357818766
12357827860
12357835063
12357842326
12357850321
12357855509
12357861857
12357867411
12357873332
12357880106
12357886210
12357890849
12357896647
12357899760
12357906168
12357914347
12357922526
12357927470
12357932963
12357939432
12357945536
12357950663
12357955240
12357960184
12357968119
12357971598
12357977396
12357980997
12357987772
12357993326
12357998026
12358002298
12358010965
12358017008
12358028055
12358036844
12358042154
12358050089
12358055399
12358060953
12358066751
12358071939
12358078348
12358084391
12358087320
12358094950
12358099466
12358106729
12358110391
12358118326
12358122904
12358129495
12358134317
12358140726
12358146646
12358151895
12358158426
12358164163
12358168680
12358173990
12358179056
12358183939
12358189005
12358193765
12358198282
12358204080
12358209634
12358215128
12358220865
12358226297
12358230325
12358234415
12358241128
12358246988
12358252237
12358257059
12358263833
12358269449
12358273538
12358279764
12358284891
12358290811
12358297525
12358301980
12358308755
12358312478
12358318948
12358323892
12358329019
12358336526
12358341897
12358348245
12358353067
12358358316
12358364053
12358368142
12358375466
12358382485
12358387612
12358391885
12358398660
12358402810
12358409158
12358413796
12358420327
12358425271
12358431436
12358436929
12358442239
12358446816
12358452371
12358457864
12358462136
12358470010
12358477517
12358482095
12358486672
12358492593
12358497842
12358503213
12358509621
12358515603
12358521828
12358525979
12358533303
12358539345
12358543984
12358548257
12358555092
12358559121
12358568398
12358572243
12358579201
12358584145
12358592080
12358599465
12358606240
12358613137
12358619057
12358624001
12358627907
12358633583
12358637490
12358643288
12358649514
12358654274
12358658913
12358665505
12358670449
12358677040
12358682717
12358693459
12358700844
12358707741
12358714699
12358722450
12358728310
12358734780
12358740029
12358748390
12358755776
12358763954
12358767922
12358777382
12358783485
12358792763
12358798927
12358806862
12358814430
12358824501
12358830299
12358838295
12358844704
12358852821
12358860329
12358867287
12358873817
12358882301
12358890724
12358895607
12358904579
12358910988
12358919288
12358924965
12358934669
12358943458
12358949989
12358956825
12358965309
12358971534
12358978797
12358987403
12358994117
12359002052
12359009132
12359015479
12359025245
12359029212
12359039222
12359045631
12359054115
12359063697
12359071204
12359077430
12359086585
12359092811
12359101356
12359110389
12359118751
12359126136
12359135413
12359144324
12359152686
12359158973
12359167579
12359175513
12359181495
12359188514
12359195716
12359204749
12359211585
12359218909
12359226172
12359235144
12359239051
12359249305
12359255835
12359263892
12359269873
12359278784
12359284522
12359293677
12359299842
12359307898
12359317664
12359328223
12359335547
12359342993
12359350867
12359356604
12359364295
12359371436
12359380713
12359387671
12359396155
12359404150
12359409949
12359415930
12359424536
12359432104
12359440649
12359448584
12359457068
12359463476
12359471228
12359476843
12359486242
12359492834
12359499853
12359509802
12359519079
12359525122
12359532080
12359539038
12359548498
12359552710
12359563696
12359572546
12359579687
12359585363
12359595373
12359601660
12359608801
12359614538
12359624182
12359631567
12359639745
12359645727
12359654577
12359662206
12359670080
12359677831
12359684057
12359693517
12359701086
12359709020
12359715856
12359722082
12359728857
12359737462
12359743749
12359750585
12359758275
12359767370
12359775182
12359782445
12359790380
12359797094
12359805211
12359813268
12359821752
12359828893
12359832799
12359845067
12359848912
12359858129
12359863927
12359873876
12359880895
12359888768
12359894933
12359903600
12359911168
12359918309
12359924291
12359931615
12359940709
12359948766
12359956822
12359964146
12359972752
12359979405
12359987401
12359995763
12360001988
12360010167
12360018040
12360025243
12360030919
12360037755
12360046727
12360053502
12360058873
12360066563
12360073460
12360079747
12360084935
12360090184
12360097630
12360103489
12360111363
12360117772
12360122410
12360127415
12360133824
12360138951
12360144322
12360149327
12360155674
12360161961
12360165989
12360172215
12360178440
12360181919
12360187718
12360193272
12360198521
12360204807
12360210972
12360215916
12360222569
12360229710
12360235020
12360240757
12360247715
12360252171
12360255833
12360261936
12360266758
12360272007
12360275730
12360282322
12360287815
12360293430
12360298130
12360303501
12360307041
12360312656
12360317783
12360322910
12360328098
12360335850
12360343540
12360348057
12360354343
12360359775
12360367283
12360370456
12360377537
12360382480
12360386692
12360391575
12360397617
12360403110
12360408786
12360415378
12360421116
12360426731
12360431858
12360436802
12360442722
12360448337
12360453037
12360459629
12360465305
12360470066
12360475559
12360480319
12360485507
12360491001
12360496677
12360502902
12360507053
12360512363
12360517429
12360522495
12360526279
12360531955
12360536350
12360543796
12360546542
12360555026
12360560581
12360565280
12360569431
12360576572
12360582004
12360589999
12360594394
12360599338
12360605014
12360609470
12360613803
12360620151
12360625644
12360632663
12360638705
12360645358
12360651217
12360657443
12360662570
12360669284
12360675998
12360678744
12360686557
12360688937
12360696872
12360699313
12360706271
12360713046
12360719149
12360723666
12360728122
12360733371
12360738742
12360745394
12360749606
12360755282
12360762301
12360767977
12360772067
12360777621
12360782748
12360787997
12360792208
12360798739
12360802645
12360809176
12360813265
12360819247
12360823092
12360828402
12360832369
12360840121
12360846835
12360855502
12360861117
12360869235
12360878329
12360884432
12360892794
12360898959
12360906405
12360912630
12360920931
12360926852
12360935152
12360941134
12360948153
12360955843
12360962191
12360970064
12360975008
12360984041
12360991732
12361000826
12361007845
12361013948
12361022188
12361031160
12361039400
12361045809
12361054415
12361061739
12361068453
12361075777
12361082613
12361089815
12361096407
12361103182
12361110994
12361118379
12361128206
12361136385
12361143160
12361150789
12361157930
12361163606
12361173921
12361179353
12361187715
12361195161
12361201265
12361209566
12361215913
12361224702
12361232576
12361240266
12361248567
12361255952
12361261873
12361272920
12361282197
12361288789
12361297822
12361305452
12361313508
12361321077
12361329133
12361334016
12361344148
12361347993
12361358003
12361365510
12361376069
12361382051
12361389558
12361398713
12361406831
12361417268
12361424958
12361431916
12361440766
12361447968
12361454194
12361462434
12361469209
12361474763
12361484589
12361491486
12361499543
12361505830
12361512482
12361520234
12361526826
12361533356
12361541291
12361545014
12361553925
12361559235
12361567841
12361575409
12361583527
12361589386
12361595673
12361602936
12361608979
12361614228
12361623627
12361631562
12361638764
12361644501
12361653290
12361661896
12361668610
12361675080
12361682709
12361689850
12361699066
12361706757
12361714203
12361719940
12361728302
12361734345
12361741669
12361750275
12361758514
12361764618
12361772858
12361780487
12361785675
12361794281
12361801788
12361808563
12361816803
12361826202
12361832123
12361840545
12361844513
12361854767
12361858490
12361870758
12361874786
12361884796
12361890655
12361900238
12361906341
12361914581
12361922454
12361927948
12361936676
12361945221
12361951507
12361959686
12361968109
12361977020
12361983245
12361991180
12361999664
12362007476
12362014190
12362024078
12362033721
12362041045
12362048431
12362057647
12362067718
12362075042
12362082732
12362089446
12362098174
12362107146
12362115325
12362121734
12362131255
12362139434
12362148467
12362155974
12362160674
12362168487
12362173919
12362178557
12362184234
12362190642
12362195952
12362201445
12362206450
12362213408
12362218047
12362225371
12362231231
12362235686
12362240752
12362245391
12362250823
12362256255
12362262480
12362267119
12362272490
12362277190
12362283354
12362288298
12362293608
12362299895
12362303130
12362311369
12362314421
12362320220
12362325346
12362331633
12362336455
12362342741
12362348784
12362355376
12362361479
12362367827
12362373930
12362380888
12362385893
12362393339
12362398283
12362405363
12362410063
12362415800
12362421904
12362426543
12362433378
12362437834
12362444182
12362448942
12362456572
12362462675
12362469572
12362475187
12362482512
12362489409
12362494719
12362501921
12362506010
12362511808
12362517912
12362524199
12362528715
12362533842
12362539030
12362543974
12362548002
12362555082
12362558256
12362566008
12362568937
12362576139
12362579435
12362585417
12362592314
12362598600
12362605497
12362612211
12362615507
12362623991
12362629240
12362635771
12362641081
12362646757
12362652982
12362659208
12362664335
12362668851
12362675565
12362680631
12362687772
12362695585
12362700773
12362707120
12362711881
12362717679
12362723295
12362730192
12362735929
12362740079
12362745389
12362751737
12362757230
12362762479
12362765470
12362773465
12362780301
12362787626
12362794584
12362800687
12362809598
12362818692
12362828031
12362836332
12362845914
12362854764
12362860562
12362873685
12362881619
12362890042
12362897733
12362902677
12362910611
12362918668
12362926663
12362935941
12362944241
12362951444
12362957791
12362965848
12362972989
12362981046
12362989346
12362998440
12363007718
12363015896
12363024991
12363031827
12363044095
12363048733
12363061612
12363070218
12363080410
12363089932
12363097012
12363105313
12363115567
12363125821
12363134976
12363143338
12363152127
12363162258
12363169277
12363179592
12363186733
12363197903
12363205044
12363217556
12363226956
12363237393
12363245144
12363255581
12363265713
12363275906
12363286404
12363294033
12363308864
12363320034
12363331447
12363338589
12363348842
12363360317
12363367763
12363378689
12363387783
12363396389
12363403286
12363415554
12363425563
12363433315
12363442653
12363452724
12363459438
12363470180
12363481960
12363492214
12363501552
12363511440
12363521205
12363528163
12363537746
12363544704
12363556728
12363565089
12363574245
12363581325
12363594325
12363602260
12363612453
12363620448
12363631923
12363639979
12363648158
12363655360
12363662867
12363670985
12363676417
12363685756
12363695460
12363703456
12363712367
12363723780
12363736354
12363744776
12363753932
12363762660
12363773036
12363779994
12363793238
12363802271
12363809962
12363820582
12363830592
12363839625
12363848048
12363857630
12363866663
12363877039
12363884180
12363899866
12363909876
12363919520
12363928553
12363937647
12363946070
12363955591
12363966456
12363973414
12363985926
12363994288
12364004663
12364009302
12364022730
12364031580
12364042200
12364052149
12364061731
12364069422
12364079614
12364086817
12364097437
12364108362
12364117700
12364125086
12364134119
12364145166
12364154626
12364163721
12364173669
12364182092
12364193384
12364203699
12364212671
12364220483
12364229211
12364239465
12364249780
12364258691
12364267968
12364276941
12364285424
12364294580
12364304651
12364310327
12364320581
12364328881
12364336816
12364344628
12364350976
12364357751
12364363183
12364372644
12364379052
12364385827
12364392785
12364398828
12364406823
12364412255
12364419274
12364427270
12364433312
12364439294
12364446984
12364452416
12364458276
12364465173
12364472192
12364478478
12364485863
12364490685
12364498498
12364506249
12364514611
12364521752
12364526940
12364534447
12364542321
12364549096
12364554711
12364564477
12364568871
12364574852
12364580590
12364584557
12364589196
12364592919
12364599572
12364604821
12364609337
12364615624
12364621483
12364625756
12364631127
12364635155
12364641381
12364647972
12364651940
12364656578
12364662560
12364666771
12364671410
12364676293
12364682945
12364687096
12364693382
12364698265
12364702721
12364707848
12364713646
12364720238
12364727257
12364733116
12364737938
12364742088
12364751183
12364756187
12364763573
12364767845
12364775413
12364781395
12364788902
12364793297
12364800621
12364803734
12364812950
12364818992
12364822960
12364828087
12364832603
12364836876
12364842064
12364846885
12364852440
12364858848
12364863426
12364868187
12364872947
12364877342
12364882957
12364887779
12364894188
12364900962
12364904747
12364910789
12364914451
12364920005
12364923912
12364930320
12364936241
12364943443
12364947776
12364954124
12364956626
12364963706
12364967674
12364972923
12364977134
12364983177
12364987327
12364993858
12364997764
12365004173
12365009239
12365015403
12365020713
12365027122
12365031272
12365037742
12365042258
12365048423
12365053123
12365059348
12365063743
12365069724
12365073936
12365079978
12365085410
12365091331
12365096152
12365101218
12365108787
12365117087
12365122520
12365130210
12365134055
12365140281
12365144553
12365151267
12365156577
12365162742
12365166587
12365173362
12365177390
12365182517
12365187766
12365192588
12365199179
12365204306
12365208335
12365213645
12365218711
12365224143
12365228476
12365234763
12365240378
12365245810
12365251609
12365257102
12365262778
12365268088
12365272360
12365276816
12365283225
12365289145
12365295004
12365298728
12365305563
12365310019
12365316489
12365321738
12365328268
12365335959
12365341635
12365349448
12365358481
12365362326
12365372092
12365377646
12365388449
12365392294
12365402243
12365405966
12365417319
12365424704
12365431479
12365436972
12365447165
12365451620
12365463705
12365467978
12365478720
12365484823
12365495077
12365502584
12365508993
12365517477
12365523825
12365529440
12365539022
12365546835
12365554281
12365562155
12365569174
12365575460
12365584005
12365590414
12365600912
12365607076
12365616415
12365624410
12365630880
12365639669
12365648397
12365656698
12365663961
12365672811
12365680563
12365686788
12365695516
12365701681
12365710287
12365720235
12365727559
12365734884
12365743917
12365750997
12365758260
12365765950
12365776021
12365783406
12365789449
12365797750
12365806417
12365812825
12365821431
12365828878
12365837667
12365845296
12365853658
12365861898
12365870076
12365876607
12365884297
12365892110
12365900411
12365908589
12365914632
12365923848
12365930623
12365937886
12365947041
12365953694
12365961140
12365971089
12365978169
12365985005
12365992757
12365998982
12366008748
12366015523
12366024739
12366033467
12366042988
12366049580
12366057881
12366064229
12366072468
12366081440
12366086873
12366096333
12366103535
12366113240
12366121235
12366130574
12366136860
12366147053
12366154316
12366164509
12366172199
12366179890
12366188313
12366195637
12366201862
12366211201
12366217609
12366228291
12366235004
12366243183
12366252399
12366260212
12366269184
12366276997
12366285602
12366294941
12366302509
12366310993
12366321003
12366331074
12366335346
12366347004
12366353168
12366362018
12366369098
12366378742
12366385395
12366394489
12366403217
12366409870
12366417926
12366426227
12366434284
12366441364
12366450580
12366457294
12366464618
12366472919
12366480060
12366488056
12366495136
12366502704
12366512531
12366518695
12366529071
12366535907
12366545795
12366551898
12366559711
12366566302
12366575458
12366581561
12366590716
12366599444
12366606708
12366614825
12366621722
12366629901
12366637164
12366646502
12366653582
12366660663
12366667804
12366677325
12366684527
12366691729
12366700274
12366709430
12366714129
12366725665
12366732928
12366739886
12366746173
12366755450
12366763873
12366773455
12366776202
12366782977
12366787249
12366794146
12366798968
12366805987
12366811541
12366818133
12366822466
12366827471
12366833025
12366838519
12366844927
12366851824
12366856829
12366859881
12366868365
12366874224
12366879229
12366884905
12366890459
12366893572
12366900530
12366905901
12366914995
12366920000
12366926409
12366930559
12366936602
12366942217
12366949297
12366953508
12366960955
12366966387
12366972246
12366977739
12366984819
12366991106
12366996111
12367001665
12367008623
12367013872
12367021135
12367024187
12367033708
12367039446
12367046099
12367051592
12367058672
12367064592
12367069658
12367073869
12367080889
12367084673
12367091692
12367095720
12367103288
12367105974
12367113054
12367117693
12367122148
12367126360
12367133684
12367140031
12367144914
12367147905
12367159807
12367164018
12367171464
12367174455
12367180803
12367187456
12367192949
12367197404
12367206560
12367213090
12367219194
12367224992
12367229265
12367236223
12367242692
12367247819
12367254472
12367259294
12367265031
12367271501
12367276689
12367283220
12367287919
12367297380
12367301591
12367309037
12367314592
12367320146
12367326615
12367332109
12367337358
12367343034
12367349076
12367355363
12367364579
12367369096
12367373063
12367382951
12367387711
12367393754
12367402970
12367408158
12367412675
12367418900
12367424455
12367428849
12367434403
12367440385
12367445390
12367450944
12367455765
12367461381
12367465348
12367471329
12367475663
12367481156
12367486466
12367492936
12367498917
12367503922
12367509110
12367515885
12367521195
12367526566
12367531937
12367537186
12367542191
12367547684
12367552994
12367559708
12367565018
12367570389
12367575272
12367584305
12367589127
12367594437
12367598709
12367604752
12367609879
12367614762
12367620011
12367624649
12367633560
12367638748
12367646683
12367653702
12367663346
12367669022
12367678604
12367685257
12367693680
12367701309
12367707779
12367715103
12367723282
12367729874
12367736282
12367743362
12367751419
12367755142
12367766434
12367772049
12367780167
12367783890
12367794998
12367798721
12367809768
12367815567
12367824173
12367828201
12367839126
12367847427
12367853836
12367862198
12367869644
12367877639
12367886795
12367895584
12367903762
12367910415
12367919693
12367926956
12367933975
12367941665
12367950820
12367956436
12367965774
12367972976
12367982009
12367989211
12367996352
12368004775
12368014419
12368020583
12368029189
12368034744
12368043472
12368052200
12368060134
12368067580
12368076125
12368083938
12368092238
12368099685
12368105727
12368115554
12368121657
12368130935
12368139357
12368148269
12368155043
12368163894
12368169875
12368179274
12368185378
12368197158
12368205886
12368216445
12368224379
12368232436
12368239882
12368249037
12368254531
12368264235
12368272109
12368281508
12368285597
12368298476
12368306227
12368313857
12368322401
12368329970
12368337965
12368347182
12368351454
12368363844
12368368117
12368380080
12368384474
12368396254
12368400954
12368411574
12368417860
12368429152
12368436110
12368443983
12368450209
12368459242
12368468702
12368475904
12368482191
12368492140
12368498487
12368506666
12368514906
12368522413
12368530836
12368539991
12368546644
12368555311
12368563490
12368571974
12368578138
12368586012
12368594068
12368601515
12368609815
12368617017
12368626905
12368632032
12368641370
12368648756
12368658338
12368665662
12368672803
12368682203
12368689405
12368695386
12368704420
12368708509
12368721265
12368731214
12368737623
12368746167
12368754407
12368762647
12368770704
12368776502
12368785840
12368791578
12368801465
12368810315
12368816541
12368825940
12368833936
12368841626
12368849988
12368857678
12368863660
12368871777
12368879651
12368887769
12368893811
12368902356
12368912122
12368920789
12368927625
12368934766
12368943127
12368951855
12368958020
12368967602
12368975903
12368984997
12368995312
12369003918
12369009533
12369016247
12369022290
12369030224
12369036084
12369041516
12369047192
12369051587
12369057934
12369062451
12369068005
12369075085
12369081616
12369084973
12369092297
12369096875
12369103833
12369109082
12369115368
12369120922
12369128796
12369132275
12369139721
12369144238
12369150707
12369155346
12369160229
12369166699
12369171520
12369177014
12369182324
12369185436
12369193981
12369197094
12369205944
12369214855
12369222546
12369228405
12369233898
12369239452
12369246288
12369252087
12369259167
12369264355
12369271313
12369276012
12369282787
12369286938
12369293957
12369300243
12369307567
12369312267
12369319591
12369322765
12369330822
12369336620
12369342968
12369348034
12369353527
12369359691
12369365062
12369371288
12369377025
12369382518
12369387767
12369393138
12369398571
12369404796
12369409130
12369416698
12369422130
12369426708
12369432262
12369437633
12369443492
12369449657
12369454967
12369460033
12369465648
12369469737
12369475963
12369484081
12369490672
12369494701
12369500865
12369507152
12369512889
12369518626
12369524303
12369532115
12369537791
12369544078
12369551219
12369557933
12369564647
12369572154
12369582652
12369593455
12369602183
12369610850
12369618541
12369626231
12369633983
12369641063
12369649363
12369660106
12369670970
12369678172
12369686351
12369696177
12369703562
12369711314
12369718577
12369726878
12369732493
12369743662
12369750254
12369759287
12369767161
12369775401
12369783274
12369787852
12369800242
12369807383
12369816416
12369822642
12369831309
12369837717
12369843394
12369852976
12369859812
12369867014
12369874033
12369882761
12369888865
12369896006
12369904795
12369910654
12369918162
12369926523
12369934031
12369939646
12369951059
12369956553
12369964487
12369972910
12369977976
12369987192
12370000498
12370010324
12370021006
12370029672
12370042551
12370051523
12370064707
12370075021
12370081613
12370099863
12370106882
12370123239
12370133676
12370142770
12370157846
12370168161
12370180063
12370187143
12370200326
12370211374
12370223703
12370234872
12370246042
12370253610
12370266183
12370272714
12370284066
12370295236
12370307016
12370313546
12370329293
12370338815
12370346139
12370357675
12370364022
12370380258
12370390878
12370398019
12370413461
12370423959
12370435311
12370446725
12370458993
12370468636
12370482308
12370492135
12370501900
12370522591
12370554573
12370569649
12370584481
12370599068
12370611641
12370627999
12370641609
12370658577
12370668892
12370683357
12370693794
12370707344
12370716621
12370726082
12370735542
12370744759
12370754219
12370761238
12370768440
12370774788
12370780952
12370787971
12370794685
12370800850
12370808296
12370814888
12370821785
12370829414
12370835823
12370842964
12370851020
12370857612
12370863227
12370871833
12370878975
12370885200
12370892036
12370898872
12370906196
12370913337
12370918769
12370925666
12370932929
12370939277
12370944892
12370951667
12370959174
12370966194
12370972968
12370979926
12370987495
12370994331
12371000983
12371007880
12371016853
12371023139
12371031196
12371036872
12371043952
12371049323
12371056769
12371065192
12371072944
12371078010
12371085700
12371091193
12371098945
12371106269
12371113532
12371121650
12371128669
12371135077
12371142585
12371148566
12371155402
12371161200
12371170356
12371178168
12371185492
12371190985
12371197943
12371204718
12371212104
12371219794
12371225958
12371234870
12371242499
12371248480
12371255377
12371261420
12371269110
12371276251
12371284979
12371291998
12371299445
12371305731
12371313239
12371319037
12371327582
12371334723
12371342047
12371348883
12371356695
12371363226
12371370184
12371376959
12371384466
12371390448
12371401373
12371408636
12371417303
12371425543
12371433844
12371441107
12371446600
12371456182
12371464239
12371472357
12371476019
12371485357
12371493231
12371500250
12371508489
12371515509
12371522711
12371531072
12371537908
12371546392
12371554937
12371560735
12371565557
12371572027
12371576605
12371581915
12371586981
12371591741
12371596624
12371601019
12371607977
12371612554
12371618414
12371623907
12371629034
12371632330
12371639898
12371644170
12371651556
12371658575
12371664312
12371668828
12371675481
12371680181
12371685552
12371691411
12371699163
12371704900
12371709356
12371713445
12371719549
12371724920
12371729375
12371734929
12371741765
12371747014
12371751165
12371758062
12371763128
12371768926
12371773259
12371780461
12371784185
12371791692
12371796331
12371802617
12371807195
12371813481
12371821050
12371826360
12371834294
12371839726
12371846257
12371852544
12371858464
12371863652
12371870610
12371876592
12371885075
12371889531
12371896733
12371902776
12371910832
12371917729
12371922917
12371932561
12371937871
12371948735
12371955693
12371962407
12371967290
12371979130
12371985173
12371989934
12371999150
12372007145
12372015202
12372023259
12372029179
12372040287
12372047673
12372057499
12372066471
12372075322
12372082096
12372094425
12372102482
12372110234
12372115238
12372126347
12372133549
12372142277
12372152836
12372161625
12372169926
12372177738
12372183842
12372188541
12372199528
12372205326
12372214909
12372224308
12372235233
12372241886
12372244144
12372257206
12372262150
12372273075
12372277897
12372288883
12372298893
12372307804
12372314274
12372319034
12372329227
12372336551
12372344303
12372348941
12372358158
12372367435
12372373783
12372384037
12372386173
12372398380
12372402835
12372412479
12372419376
12372427188
12372436405
12372444034
12372452274
12372456729
12372466861
12372473880
12372481632
12372487735
12372493961
12372501163
12372510806
12372518741
12372522708
12372533511
12372540652
12372548282
12372554935
12372562137
12372572024
12372579043
12372586062
12372593875
12372601626
12372605655
12372617068
12372622134
12372633975
12372643069
12372655520
12372664126
12372672610
12372682620
12372693423
12372700686
12372712100
12372718386
12372728945
12372739871
12372751162
12372756716
12372770449
12372779055
12372790591
12372798525
12372806765
12372819277
12372828005
12372837405
12372845766
12372855227
12372863711
12372871767
12372885561
12372894961
12372905764
12372913576
12372930727
12372940432
12372947756
12372959108
12372965151
12372979982
12372989504
12373001955
12373013429
12373024782
12373037721
12373043703
12373063173
12373069399
12373083620
12373091371
12373100343
12373109560
12373119447
12373133180
12373142030
12373152650
12373158632
12373171205
12373183595
12373193178
12373206483
12373217897
12373226442
12373232179
12373247255
12373258973
12373274171
12373282838
12373294190
12373305787
12373318727
12373328126
12373337953
12373347047
12373356019
12373368958
12373380860
12373390931
12373400758
12373411134
12373423157
12373433778
12373444276
12373452943
12373466431
12373476868
12373487122
12373498292
12373509705
12373516358
12373532227
12373539429
12373554078
12373562867
12373572998
12373583008
12373596802
12373607117
12373615845
12373625305
12373631104
12373646423
12373656372
12373663330
12373677490
12373685059
12373698730
12373701843
12373717468
12373728027
12373736755
12373745727
12373756470
12373767029
12373776123
12373787842
12373793579
12373807251
12373817932
12373825012
12373834961
12373847595
12373860473
12373868530
12373881347
12373889160
12373900512
12373910400
12373919006
12373927673
12373941345
12373952453
12373961852
12373976196
12373985351
12373996947
12374002502
12374018493
12374028197
12374037963
12374047851
12374062255
12374073424
12374079772
12374094726
12374101684
12374117614
12374127318
12374139586
12374149596
12374160826
12374172301
12374178405
12374193846
12374207579
12374221190
12374235167
12374248290
12374257628
12374273253
12374283934
12374297118
12374307066
12374318297
12374326903
12374336851
12374346617
12374363341
12374372191
12374388060
12374391600
12374408079
12374417723
12374429625
12374443235
12374450987
12374469480
12374484434
12374490599
12374500486
12374508055
12374514646
12374522032
12374529478
12374535337
12374540403
12374552671
12374560545
12374566343
12374575071
12374582334
12374588682
12374593626
12374602964
12374611082
12374619382
12374627378
12374633726
12374639280
12374645017
12374653074
12374659482
12374663572
12374673337
12374682126
12374688962
12374690610
12374701963
12374706052
12374715940
12374721616
12374728208
12374735349
12374742368
12374749753
12374755063
12374762632
12374766904
12374775205
12374780698
12374787534
12374794797
12374802182
12374810849
12374815305
12374824094
12374831052
12374837399
12374845883
12374852963
12374859433
12374868710
12374877011
12374883786
12374891110
12374898862
12374903561
12374913144
12374919797
12374924618
12374936764
12374944333
12374952634
12374957577
12374970822
12374982419
12374993100
12375000302
12375012631
12375019955
12375028744
12375034298
12375038388
12375048947
12375055294
12375065060
12375071469
12375078793
12375088558
12375096371
12375103573
12375111263
12375118771
12375122921
12375133175
12375139523
12375144772
12375153195
12375162106
12375171627
12375182308
12375189083
12375194088
12375205379
12375212398
12375222286
12375230892
12375235775
12375244564
12375252926
12375259334
12375266109
12375276424
12375283565
12375288326
12375296261
12375305843
12375311702
12375321346
12375327633
12375334713
12375347042
12375352962
12375363216
12375374141
12375380245
12375387630
12375393550
12375397090
12375408138
12375414180
12375419246
12375426326
12375430049
12375435054
12375439693
12375444270
12375448909
12375453121
12375458431
12375462764
12375468868
12375473872
12375478572
12375483943
12375487849
12375493037
12375499019
12375504817
12375510615
12375515681
12375520747
12375525874
12375531550
12375536189
12375543574
12375549129
12375553645
12375559932
12375563838
12375569331
12375574397
12375579646
12375586360
12375592158
12375596187
12375602961
12375608394
12375615474
12375620662
12375629268
12375637996
12375645015
12375652034
12375658259
12375665461
12375671931
12375678889
12375685298
12375695246
12375703791
12375709651
12375717829
12375723261
12375731379
12375736628
12375745478
12375754084
12375761591
12375767207
12375774470
12375780512
12375788630
12375796992
12375804621
12375813715
12375820490
12375829523
12375835932
12375848688
12375856501
12375865290
12375874384
12375882197
12375889887
12375897760
12375905573
12375911615
12375918879
12375928705
12375936335
12375945490
12375951899
12375959284
12375967768
12375973566
12375984552
12375992731
12375998285
12376007074
12376012811
12376021173
12376026850
12376039423
12376046930
12376056879
12376064203
12376072748
12376079462
12376086725
12376093378
12376101312
12376110712
12376119012
12376125604
12376134637
12376140924
12376146905
12376153741
12376162897
12376169366
12376178216
12376184442
12376192804
12376200677
12376207330
12376216790
12376224969
12376230767
12376237848
12376243280
12376252496
12376259515
12376266595
12376275750
12376282159
12376290582
12376297418
12376305291
12376312249
12376319329
12376329766
12376339471
12376345574
12376353997
12376359551
12376366998
12376374566
12376382684
12376391045
12376400017
12376406975
12376415093
12376421929
12376428399
12376436577
12376444756
12376453667
12376459832
12376465447
12376473870
12376482354
12376489983
12376496758
12376504693
12376513115
12376517388
12376527214
12376534294
12376540703
12376549004
12376555779
12376565056
12376572930
12376581902
12376589958
12376599358
12376605766
12376614983
12376624199
12376630974
12376637688
12376644157
12376650810
12376659721
12376666435
12376675041
12376683281
12376689445
12376699333
12376705315
12376716240
12376723442
12376732414
12376740227
12376749016
12376757744
12376763786
12376771721
12376779167
12376786064
12376792961
12376801689
12376808952
12376816154
12376821891
12376830192
12376835685
12376842826
12376854240
12376860954
12376869377
12376875724
12376883171
12376889701
12376896659
12376902946
12376909110
12376915702
12376920646
12376925529
12376930106
12376935478
12376939811
12376947318
12376952628
12376959037
12376964530
12376968742
12376974052
12376981681
12376986625
12376992973
12376999503
12377004935
12377010795
12377015494
12377022574
12377027213
12377033500
12377038138
12377043998
12377048453
12377054008
12377058158
12377065238
12377070853
12377075614
12377083732
12377089835
12377095694
12377101188
12377106070
12377111564
12377116568
12377122977
12377128714
12377134818
12377140006
12377146476
12377150931
12377155692
12377161551
12377166068
12377171195
12377177420
12377181815
12377187735
12377194022
12377199942
12377206900
12377214713
12377221121
12377227957
12377233084
12377238028
12377243094
12377248831
12377252676
12377257559
12377263419
12377269400
12377274100
12377279410
12377283926
12377287833
12377293936
12377301627
12377309500
12377314932
12377322134
12377328299
12377331656
12377337820
12377342825
12377350577
12377355276
12377366079
12377371267
12377376150
12377381827
12377386953
12377390982
12377398062
12377403433
12377408743
12377411490
12377418753
12377422964
12377429007
12377435659
12377441091
12377446157
12377452932
12377455984
12377464102
12377468679
12377476248
12377484732
12377490103
12377495840
12377500662
12377505667
12377511465
12377513967
12377521230
12377526235
12377532461
12377536916
12377542471
12377546133
12377552175
12377554922
12377561636
12377567312
12377573843
12377576711
12377584219
12377588857
12377594472
12377597097
12377603384
12377610403
12377615468
12377621206
12377626882
12377632497
12377638479
12377642568
12377647329
12377652822
12377659353
12377664663
12377669118
12377673452
12377679433
12377684682
12377689687
12377695180
12377702443
12377708547
12377716665
12377722036
12377729970
12377735891
12377743093
12377753530
12377763967
12377772389
12377777944
12377789479
12377793630
12377802175
12377811391
12377820363
12377826344
12377835256
12377843312
12377850453
12377856496
12377865529
12377873708
12377879262
12377887746
12377893788
12377905019
12377909230
12377921620
12377929860
12377937550
12377943715
12377950856
12377959340
12377965260
12377973500
12377980946
12377989064
12377994557
12378002675
12378008351
12378017872
12378025257
12378032215
12378040272
12378048878
12378053700
12378066456
12378072315
12378081593
12378087757
12378096485
12378103443
12378110218
12378118153
12378124683
12378133289
12378140186
12378149464
12378157093
12378163624
12378174427
12378181263
12378189320
12378197803
12378205128
12378212391
12378220447
12378229053
12378236561
12378244922
12378251514
12378258777
12378266102
12378273975
12378282337
12378289295
12378296985
12378304737
12378312061
12378320057
12378327442
12378336353
12378346729
12378354602
12378361560
12378368518
12378378162
12378385120
12378394397
12378402637
12378409046
12378417102
12378425525
12378432117
12378438159
12378447131
12378452686
12378460986
12378466724
12378475696
12378481921
12378490527
12378497668
12378508288
12378515979
12378524280
12378535754
12378542895
12378550403
12378556323
12378563159
12378570483
12378577258
12378586352
12378592822
12378601611
12378610095
12378615710
12378625232
12378631396
12378641345
12378650866
12378661486
12378668688
12378677966
12378685412
12378695483
12378702624
12378712328
12378719286
12378729113
12378737902
12378745715
12378750231
12378762133
12378766772
12378776598
12378786120
12378793688
12378802904
12378808825
12378819872
12378827013
12378837816
12378842333
12378852892
12378859850
12378869249
12378875902
12378884996
12378893969
12378902086
12378910143
12378916002
12378925096
12378930895
12378940050
12378946459
12378956102
12378963793
12378971056
12378975328
12378986986
12378993822
12379002062
12379008470
12379016771
12379025560
12379033495
12379039659
12379046617
12379055650
12379062975
12379068651
12379074510
12379079820
12379084825
12379090990
12379096239
12379101854
12379108995
12379114183
12379118394
12379124010
12379129930
12379133531
12379140306
12379146409
12379150926
12379156175
12379161790
12379166307
12379172349
12379178880
12379183885
12379188890
12379194505
12379201341
12379209214
12379212327
12379219102
12379225511
12379230882
12379237046
12379241685
12379248765
12379252732
12379261155
12379269029
12379274949
12379281480
12379287034
12379292832
12379298631
12379305406
12379310777
12379315110
12379321824
12379326219
12379332139
12379338792
12379344529
12379349107
12379354783
12379359361
12379364976
12379370469
12379376572
12379382920
12379386399
12379393967
12379400376
12379407639
12379412827
12379418931
12379423264
12379428269
12379434250
12379439622
12379445420
12379450364
12379454880
12379459946
12379464341
12379471421
12379476243
12379481797
12379487595
12379492234
12379497910
12379503098
12379508835
12379514695
12379519028
12379524887
12379530625
12379533799
12379542404
12379545334
12379553147
12379558823
12379563523
12379568405
12379574448
12379579514
12379585495
12379590988
12379597885
12379603928
12379609299
12379613632
12379619309
12379624802
12379632187
12379636459
12379641892
12379646835
12379653610
12379659103
12379663498
12379671371
12379677475
12379682419
12379687179
12379693588
12379697922
12379704452
12379709946
12379715744
12379721115
12379726852
12379734299
12379740097
12379745407
12379748581
12379756698
12379762008
12379768295
12379776657
12379783004
12379787887
12379793075
12379801010
12379806869
12379814071
12379821334
12379827255
12379831161
12379838302
12379845199
12379850814
12379856552
12379863510
12379868881
12379873092
12379882675
12379887802
12379897445
12379903121
12379908370
12379911483
12379919723
12379925094
12379930343
12379934798
12379941085
12379946090
12379952621
12379961532
12379968368
12379976607
12379984664
12379994491
12380000655
12380009994
12380017318
12380026046
12380033553
12380042769
12380048690
12380057784
12380063582
12380073348
12380082076
12380089034
12380096846
12380103804
12380111190
12380119307
12380126509
12380135176
12380141707
12380150191
12380158309
12380165694
12380174117
12380180220
12380189559
12380197920
12380206099
12380211653
12380221358
12380226790
12380236189
12380240401
12380250838
12380257918
12380267195
12380273543
12380281966
12380290266
12380297163
12380305891
12380315535
12380323836
12380333601
12380342024
12380351057
12380357832
12380365339
12380375898
12380383772
12380392317
12380400801
12380407637
12380416792
12380423078
12380431135
12380438398
12380446455
12380454267
12380463728
12380470869
12380477155
12380485090
12380491682
12380501142
12380509199
12380516218
12380524702
12380532270
12380540815
12380546919
12380556806
12380563764
12380575300
12380587812
12380597150
12380607038
12380618696
12380627424
12380633771
12380640790
12380650434
12380657087
12380666303
12380670820
12380681745
12380690839
12380698529
12380705976
12380716596
12380723615
12380732953
12380741742
12380749494
12380755841
12380764997
12380771588
12380780744
12380789288
12380794721
12380806195
12380811322
12380820599
12380828839
12380835614
12380843793
12380851727
12380861310
12380870648
12380877301
12380886761
12380890912
12380902386
12380906720
12380917706
12380921918
12380933392
12380943402
12380950726
12380959454
12380968548
12380974041
12380983075
12380990033
12380999066
12381007306
12381016156
12381021771
12381031903
12381039898
12381048748
12381053631
12381062542
12381070721
12381079693
12381086041
12381094891
12381100384
12381108868
12381115337
12381124188
12381130291
12381138897
12381147442
12381154949
12381159893
12381168133
12381176372
12381182537
12381189678
12381197918
12381204693
12381213177
12381221172
12381226970
12381234600
12381244243
12381252361
12381260174
12381267620
12381275676
12381282329
12381290203
12381297893
12381306377
12381314067
12381319866
12381329265
12381335247
12381344402
12381350810
12381360149
12381366374
12381377117
12381384258
12381390666
12381396404
12381403606
12381409038
12381416789
12381421794
12381428081
12381432719
12381438030
12381443523
12381448833
12381455363
12381462688
12381468242
12381473247
12381479777
12381485087
12381489726
12381496013
12381501628
12381505412
12381512187
12381516459
12381523356
12381528239
12381534953
12381540873
12381546550
12381552348
12381560527
12381564189
12381570536
12381576396
12381580302
12381585978
12381591105
12381596232
12381602153
12381606547
12381611003
12381616191
12381622416
12381626261
12381632426
12381637614
12381642375
12381648600
12381653910
12381659403
12381665690
12381668254
12381674906
12381678935
12381685526
12381691569
12381697917
12381703776
12381708231
12381712199
12381717326
12381722819
12381728800
12381734049
12381738566
12381744303
12381749735
12381756022
12381760416
12381766032
12381769816
12381777079
12381782389
12381787638
12381793680
12381798624
12381802775
12381808695
12381813151
12381820780
12381825480
12381831156
12381835489
12381841959
12381848124
12381852701
12381858317
12381862711
12381870279
12381874552
12381880899
12381886148
12381891703
12381897501
12381902384
12381907694
12381912943
12381918192
12381924478
12381928873
12381934488
12381939249
12381943888
12381950235
12381955973
12381964151
12381967996
12381976236
12381981302
12381988199
12381993753
12382002237
12382007974
12382014932
12382023721
12382032083
12382039529
12382048502
12382057535
12382063272
12382074686
12382082681
12382088602
12382096658
12382103555
12382115945
12382123147
12382129373
12382137185
12382144815
12382152383
12382157327
12382166116
12382175027
12382184243
12382189614
12382201821
12382210305
12382217996
12382227517
12382235513
12382245034
12382255471
12382262795
12382275002
12382276895
12382287332
12382295083
12382300576
12382308633
12382315652
12382323281
12382330361
12382339761
12382345376
12382352944
12382358804
12382367226
12382373635
12382382485
12382390786
12382402627
12382412331
12382420205
12382429482
12382440102
12382449624
12382457375
12382469521
12382479653
12382492531
12382501625
12382512734
12382520363
12382529885
12382540016
12382551857
12382562966
12382569924
12382585182
12382593727
12382604775
12382616554
12382626686
12382635353
12382644447
12382654945
12382661781
12382676857
12382685402
12382695900
12382704384
12382716835
12382725807
12382735450
12382745582
12382755836
12382766456
12382778114
12382788124
12382793800
12382805885
12382816871
12382823463
12382836524
12382845069
12382858558
12382867408
12382877296
12382887550
12382897865
12382906532
12382916541
12382926063
12382938148
12382948157
12382961402
12382969825
12382980079
12382990821
12383000953
12383012794
12383024329
12383038428
12383048011
12383059058
12383070594
12383080787
12383090613
12383104285
12383116797
12383131812
12383141638
12383151404
12383162879
12383170630
12383181738
12383189246
12383198950
12383210303
12383222205
12383227576
12383239783
12383250586
12383261816
12383269751
12383280920
12383290564
12383302893
12383312170
12383326758
12383335058
12383347021
12383356237
12383363684
12383376806
12383385534
12383399145
12383404821
12383418493
12383427832
12383436804
12383445043
12383453771
12383464819
12383474157
12383485021
12383491979
12383503637
12383510839
12383519750
12383529882
12383538854
12383547765
12383559789
12383567419
12383579442
12383587194
12383595922
12383606725
12383615087
12383625402
12383636449
12383647863
12383658544
12383666967
12383675756
12383686681
12383699071
12383710118
12383723485
12383732152
12383743688
12383754430
12383763707
12383773778
12383785008
12383792272
12383802342
12383818211
12383824498
12383840367
12383849400
12383860997
12383869908
12383879674
12383894444
12383903782
12383916234
12383925389
12383937413
12383945836
12383956944
12383968663
12383976048
12383986424
12384000157
12384009190
12384021885
12384030796
12384040379
12384050938
12384061436
12384072422
12384086033
12384097324
12384103306
12384117954
12384127415
12384138584
12384146213
12384153965
12384163853
12384178806
12384193882
12384198093
12384208774
12384218479
12384224766
12384232334
12384239597
12384249424
12384256504
12384262180
12384268772
12384276706
12384283115
12384287754
12384299289
12384306430
12384320102
12384324619
12384333774
12384340427
12384347751
12384357883
12384360629
12384373020
12384380039
12384394748
12384400058
12384409030
12384415134
12384422092
12384426852
12384434299
12384439426
12384445712
12384450717
12384455417
12384460605
12384466098
12384471225
12384476413
12384481051
12384487521
12384493136
12384498141
12384503940
12384509128
12384514682
12384519626
12384526034
12384531772
12384537204
12384541781
12384547030
12384552279
12384557467
12384562960
12384568087
12384574313
12384580233
12384587802
12384591586
12384599643
12384602938
12384612704
12384617037
12384625888
12384632296
12384638034
12384643710
12384649203
12384655490
12384660739
12384667086
12384675265
12384681674
12384687228
12384691927
12384698214
12384702853
12384710116
12384717745
12384723483
12384729525
12384735812
12384741061
12384745821
12384752657
12384757479
12384764803
12384769747
12384776583
12384781649
12384788485
12384792208
12384798800
12384803499
12384808748
12384814913
12384821810
12384827608
12384832918
12384839388
12384844942
12384847811
12384857332
12384864656
12384871370
12384876619
12384881441
12384887117
12384893953
12384896700
12384903047
12384907869
12384916048
12384918978
12384926119
12384930452
12384938021
12384944368
12384949678
12384956514
12384963838
12384972139
12384978304
12384984285
12384989168
12384994173
12385004732
12385010957
12385015657
12385020113
12385026399
12385032686
12385037080
12385042146
12385047639
12385050752
12385061067
12385066682
12385071748
12385076326
12385082246
12385086641
12385092561
12385102266
12385108980
12385117158
12385124788
12385133394
12385140413
12385148286
12385155122
12385162812
12385171907
12385178559
12385187165
12385193208
12385201753
12385207551
12385216645
12385226655
12385234712
12385242768
12385248384
12385256257
12385263581
12385271150
12385277192
12385287263
12385293183
12385301179
12385308747
12385316682
12385324311
12385330476
12385339692
12385348054
12385355683
12385362641
12385368134
12385377839
12385383759
12385391389
12385401276
12385408295
12385413788
12385422333
12385427826
12385437897
12385445038
12385451569
12385460358
12385467011
12385473908
12385482819
12385490448
12385497467
12385510102
12385520417
12385528473
12385537811
12385544220
12385553742
12385560700
12385569611
12385578461
12385585297
12385596100
12385602753
12385611847
12385619354
12385626312
12385633575
12385641266
12385647430
12385657318
12385663544
12385672394
12385677765
12385686004
12385693573
12385703033
12385709259
12385720550
12385728851
12385737335
12385743988
12385750518
12385756378
12385766998
12385775421
12385782501
12385790313
12385798797
12385804412
12385812957
12385820892
12385827850
12385834197
12385842742
12385851104
12385858917
12385869415
12385877471
12385885772
12385892791
12385901214
12385909270
12385917754
12385925506
12385932647
12385938201
12385947051
12385954497
12385965545
12385972625
12385980865
12385988494
12385995269
12386003142
12386010039
12386017180
12386025725
12386031340
12386041228
12386049285
12386057525
12386067046
12386074187
12386082976
12386090850
12386098418
12386107268
12386113249
12386124114
12386132903
12386141142
12386147063
12386154814
12386164641
12386172270
12386182524
12386192412
12386198454
12386206999
12386215300
12386223296
12386232695
12386241301
12386250456
12386262602
12386269560
12386278349
12386286528
12386297758
12386306975
12386316557
12386324858
12386332243
12386341032
12386348661
12386354887
12386362700
12386370329
12386379850
12386386991
12386392851
12386402861
12386409696
12386416166
12386426542
12386435880
12386447111
12386451994
12386459440
12386464628
12386470182
12386476530
12386482877
12386486723
12386493803
12386496610
12386502592
12386508329
12386513700
12386516874
12386525968
12386531034
12386536100
12386542448
12386548307
12386553861
12386562284
12386567045
12386574552
12386579069
12386584928
12386591764
12386596647
12386602384
12386607023
12386614103
12386618558
12386625150
12386629361
12386635526
12386639310
12386645536
12386651822
12386658170
12386662626
12386668485
12386672879
12386679166
12386684537
12386690213
12386695157
12386702970
12386706449
12386713590
12386716275
12386723722
12386729520
12386735562
12386741361
12386748319
12386753995
12386757962
12386764066
12386768094
12386773282
12386778043
12386786832
12386793424
12386798550
12386803860
12386809720
12386817349
12386822903
12386831570
12386838467
12386842679
12386852200
12386857876
12386866177
12386873257
12386880520
12386886929
12386895840
12386905362
12386912503
12386923062
12386930874
12386938443
12386946194
12386953885
12386963223
12386973538
12386980191
12386986233
12386995022
12387001858
12387011135
12387018826
12387023281
12387034329
12387043728
12387051052
12387060879
12387065579
12387076504
12387082729
12387090908
12387098599
12387107021
12387119167
12387126369
12387135097
12387141079
12387151699
12387158108
12387165127
12387172695
12387177944
12387188381
12387196621
12387205898
12387211086
12387222194
12387229091
12387235622
12387244411
12387248867
12387259487
12387266567
12387276027
12387283107
12387290859
12387298244
12387305690
12387311855
12387320339
12387325160
12387332851
12387343837
12387349941
12387356532
12387365077
12387371547
12387376918
12387384792
12387393214
12387399013
12387406215
12387415981
12387423061
12387429652
12387437099
12387441432
12387451503
12387458156
12387464564
12387472316
12387482387
12387488978
12387495570
12387505275
12387512904
12387520350
12387529078
12387536280
12387546168
12387559901
12387570521
12387576075
12387589869
12387598170
12387607752
12387619959
12387626795
12387641505
12387650843
12387661402
12387667140
12387681971
12387691126
12387703516
12387712244
12387722864
12387735133
12387746485
12387757899
12387764002
12387778589
12387787623
12387799952
12387808924
12387820826
12387832666
12387842310
12387853540
12387864710
12387875208
12387884668
12387896814
12387906092
12387915735
12387928675
12387944299
12387955469
12387961389
12387977075
12387985315
12387996118
12388006494
12388014185
12388026453
12388037134
12388045495
12388056970
12388065454
12388072961
12388085718
12388094995
12388104883
12388115381
12388128625
12388137170
12388152368
12388160852
12388170556
12388183190
12388193139
12388202539
12388216760
12388226769
12388235009
12388244958
12388253564
12388264977
12388273644
12388283837
12388296288
12388306786
12388318261
12388326134
12388335534
12388345177
12388353966
12388362572
12388375512
12388383202
12388395836
12388405175
12388414025
12388423058
12388431664
12388441491
12388450707
12388461815
12388474022
12388482384
12388493920
12388500939
12388512413
12388519066
12388528588
12388543236
12388555016
12388565575
12388575768
12388586082
12388593285
12388605553
12388614464
12388625206
12388639427
12388648155
12388658592
12388667503
12388677330
12388687828
12388694053
12388710167
12388722801
12388735130
12388747276
12388756126
12388768821
12388778526
12388788047
12388794212
12388812766
12388822227
12388835899
12388845237
12388855674
12388861717
12388877036
12388882591
12388897361
12388905540
12388920188
12388929221
12388943381
12388952720
12388960959
12388974570
12388982383
12388994040
12389003501
12389018210
12389027427
12389039634
12389046958
12389062461
12389071494
12389084189
12389094321
12389104636
12389119406
12389129599
12389140219
12389146384
12389160544
12389169333
12389179221
12389192831
12389204733
12389213339
12389225058
12389236594
12389246847
12389256674
12389264731
12389276632
12389287741
12389308493
12389318930
12389327292
12389335959
12389342794
12389347250
12389358297
12389365438
12389373739
12389379965
12389386984
12389392965
12389399191
12389407919
12389414327
12389420309
12389427877
12389435262
12389439474
12389450155
12389455648
12389462911
12389471639
12389477804
12389484090
12389490377
12389499899
12389507162
12389514852
12389519735
12389528890
12389535543
12389543416
12389550130
12389558797
12389565572
12389573079
12389580709
12389585714
12389594686
12389601156
12389610494
12389618795
12389626363
12389633016
12389640828
12389648946
12389653951
12389663106
12389670247
12389678365
12389687459
12389694783
12389702840
12389707601
12389717610
12389725179
12389734700
12389743062
12389751119
12389760213
12389765218
12389776997
12389783894
12389792561
12389799641
12389804707
12389814534
12389820943
12389829488
12389838643
12389847676
12389854024
12389861531
12389868794
12389877095
12389885823
12389890217
12389900593
12389907673
12389917683
12389923848
12389929951
12389938313
12389944661
12389953022
12389959919
12389969502
12389978047
12389987690
12389996235
12390005635
12390011006
12390014729
12390023579
12390028767
12390035969
12390040363
12390048725
12390054707
12390062946
12390067463
12390073689
12390078388
12390085468
12390090412
12390096638
12390101093
12390108906
12390114094
12390120197
12390124958
12390131489
12390138325
12390143207
12390146992
12390153278
12390157856
12390164081
12390168232
12390173969
12390179767
12390186359
12390192646
12390198017
12390204303
12390209980
12390213154
12390222370
12390226764
12390235370
12390240192
12390247882
12390252521
12390258747
12390264972
12390270404
12390277484
12390282550
12390289447
12390293720
12390300678
12390307514
12390312580
12390316120
12390324115
12390332050
12390337482
12390340228
12390349506
12390354511
12390359454
12390363910
12390369342
12390374774
12390381732
12390387347
12390392047
12390397845
12390402972
12390408710
12390415240
12390423968
12390432086
12390440143
12390446734
12390454913
12390462665
12390470233
12390478106
12390487018
12390495746
12390501727
12390508868
12390516070
12390523822
12390532000
12390538348
12390546832
12390555621
12390560992
12390570391
12390575885
12390584979
12390590655
12390599932
12390608111
12390617510
12390624957
12390631915
12390639605
12390648760
12390657793
12390665606
12390673296
12390681231
12390687640
12390696123
12390704241
12390711809
12390719134
12390726092
12390734942
12390743609
12390752703
12390758440
12390767718
12390774614
12390786028
12390792986
12390805193
12390810381
12390821245
12390828630
12390834978
12390842607
12390849138
12390860735
12390867021
12390875322
12390882097
12390889543
12390897905
12390903459
12390912493
12390920976
12390928606
12390934099
12390942278
12390949785
12390957292
12390965227
12390971697
12390981279
12390989275
12390996599
12391004289
12391011919
12391017412
12391024492
12391033647
12391044450
12391050188
12391058793
12391064592
12391073137
12391078874
12391087724
12391097307
12391104203
12391108110
12391119035
12391126909
12391133500
12391139482
12391149430
12391157609
12391167558
12391174272
12391183305
12391189286
12391198686
12391206254
12391213517
12391223344
12391230058
12391237016
12391245622
12391251603
12391261002
12391268021
12391277482
12391284989
12391294633
12391300858
12391310197
12391317277
12391326249
12391332596
12391342667
12391352128
12391358536
12391367753
12391373856
12391381730
12391390152
12391396317
12391406571
12391416642
12391424698
12391433182
12391440995
12391449112
12391454911
12391464188
12391471024
12391479691
12391487503
12391495804
12391502457
12391510452
12391519425
12391527054
12391534989
12391545303
12391552567
12391561722
12391569412
12391578445
12391586319
12391593765
12391603470
12391613235
12391618790
12391626663
12391632217
12391640762
12391646255
12391656021
12391662979
12391673416
12391677139
12391687332
12391694473
12391701126
12391707534
12391717422
12391726028
12391734939
12391741043
12391750076
12391756668
12391765518
12391771682
12391781326
12391790054
12391797622
12391803054
12391808792
12391812271
12391819412
12391826980
12391832595
12391838149
12391843643
12391846328
12391854079
12391861343
12391867446
12391873794
12391879958
12391886794
12391892593
12391895583
12391903640
12391909743
12391915176
12391920852
12391928603
12391934890
12391940993
12391947219
12391952590
12391956252
12391962722
12391967483
12391974563
12391979812
12391987197
12391991591
12391997573
12392002211
12392008498
12392013259
12392018447
12392025893
12392033095
12392038405
12392044448
12392050856
12392055068
12392062087
12392067946
12392073500
12392081069
12392086928
12392093398
12392099074
12392104750
12392113844
12392119948
12392126845
12392132399
12392139601
12392143996
12392149306
12392155043
12392160597
12392166212
12392171095
12392176283
12392182753
12392190443
12392195875
12392201979
12392207289
12392214064
12392218825
12392228468
12392233717
12392239454
12392247145
12392251661
12392256239
12392262465
12392267775
12392275099
12392280348
12392286085
12392291823
12392296156
12392301954
12392307570
12392313368
12392318678
12392325453
12392331251
12392337049
12392341932
12392346205
12392352003
12392358229
12392363539
12392369459
12392375074
12392379835
12392385389
12392391371
12392396742
12392402357
12392406812
12392413343
12392418287
12392425550
12392430433
12392435560
12392440626
12392446180
12392452650
12392457777
12392463453
12392468580
12392474134
12392479627
12392484815
12392490186
12392494520
12392500928
12392506910
12392513563
12392517774
12392524061
12392528455
12392534009
12392541578
12392548231
12392553785
12392560315
12392566297
12392571912
12392578138
12392581861
12392590833
12392596326
12392603223
12392614087
12392619214
12392626722
12392633985
12392642713
12392647534
12392657300
12392663892
12392671582
12392681775
12392690198
12392698438
12392703443
12392712659
12392721387
12392728955
12392739514
12392747998
12392758435
12392774426
12392785413
12392797131
12392808057
12392815137
12392826733
12392835827
12392846325
12392858410
12392869763
12392880383
12392890393
12392900403
12392906750
12392920666
12392929699
12392942089
12392949597
12392963696
12392972668
12392981884
12392993725
12393006359
12393016735
12393027294
12393038830
12393051891
12393061962
12393067516
12393080944
12393090038
12393099621
12393111156
12393118053
12393130016
12393139538
12393151317
12393160412
12393168590
12393177807
12393187572
12393193676
12393207348
12393217601
12393226024
12393238658
12393249156
12393258068
12393265758
12393276805
12393287364
12393300609
12393310375
12393327831
12393337901
12393353832
12393364330
12393375438
12393384410
12393393687
12393404979
12393411449
12393426341
12393432567
12393445079
12393454722
12393464244
12393476146
12393481883
12393496470
12393506175
12393517283
12393523387
12393537486
