12845565687
12845575940
12845583936
12845590772
12845598340
12845605909
12845614392
12845621717
12845628553
12845637097
12845645337
12845653638
12845661756
12845669568
12845677991
12845684094
12845692700
12845701001
12845709363
12845719617
12845727918
12845736340
12845744946
12845753308
12845761060
12845771741
12845782422
12845792554
12845802441
12845822522
12845841626
12845861096
12845881543
12845898083
12845917920
12845935986
12845954052
12845974011
12845985546
12845995739
12846004833
12846019787
12846036144
12846057201
12846076000
12846089733
12846099560
12846110607
12846120251
12846130138
12846142040
12846150524
12846159801
12846169750
12846179393
12846188732
12846198192
12846208751
12846220470
12846231945
12846241405
12846250621
12846261791
12846271007
12846279918
12846289928
12846303233
12846313732
12846322398
12846336314
12846344981
12846355602
12846366832
12846373790
12846384654
12846393565
12846405894
12846417369
12846427318
12846437083
12846446116
12846455150
12846464122
12846473887
12846484080
12846492564
12846502513
12846511607
12846520396
12846530040
12846538829
12846548350
12846558238
12846561961
12846576731
12846587046
12846599375
12846610667
12846619761
12846630015
12846642527
12846650584
12846663035
12846672800
12846687388
12846696421
12846704905
12846716501
12846730662
12846741526
12846751719
12846761362
12846771311
12846782175
12846792368
12846801950
12846811228
12846822763
12846828745
12846840219
12846851816
12846860849
12846871164
12846880625
12846890085
12846899240
12846907236
12846918832
12846926279
12846935983
12846945993
12846957590
12846966867
12846979074
12846987375
12846994699
12847002695
12847010934
12847017343
12847023569
12847030038
12847036508
12847041879
12847048837
12847053903
12847063852
12847071176
12847078622
12847085458
12847091867
12847098153
12847105905
12847116464
12847123361
12847130258
12847139596
12847148690
12847154855
12847161019
12847165658
12847173043
12847179696
12847184457
12847190377
12847196115
12847204598
12847210580
12847218514
12847224191
12847230782
12847236398
12847244515
12847250985
12847257638
12847263253
12847270150
12847276070
12847281869
12847287606
12847294015
12847300667
12847308297
12847314400
12847321236
12847326913
12847333260
12847340157
12847345528
12847353341
12847359200
12847365365
12847370858
12847378548
12847383858
12847391488
12847397408
12847407357
12847414620
12847422860
12847430306
12847437630
12847443489
12847452217
12847458748
12847467171
12847472115
12847478279
12847484566
12847491707
12847497444
12847505318
12847511421
12847517708
12847523445
12847530769
12847536629
12847543343
12847551826
12847559090
12847564583
12847571663
12847577949
12847584358
12847592842
12847601326
12847607002
12847614326
12847620125
12847626228
12847632149
12847641243
12847649299
12847656807
12847661567
12847667976
12847673347
12847678535
12847683540
12847689033
12847694526
12847700203
12847705635
12847711250
12847718269
12847724372
12847728706
12847734077
12847740486
12847746772
12847753486
12847758308
12847761360
12847768623
12847773261
12847779365
12847783576
12847787361
12847792243
12847795966
12847800849
12847804939
12847810859
12847815620
12847820197
12847825080
12847830146
12847834174
12847839484
12847843513
12847849006
12847853156
12847858833
12847863227
12847867744
12847872077
12847877998
12847883063
12847888862
12847893317
12847900275
12847905158
12847910834
12847917060
12847920783
12847926459
12847931891
12847938483
12847945441
12847949592
12847955634
12847961677
12847966681
12847972113
12847978705
12847985175
12847992987
12847999213
12848004584
12848009223
12848014411
12848019416
12848024970
12848029914
12848035346
12848043158
12848048468
12848053229
12848059394
12848063666
12848068732
12848074774
12848080817
12848087775
12848094061
12848097907
12848104193
12848110419
12848116644
12848121344
12848129096
12848134528
12848141364
12848147162
12848151801
12848158087
12848162726
12848167364
12848172919
12848177740
12848183661
12848188910
12848192511
12848198248
12848203558
12848208685
12848214545
12848219916
12848226935
12848232794
12848237127
12848242926
12848248907
12848253302
12848258429
12848264288
12848272833
12848278570
12848285162
12848292486
12848297003
12848305059
12848312323
12848317327
12848325567
12848330816
12848335516
12848340887
12848345281
12848350897
12848355230
12848361273
12848368109
12848373724
12848380010
12848385076
12848390325
12848395086
12848401067
12848405889
12848411627
12848416692
12848422369
12848427068
12848432500
12848436651
12848441900
12848448248
12848453741
12848461797
12848467351
12848474187
12848480840
12848490667
12848497686
12848503667
12848509954
12848519781
12848524724
12848533697
12848540288
12848547735
12848554143
12848562322
12848568670
12848577703
12848585149
12848593206
12848604741
12848610906
12848618474
12848625493
12848634954
12848641606
12848649053
12848655339
12848663884
12848670476
12848678288
12848684941
12848697026
12848701787
12848711064
12848718327
12848724370
12848730656
12848737798
12848743657
12848755437
12848763127
12848770268
12848777043
12848783269
12848790288
12848797002
12848804631
12848813359
12848819279
12848827397
12848833317
12848842167
12848849858
12848856083
12848867924
12848874028
12848880619
12848888920
12848893803
12848902592
12848910038
12848916264
12848925968
12848933720
12848940861
12848949406
12848959172
12848969120
12848979740
12848989079
12848998295
12849006107
12849015751
12849023258
12849031132
12849038578
12849047367
12849054203
12849059269
12849065494
12849073734
12849078068
12849086674
12849095524
12849104130
12849112552
12849120121
12849126285
12849132938
12849142521
12849150760
12849158085
12849165226
12849172062
12849179508
12849188236
12849196903
12849203006
12849213138
12849220035
12849227726
12849234134
12849243045
12849249454
12849255985
12849262576
12849273929
12849281741
12849289249
12849296390
12849302676
12849311710
12849319766
12849326297
12849335452
12849344180
12849350284
12849357974
12849363406
12849370425
12849378116
12849388370
12849394900
12849401980
12849407962
12849415225
12849421512
12849428714
12849436770
12849444400
12849451297
12849461123
12849468448
12849476077
12849483706
12849490481
12849498355
12849507022
12849512942
12849520877
12849528628
12849537173
12849544619
12849551760
12849557742
12849566836
12849574954
12849581179
12849588870
12849595767
12849603213
12849611208
12849617434
12849626589
12849634646
12849639956
12849646853
12849653933
12849661196
12849667483
12849677309
12849688235
12849696963
12849707705
12849717470
12849725771
12849733278
12849742312
12849749209
12849757204
12849764467
12849771853
12849779299
12849786318
12849798220
12849802248
12849808535
12849814150
12849819338
12849825624
12849831606
12849835268
12849842775
12849848451
12849853639
12849856996
12849864076
12849869386
12849874452
12849880251
12849886171
12849892030
12849897707
12849903444
12849908388
12849914980
12849919130
12849922975
12849930727
12849935426
12849941164
12849946657
12849952455
12849956422
12849960817
12849966859
12849973512
12849979127
12849985048
12849993471
12849999147
12850004213
12850008302
12850013978
12850018678
12850024354
12850029970
12850035096
12850039674
12850045411
12850050294
12850056276
12850062379
12850067933
12850073488
12850077577
12850084108
12850087403
12850093690
12850098756
12850106324
12850111695
12850117738
12850122743
12850126344
12850131837
12850137635
12850142762
12850148866
12850154420
12850161378
12850166261
12850171937
12850178163
12850182374
12850188661
12850193421
12850200257
12850204591
12850210938
12850216859
12850221742
12850227052
12850231507
12850237794
12850243836
12850248231
12850254273
12850260743
12850266358
12850273072
12850279053
12850286317
12850293030
12850299256
12850305970
12850310364
12850317994
12850323853
12850328675
12850335999
12850341370
12850346802
12850351319
12850355530
12850363465
12850367432
12850373047
12850379273
12850385987
12850391785
12850397461
12850403443
12850408081
12850412842
12850419007
12850424195
12850431031
12850436829
12850442688
12850448853
12850454163
12850459534
12850463196
12850470276
12850475342
12850483826
12850488464
12850495056
12850500549
12850506226
12850511719
12850517151
12850520752
12850529724
12850535522
12850540527
12850545227
12850551392
12850556518
12850562927
12850567932
12850574890
12850580688
12850586182
12850592407
12850597900
12850603393
12850608825
12850614075
12850619873
12850626159
12850632385
12850640320
12850645263
12850654907
12850662414
12850669922
12850677551
12850686157
12850694397
12850702026
12850709045
12850717285
12850724792
12850733337
12850740661
12850749023
12850756652
12850766418
12850773864
12850783935
12850792968
12850801635
12850810180
12850817138
12850824706
12850833373
12850841491
12850849914
12850858581
12850866943
12850875243
12850882262
12850890380
12850898314
12850906493
12850915893
12850920836
12850931029
12850939635
12850951842
12850960448
12850969237
12850975829
12850985289
12850991088
12851002928
12851008300
12851018065
12851027098
12851034056
12851040465
12851048888
12851057982
12851064574
12851073729
12851081786
12851089781
12851097838
12851105040
12851112486
12851119994
12851128050
12851136168
12851144408
12851152891
12851157896
12851167784
12851175047
12851182005
12851188902
12851197020
12851203184
12851212462
12851220946
12851231749
12851243162
12851251341
12851262877
12851270445
12851278807
12851285337
12851291258
12851299314
12851306028
12851312010
12851319395
12851325254
12851334837
12851341856
12851349729
12851357115
12851365049
12851371519
12851377928
12851384763
12851391660
12851399473
12851406614
12851412840
12851418272
12851425535
12851433286
12851439573
12851445615
12851454832
12851461484
12851467161
12851473264
12851479673
12851487668
12851494504
12851501523
12851509580
12851516843
12851523252
12851530515
12851538389
12851546018
12851552854
12851559751
12851568479
12851575864
12851581418
12851588681
12851596372
12851601926
12851611020
12851616513
12851624631
12851631955
12851638913
12851645871
12851653378
12851660581
12851667539
12851674985
12851682248
12851689511
12851696103
12851704648
12851714963
12851723935
12851735104
12851742429
12851750851
12851758054
12851765805
12851773984
12851784299
12851790768
12851798520
12851804440
12851811825
12851821225
12851826046
12851834958
12851843014
12851850277
12851857480
12851863522
12851870480
12851878476
12851885250
12851891537
12851900570
12851908017
12851915402
12851922665
12851929989
12851938229
12851945309
12851951534
12851958737
12851966061
12851972836
12851981197
12851986569
12851995724
12852002194
12852009579
12852013851
12852019833
12852023983
12852029049
12852034420
12852039425
12852045528
12852052303
12852058468
12852064510
12852069271
12852075558
12852082271
12852086971
12852093014
12852100094
12852104793
12852109920
12852115841
12852120540
12852127437
12852131954
12852137386
12852143306
12852148616
12852152950
12852158687
12852165035
12852170284
12852175655
12852180660
12852184444
12852192073
12852197628
12852203487
12852209285
12852216304
12852221431
12852226985
12852232723
12852241084
12852246028
12852252681
12852258785
12852263667
12852268977
12852275142
12852280513
12852288570
12852293819
12852297847
12852305415
12852309688
12852316463
12852323421
12852328242
12852334712
12852340877
12852350398
12852356197
12852364192
12852369868
12852375117
12852382808
12852390132
12852395259
12852401118
12852406978
12852412532
12852416865
12852422786
12852428096
12852433040
12852436885
12852441462
12852446956
12852454158
12852460444
12852465693
12852470454
12852477229
12852482844
12852488765
12852494136
12852500300
12852505610
12852512568
12852517634
12852521357
12852529963
12852533930
12852540644
12852546321
12852553645
12852558222
12852563838
12852570551
12852576777
12852583613
12852587946
12852594172
12852598383
12852606501
12852610285
12852616145
12852622126
12852630061
12852636286
12852643305
12852650751
12852655878
12852662653
12852669245
12852675165
12852681818
12852687250
12852692560
12852697931
12852702021
12852706965
12852712824
12852717463
12852722895
12852728205
12852731745
12852737543
12852745112
12852749384
12852753351
12852759760
12852766169
12852772272
12852777887
12852782892
12852787958
12852794916
12852798944
12852804193
12852810663
12852816400
12852822199
12852828058
12852833795
12852838312
12852843500
12852848810
12852853266
12852860712
12852868463
12852873651
12852882623
12852887628
12852896600
12852902094
12852910333
12852918695
12852925470
12852933466
12852941034
12852948541
12852959466
12852971551
12852980768
12852991754
12853001214
12853008783
12853018731
12853026239
12853035638
12853043206
12853053399
12853060601
12853068170
12853074823
12853083367
12853092096
12853098260
12853105950
12853114556
12853123040
12853128594
12853137383
12853141961
12853151788
12853156487
12853166436
12853174004
12853181329
12853188165
12853195428
12853202081
12853209405
12853217889
12853222894
12853230584
12853238274
12853246270
12853253716
12853261773
12853269890
12853275933
12853283623
12853291314
12853299798
12853308770
12853316338
12853322991
12853330742
12853338250
12853346428
12853355278
12853364922
12853373406
12853381096
12853388237
12853396477
12853404106
12853412712
12853419914
12853427849
12853436211
12853443291
12853449944
12853457207
12853463616
12853470390
12853477165
12853486504
12853493279
12853501640
12853510002
12853514702
12853523003
12853529961
12853537102
12853545891
12853554924
12853562187
12853569572
12853577324
12853585075
12853592155
12853598564
12853608635
12853614616
12853623466
12853630241
12853638908
12853646171
12853655082
12853661857
12853672172
12853678459
12853684867
12853695365
12853701896
12853711601
12853717948
12853728324
12853737235
12853746452
12853752067
12853763175
12853773185
12853785697
12853793815
12853803092
12853811210
12853817313
12853825065
12853833793
12853843253
12853850150
12853858756
12853866080
12853874869
12853881461
12853889579
12853896049
12853900748
12853911063
12853916984
12853927665
12853932670
12853941520
12853948905
12853957145
12853964896
12853972831
12853981009
12853989676
12853997428
12854003287
12854010001
12854016837
12854023917
12854031119
12854038687
12854046683
12854054007
12854059805
12854066641
12854075613
12854082022
12854086844
12854095938
12854107108
12854114066
12854118948
12854133719
12854145193
12854152762
12854159659
12854170096
12854176504
12854185538
12854193106
12854200125
12854207632
12854215750
12854223379
12854230642
12854238150
12854246939
12854254751
12854261343
12854268545
12854274893
12854279592
12854287161
12854293386
12854298330
12854303762
12854309133
12854315481
12854321035
12854324575
12854330313
12854334890
12854340566
12854346060
12854352834
12854358755
12854364980
12854369802
12854377432
12854382070
12854385549
12854390981
12854397329
12854402944
12854409231
12854415884
12854422720
12854427236
12854432607
12854437856
12854442434
12854449148
12854455923
12854461294
12854467763
12854472585
12854480764
12854485219
12854491445
12854496328
12854501272
12854505666
12854511648
12854518239
12854522268
12854529531
12854533254
12854539541
12854543264
12854547963
12854553090
12854558339
12854563161
12854568837
12854572438
12854579152
12854582875
12854589589
12854595327
12854602285
12854609120
12854614492
12854620778
12854629140
12854635488
12854640859
12854647817
12854652944
12854658803
12854663686
12854668996
12854674001
12854680409
12854687550
12854691945
12854699757
12854705312
12854709706
12854715565
12854722523
12854727467
12854734120
12854740102
12854751515
12854754445
12854761220
12854766652
12854771046
12854777760
12854782521
12854790333
12854795033
12854801930
12854806569
12854812184
12854817860
12854823170
12854828785
12854833180
12854839405
12854844716
12854849720
12854854786
12854860340
12854865895
12854871632
12854877369
12854881703
12854887196
12854891835
12854897450
12854903919
12854907765
12854915272
12854920338
12854926319
12854930958
12854937672
12854943653
12854947682
12854953114
12854959400
12854965565
12854971668
12854976612
12854982960
12854988758
12854992542
12854998158
12855003651
12855010426
12855015186
12855022999
12855029041
12855033741
12855039905
12855046741
12855051807
12855058399
12855065113
12855071705
12855076649
12855082142
12855087208
12855092457
12855098133
12855103931
12855108570
12855114734
12855123584
12855130726
12855143421
12855150989
12855157642
12855165088
12855172901
12855181079
12855187793
12855195301
12855203052
12855210132
12855217578
12855225086
12855232349
12855240222
12855247852
12855255725
12855263233
12855270618
12855275684
12855281787
12855289844
12855296619
12855306018
12855312976
12855320300
12855326343
12855336291
12855343433
12855351977
12855360950
12855368213
12855375903
12855386462
12855396594
12855406054
12855412585
12855420764
12855429614
12855434924
12855443408
12855450610
12855457995
12855465258
12855472644
12855478503
12855486621
12855494616
12855501208
12855509265
12855517321
12855524890
12855533129
12855542040
12855548998
12855556933
12855563647
12855572192
12855579882
12855587939
12855596362
12855603869
12855611681
12855619433
12855627001
12855635424
12855641222
12855649706
12855655749
12855664843
12855672472
12855681322
12855686388
12855695360
12855703844
12855710985
12855719774
12855726976
12855735765
12855742968
12855752855
12855761583
12855770189
12855776537
12855787279
12855796862
12855805101
12855814012
12855821703
12855830492
12855839037
12855846056
12855854601
12855862047
12855870287
12855878404
12855885179
12855892809
12855901170
12855907091
12855915697
12855923570
12855930772
12855938341
12855945238
12855953294
12855960802
12855968431
12855975389
12855983140
12855989976
12855997423
12856005784
12856012559
12856021165
12856029344
12856036546
12856046067
12856053758
12856062364
12856073960
12856080796
12856087998
12856095750
12856103318
12856110520
12856119432
12856127305
12856137315
12856146592
12856153733
12856161240
12856168809
12856176316
12856182786
12856190476
12856196641
12856203660
12856213547
12856221116
12856227402
12856235825
12856242112
12856252000
12856258713
12856266526
12856274521
12856284043
12856290268
12856298447
12856307358
12856316330
12856322800
12856332322
12856338730
12856347031
12856355332
12856363144
12856371567
12856379990
12856385117
12856394943
12856402268
12856410568
12856417221
12856425278
12856433396
12856442063
12856451645
12856457626
12856465927
12856474167
12856481186
12856487106
12856492172
12856498032
12856506454
12856512070
12856518051
12856522324
12856529587
12856535446
12856542343
12856548691
12856556320
12856563095
12856569809
12856575241
12856580673
12856584945
12856589096
12856595688
12856602340
12856609298
12856613022
12856618881
12856624984
12856629562
12856635910
12856641403
12856647079
12856652877
12856658004
12856664047
12856670028
12856674606
12856679916
12856685409
12856692123
12856697494
12856702926
12856708053
12856712875
12856719100
12856725326
12856729293
12856736251
12856742843
12856747970
12856754623
12856760116
12856765487
12856770858
12856777145
12856782394
12856788070
12856792831
12856798568
12856804610
12856811813
12856817001
12856822738
12856829757
12856835921
12856842025
12856848678
12856852584
12856858260
12856865096
12856871322
12856875899
12856882186
12856889022
12856894027
12856899947
12856905929
12856910201
12856917647
12856921676
12856929549
12856934920
12856940657
12856946212
12856950606
12856958480
12856962569
12856969954
12856974166
12856980330
12856987288
12856992842
12856999068
12857005232
12857011519
12857016890
12857020918
12857028060
12857033370
12857038924
12857044112
12857050765
12857055586
12857061568
12857066390
12857073286
12857078535
12857084883
12857089827
12857096846
12857102888
12857106795
12857114180
12857121077
12857129317
12857135847
12857143477
12857150435
12857158491
12857162459
12857170454
12857175886
12857180220
12857186079
12857190474
12857197126
12857202131
12857208662
12857213423
12857217817
12857223555
12857231611
12857237654
12857241255
12857246687
12857250959
12857258406
12857263655
12857267744
12857274824
12857280683
12857286543
12857292463
12857297895
12857302046
12857307844
12857312605
12857317549
12857323408
12857329084
12857335554
12857340254
12857343794
12857350263
12857356855
12857361982
12857369856
12857377973
12857385969
12857393354
12857401350
12857408124
12857415693
12857426496
12857435895
12857445722
12857454999
12857463300
12857471113
12857478559
12857485578
12857493879
12857502240
12857510053
12857516767
12857524213
12857531110
12857537763
12857542707
12857553510
12857561628
12857568830
12857577619
12857584272
12857591229
12857597272
12857605084
12857613629
12857621442
12857629926
12857635907
12857644513
12857652142
12857659345
12857666974
12857673505
12857681622
12857689923
12857697919
12857705060
12857713299
12857720868
12857728619
12857736127
12857746564
12857753705
12857762189
12857769147
12857776715
12857783307
12857789898
12857797894
12857804608
12857815045
12857824994
12857835247
12857842755
12857850506
12857861554
12857870282
12857880474
12857888714
12857894757
12857904461
12857911114
12857919110
12857927654
12857936382
12857942974
12857950726
12857957867
12857965740
12857972942
12857981243
12857987774
12857996075
12858002056
12858009380
12858017437
12858024883
12858033306
12858038250
12858047100
12858054546
12858061077
12858068950
12858078045
12858085613
12858092632
12858098125
12858106548
12858114971
12858122539
12858130474
12858137615
12858145000
12858153667
12858161174
12858170024
12858177471
12858187541
12858194683
12858203166
12858211223
12858217143
12858227947
12858236858
12858245464
12858254863
12858262676
12858272136
12858279582
12858287028
12858295268
12858301982
12858308208
12858318095
12858325786
12858333415
12858338420
12858348002
12858354655
12858362102
12858368083
12858376140
12858382548
12858389384
12858395854
12858404765
12858411235
12858418010
12858423442
12858433329
12858440409
12858448283
12858454692
12858462016
12858469584
12858477580
12858484416
12858491984
12858500651
12858508769
12858515238
12858522563
12858528727
12858536479
12858543253
12858549723
12858559061
12858566325
12858574198
12858580851
12858590067
12858599223
12858609965
12858626078
12858634867
12858643229
12858650919
12858659769
12858667582
12858674540
12858682352
12858689615
12858697306
12858703287
12858710611
12858719156
12858724710
12858733011
12858741190
12858749247
12858754435
12858760782
12858764566
12858770731
12858774698
12858780252
12858785684
12858790628
12858795633
12858801065
12858806192
12858810282
12858813516
12858820902
12858826151
12858831094
12858836221
12858840799
12858844949
12858848428
12858853311
12858858377
12858863626
12858868387
12858872354
12858877115
12858882303
12858885294
12858891519
12858899332
12858906106
12858911172
12858915811
12858922037
12858925394
12858931192
12858935770
12858942544
12858946145
12858953042
12858958352
12858962076
12858967508
12858973672
12858980142
12858985818
12858991189
12858996438
12859001565
12859005899
12859010904
12859017068
12859022317
12859027688
12859033242
12859037271
12859041665
12859048257
12859052774
12859058450
12859062356
12859070840
12859075662
12859079019
12859085855
12859089578
12859095986
12859101785
12859107583
12859111978
12859119058
12859124246
12859128945
12859133889
12859139077
12859144021
12859149026
12859154214
12859159585
12859166116
12859172707
12859179360
12859187356
12859193887
12859199990
12859208047
12859212380
12859220010
12859223550
12859230385
12859234536
12859241189
12859246560
12859250954
12859256203
12859262002
12859268349
12859274331
12859280129
12859284218
12859290383
12859296120
12859302468
12859306618
12859312416
12859319252
12859324257
12859331093
12859335976
12859343727
12859347512
12859353615
12859358742
12859362709
12859370766
12859377053
12859381691
12859386452
12859394020
12859398537
12859405800
12859411720
12859417214
12859422341
12859428200
12859434548
12859439980
12859444008
12859450111
12859454445
12859463905
12859469765
12859474648
12859479774
12859487282
12859494362
12859498817
12859504677
12859511330
12859517433
12859521889
12859528175
12859531898
12859539528
12859546242
12859550941
12859556007
12859561073
12859569618
12859578163
12859585426
12859593788
12859604225
12859609535
12859618263
12859626686
12859633827
12859641883
12859650001
12859658668
12859666786
12859674049
12859683143
12859690467
12859699806
12859707130
12859712379
12859720497
12859728675
12859736366
12859745094
12859752601
12859760780
12859768836
12859777564
12859784156
12859791297
12859802039
12859807471
12859816566
12859823157
12859832374
12859839149
12859848426
12859857886
12859864722
12859875831
12859883216
12859892554
12859899634
12859910010
12859915809
12859925208
12859932898
12859942359
12859949561
12859958655
12859966040
12859974524
12859980506
12859988135
12859995947
12860001563
12860010962
12860016577
12860025244
12860032935
12860040015
12860047766
12860054663
12860062231
12860070715
12860078040
12860085547
12860093176
12860099585
12860107092
12860116247
12860124914
12860132849
12860140784
12860147436
12860155127
12860163183
12860167944
12860177710
12860184790
12860196692
12860204565
12860212439
12860220495
12860227880
12860233679
12860242102
12860255224
12860265112
12860274999
12860280310
12860291540
12860298803
12860304724
12860312536
12860320776
12860328893
12860337194
12860345617
12860353246
12860360387
12860369970
12860377477
12860386388
12860393468
12860401891
12860408544
12860416662
12860423315
12860432104
12860439123
12860448705
12860455602
12860463170
12860471593
12860479039
12860485326
12860492589
12860498998
12860506505
12860515050
12860522618
12860529576
12860537389
12860545140
12860552404
12860559301
12860566625
12860573644
12860581456
12860589879
12860597630
12860604405
12860611424
12860620397
12860627843
12860635289
12860642430
12860651036
12860661412
12860668614
12860675328
12860684972
12860691930
12860704320
12860711278
12860719762
12860727635
12860734349
12860741612
12860749852
12860754613
12860762974
12860769505
12860779027
12860786412
12860792820
12860799778
12860807408
12860816929
12860824070
12860832371
12860838536
12860846775
12860853855
12860860142
12860867771
12860874485
12860882176
12860890843
12860896214
12860905247
12860912571
12860918919
12860926731
12860934177
12860942051
12860950230
12860957676
12860964207
12860971653
12860979343
12860987400
12860995090
12861002415
12861008457
12861013950
12861019932
12861023411
12861030063
12861035740
12861042820
12861048008
12861054538
12861059482
12861064548
12861069553
12861075412
12861081516
12861086460
12861090610
12861097019
12861101047
12861107334
12861112033
12861117588
12861123386
12861128940
12861133518
12861139438
12861144809
12861150730
12861156772
12861162937
12861167697
12861172702
12861179538
12861183505
12861192478
12861197116
12861202304
12861208652
12861213352
12861219821
12861224399
12861231784
12861237888
12861243686
12861249118
12861254428
12861260471
12861267245
12861271640
12861277927
12861284396
12861291476
12861297031
12861301852
12861307956
12861313266
12861318149
12861324679
12861330234
12861334140
12861346042
12861351291
12861357516
12861362765
12861368564
12861373263
12861378390
12861384738
12861389987
12861395968
12861401645
12861406771
12861411776
12861416537
12861420993
12861427218
12861432345
12861438693
12861443209
12861448703
12861452731
12861458285
12861462557
12861469393
12861473361
12861478854
12861485690
12861489169
12861495883
12861499606
12861505282
12861511447
12861517428
12861523348
12861528841
12861534457
12861539340
12861545138
12861551058
12861554537
12861561495
12861566500
12861573031
12861578524
12861583834
12861588778
12861594637
12861603670
12861611605
12861618136
12861626559
12861630465
12861635836
12861640841
12861648348
12861653780
12861658541
12861665987
12861670931
12861675264
12861680880
12861686129
12861692659
12861697481
12861704439
12861708956
12861718294
12861722689
12861726229
12861734652
12861741243
12861746126
12861752840
12861757845
12861762117
12861766695
12861772188
12861777254
12861782747
12861788606
12861792696
12861798738
12861803926
12861808443
12861814607
12861818758
12861823702
12861829439
12861835909
12861840425
12861846407
12861854768
12861862032
12861868196
12861875642
12861883089
12861894075
12861902009
12861907991
12861917695
12861926607
12861934053
12861942720
12861953462
12861961763
12861969026
12861977327
12861986116
12861993379
12861999971
12862006868
12862014863
12862021272
12862030244
12862036714
12862045625
12862052461
12862060151
12862066743
12862075593
12862082612
12862091523
12862098176
12862106416
12862114533
12862122529
12862130158
12862138520
12862145783
12862153962
12862161530
12862169831
12862177338
12862184602
12862193574
12862200532
12862208405
12862214997
12862224396
12862233674
12862239350
12862247407
12862255707
12862264863
12862273102
12862279389
12862287079
12862295929
12862301972
12862310517
12862319245
12862326020
12862334259
12862344086
12862352082
12862361481
12862368622
12862376923
12862384247
12862392548
12862401520
12862409332
12862415985
12862426239
12862432953
12862441254
12862450043
12862458038
12862465912
12862474152
12862481720
12862489777
12862497528
12862506317
12862513092
12862520660
12862530548
12862537689
12862546173
12862553192
12862562164
12862568390
12862576507
12862585296
12862593536
12862601532
12862607391
12862615631
12862623931
12862631500
12862639801
12862647796
12862655731
12862662078
12862669036
12862678924
12862686065
12862692108
12862700652
12862708648
12862717864
12862724456
12862733672
12862741790
12862749664
12862758697
12862767120
12862778045
12862789580
12862799224
12862808684
12862815703
12862825042
12862831817
12862838592
12862844390
12862851653
12862860869
12862866179
12862875823
12862885161
12862892913
12862902617
12862908782
12862916106
12862922881
12862930327
12862938506
12862946623
12862953948
12862961272
12862968535
12862976225
12862983122
12862990325
12862997588
12863004118
12863013762
12863021147
12863028655
12863035613
12863042876
12863049284
12863058318
12863064787
12863072722
12863080046
12863089201
12863095671
12863105620
12863112028
12863120085
12863128020
12863136748
12863147062
12863155913
12863162077
12863169645
12863178801
12863186613
12863193388
12863200590
12863206938
12863214323
12863222013
12863230009
12863237333
12863244718
12863252043
12863259550
12863268278
12863275358
12863283781
12863291349
12863294828
12863302580
12863306303
12863313810
12863318876
12863324613
12863330290
12863336393
12863342069
12863348417
12863354154
12863358610
12863363615
12863377653
12863382291
12863388944
12863394559
12863399137
12863404081
12863407621
12863416837
12863422513
12863428800
12863432401
12863438444
12863444181
12863450101
12863455594
12863461332
12863467740
12863472501
12863477994
12863484403
12863490934
12863497220
12863503751
12863510526
12863515165
12863523709
12863530423
12863535794
12863540738
12863545255
12863549954
12863554288
12863559659
12863566373
12863572415
12863577481
12863582913
12863587735
12863592740
12863598844
12863603848
12863610562
12863615933
12863621732
12863626614
12863632535
12863637418
12863643460
12863649503
12863654019
12863659756
12863665494
12863671902
12863675320
12863681607
12863686368
12863692715
12863697537
12863704800
12863711392
12863715359
12863722317
12863727749
12863732815
12863738431
12863743802
12863752163
12863758267
12863762906
12863768765
12863774380
12863779202
12863784878
12863790982
12863798306
12863805447
12863810513
12863816616
12863821926
12863825527
12863832913
12863836758
12863842800
12863849697
12863857266
12863860806
12863867703
12863873379
12863878750
12863884426
12863889004
12863894924
12863901272
12863907681
12863912747
12863917568
12863924709
12863930203
12863936489
12863940884
12863947414
12863953823
12863959927
12863964382
12863970730
12863975124
12863981228
12863987331
12863992092
12863998257
12864002651
12864009426
12864015224
12864019619
12864024563
12864031154
12864036403
12864043606
12864048977
12864054836
12864059414
12864064907
12864071560
12864077480
12864084133
12864089565
12864095790
12864104274
12864108791
12864115322
12864120632
12864126796
12864133510
12864139736
12864145290
12864150600
12864155178
12864160854
12864166713
12864173671
12864179530
12864186000
12864196315
12864204555
12864212978
12864220241
12864226772
12864235744
12864241359
12864250148
12864258815
12864268825
12864274196
12864283473
12864292018
12864298366
12864307033
12864316493
12864322474
12864332118
12864340175
12864347438
12864355861
12864363246
12864370326
12864379115
12864386866
12864395472
12864402491
12864412257
12864419947
12864425257
12864436122
12864441432
12864451380
12864457789
12864467127
12864478297
12864488734
12864494166
12864502589
12864510645
12864518336
12864527064
12864536768
12864542567
12864551661
12864559901
12864566981
12864575037
12864582728
12864589747
12864599573
12864607813
12864615992
12864623987
12864630701
12864638270
12864646937
12864653345
12864664515
12864670984
12864680262
12864687220
12864696009
12864703760
12864712488
12864720484
12864728784
12864737451
12864745447
12864752832
12864761499
12864769007
12864776758
12864786340
12864793543
12864801904
12864808923
12864817590
12864824487
12864832849
12864839319
12864847559
12864856470
12864864465
12864872095
12864880151
12864887781
12864897668
12864906030
12864912134
12864922510
12864930139
12864942834
12864951440
12864958459
12864967126
12864975732
12864980920
12864990380
12864998071
12865007409
12865014917
12865020043
12865031823
12865037133
12865045190
12865053491
12865062036
12865070458
12865079370
12865087365
12865099145
12865106774
12865115441
12865122399
12865131371
12865139672
12865148766
12865156396
12865164635
12865171410
12865180382
12865188378
12865195397
12865206200
12865213219
12865220788
12865228112
12865236962
12865245995
12865253441
12865260155
12865269249
12865278405
12865286766
12865293419
12865300682
12865314598
12865322045
12865330040
12865338890
12865346398
12865354576
12865361901
12865367272
12865374169
12865382774
12865388390
12865399559
12865404137
12865413658
12865421288
12865427391
12865435081
12865440880
12865450096
12865457603
12865463402
12865473289
12865480614
12865487633
12865495201
12865503258
12865509971
12865517601
12865526329
12865533897
12865540977
12865548179
12865554771
12865565025
12865572166
12865579918
12865587059
12865595298
12865604087
12865611351
12865617942
12865625083
12865629905
12865635459
12865641136
12865646507
12865651328
12865657554
12865663169
12865672080
12865678672
12865685203
12865690208
12865697044
12865703697
12865710105
12865715659
12865721030
12865725303
12865730613
12865735618
12865739829
12865744529
12865749595
12865756187
12865761375
12865767356
12865772239
12865778281
12865783897
12865788230
12865795188
12865800254
12865806907
12865813682
12865818809
12865824729
12865829368
12865835410
12865840720
12865847983
12865854270
12865860312
12865866050
12865871421
12865878135
12865882529
12865888572
12865893760
12865900534
12865904441
12865910971
12865917441
12865922751
12865928183
12865934287
12865940329
12865948325
12865954367
12865960715
12865966330
12865972739
12865978720
12865982749
12865988486
12865995444
12866000388
12866006979
12866013327
12866019003
12866024558
12866029623
12866036337
12866040121
12866047385
12866054037
12866058798
12866064047
12866070090
12866075339
12866079916
12866086386
12866093344
12866098837
12866105063
12866110373
12866116415
12866122152
12866126120
12866129782
12866138144
12866145163
12866150229
12866155600
12866160788
12866168234
12866172934
12866177755
12866185690
12866190756
12866197592
12866203634
12866209616
12866213644
12866220358
12866225851
12866231100
12866236654
12866243551
12866249044
12866255758
12866262350
12866266927
12866273641
12866278768
12866287008
12866295309
12866305319
12866311849
12866315328
12866321737
12866326864
12866332174
12866336996
12866344686
12866349447
12866355062
12866359945
12866365804
12866370870
12866374959
12866382528
12866389608
12866394369
12866398092
12866405477
12866409566
12866417135
12866422994
12866427022
12866434713
12866439351
12866446554
12866451497
12866455526
12866463521
12866467977
12866474691
12866480672
12866485860
12866492086
12866501546
12866509603
12866515950
12866523824
12866532430
12866540731
12866549336
12866557515
12866564595
12866572469
12866581685
12866589009
12866598103
12866606770
12866611958
12866623677
12866628865
12866638081
12866646687
12866654622
12866662617
12866670552
12866677144
12866685750
12866693745
12866702778
12866707844
12866716633
12866723652
12866732808
12866742512
12866750508
12866757588
12866766560
12866773640
12866782124
12866791279
12866799519
12866806599
12866815632
12866824787
12866831990
12866841084
12866848408
12866855549
12866865009
12866871906
12866881184
12866887592
12866896320
12866903706
12866908894
12866918720
12866928425
12866935383
12866945270
12866952412
12866960590
12866967731
12866977070
12866983967
12866992573
12867000202
12867011738
12867019428
12867029133
12867036457
12867046467
12867054279
12867063434
12867070636
12867079975
12867086689
12867095966
12867102924
12867112506
12867119770
12867128009
12867135150
12867146137
12867152973
12867160724
12867170673
12867180499
12867187335
12867196979
12867204303
12867213092
12867220355
12867229327
12867236591
12867241779
12867253192
12867258624
12867268268
12867276691
12867283771
12867291461
12867300128
12867307696
12867314166
12867321490
12867327899
12867335956
12867345599
12867353045
12867360858
12867365802
12867375872
12867384112
12867391864
12867399188
12867408831
12867416644
12867426531
12867431780
12867442828
12867450457
12867459429
12867468463
12867477435
12867485369
12867492266
12867499712
12867504900
12867517168
12867523455
12867532061
12867540545
12867547381
12867555010
12867560869
12867568438
12867575274
12867584917
12867591143
12867599261
12867605913
12867613360
12867621904
12867630205
12867637590
12867645647
12867653399
12867661821
12867670488
12867679155
12867687090
12867692339
12867702104
12867709795
12867717852
12867725115
12867731401
12867739214
12867747759
12867755937
12867763872
12867771562
12867779558
12867786699
12867796098
12867803728
12867811784
12867819231
12867827104
12867836137
12867844743
12867852983
12867860795
12867867204
12867878251
12867884721
12867896623
12867902788
12867908586
12867916459
12867924577
12867933854
12867940873
12867949418
12867956132
12867964128
12867969865
12867974748
12867980424
12867985795
12867989274
12867995622
12868001115
12868008622
12868012345
12868019486
12868023027
12868029435
12868034684
12868039750
12868044206
12868048722
12868056230
12868061723
12868066483
12868071244
12868078568
12868083329
12868090104
12868094193
12868098466
12868104386
12868109147
12868114152
12868121537
12868125443
12868131669
12868135697
12868142106
12868147294
12868154618
12868159440
12868165299
12868170182
12868176407
12868181901
12868186722
12868192032
12868196610
12868201920
12868211930
12868216080
12868223160
12868227799
12868231217
12868236710
12868242020
12868247452
12868254960
12868259964
12868267228
12868272110
12868277237
12868282181
12868288468
12868293167
12868298905
12868305619
12868310318
12868315628
12868321182
12868326798
12868331803
12868338089
12868343765
12868350662
12868356705
12868362381
12868368424
12868373673
12868380264
12868385758
12868391800
12868396622
12868402664
12868408524
12868413712
12868419876
12868425735
12868429703
12868437210
12868443436
12868451309
12868458511
12868463760
12868471268
12868477676
12868483597
12868489334
12868494949
12868500442
12868504593
12868509659
12868515213
12868520767
12868526321
12868532547
12868539138
12868543777
12868549148
12868554641
12868560623
12868565200
12868570449
12868577224
12868584304
12868589920
12868595962
12868600173
12868606094
12868610916
12868615310
12868621963
12868627883
12868633560
12868637771
12868643569
12868649856
12868654189
12868659377
12868665054
12868668838
12868676406
12868681960
12868687454
12868691665
12868698440
12868702895
12868709548
12868714736
12868721267
12868725600
12868734939
12868739272
12868747085
12868752395
12868756667
12868761611
12868768020
12868772964
12868778274
12868783278
12868787612
12868793166
12868799087
12868806960
12868815139
12868822463
12868830764
12868837294
12868844985
12868852248
12868859999
12868867324
12868875441
12868885268
12868893508
12868900588
12868908217
12868913771
12868920546
12868929824
12868936598
12868945815
12868952834
12868957839
12868965712
12868973219
12868982314
12868987441
12868996535
12869005507
12869012953
12869020949
12869028639
12869036330
12869043166
12869050673
12869058058
12869067030
12869074843
12869082899
12869090040
12869095289
12869106520
12869111464
12869122389
12869129591
12869139296
12869146864
12869157667
12869165724
12869171034
12869180311
12869186232
12869193556
12869200453
12869209608
12869215650
12869222975
12869231092
12869239271
12869248853
12869258131
12869265272
12869273023
12869280103
12869287183
12869294019
12869302625
12869308912
12869319898
12869325880
12869334241
12869339918
12869347547
12869355115
12869362867
12869369153
12869377820
12869385755
12869394117
12869401197
12869407483
12869416089
12869424268
12869430738
12869437513
12869446912
12869454602
12869462781
12869470533
12869479444
12869486829
12869495801
12869504224
12869512219
12869519055
12869527783
12869534131
12869543042
12869551404
12869559339
12869566724
12869576306
12869582044
12869591016
12869598645
12869603711
12869612378
12869620007
12869628735
12869635632
12869643384
12869651501
12869659436
12869666211
12869674145
12869681470
12869689587
12869696850
12869705090
12869712475
12869721508
12869733654
12869742016
12869756298
12869767468
12869778088
12869789501
12869798901
12869809704
12869820202
12869828991
12869838207
12869844921
12869852795
12869860851
12869867077
12869875073
12869884655
12869892956
12869898876
12869905956
12869911205
12869924145
12869935558
12869946545
12869955150
12869968944
12869978161
12869988292
12869996715
12870002086
12870009960
12870016308
12870025036
12870032604
12870038585
12870045543
12870054393
12870061596
12870069835
12870076427
12870083873
12870090221
12870094982
12870102794
12870112010
12870118602
12870125316
12870131053
12870138378
12870147289
12870152843
12870162059
12870167430
12870175792
12870181224
12870189769
12870197337
12870204173
12870211559
12870220653
12870227061
12870233287
12870238414
12870242931
12870248668
12870253612
12870259776
12870266185
12870271373
12870279429
12870285777
12870292430
12870296824
12870301402
12870307689
12870313731
12870318370
12870323497
12870327342
12870331004
12870337596
12870343394
12870347422
12870352305
12870358897
12870364573
12870368724
12870373606
12870377940
12870383616
12870388926
12870395030
12870400462
12870403575
12870409556
12870413035
12870418833
12870425059
12870431407
12870436472
12870441721
12870446360
12870449717
12870456614
12870460948
12870466929
12870470469
12870476206
12870481211
12870487620
12870491221
12870497202
12870500925
12870506602
12870510325
12870516245
12870521311
12870527842
12870532786
12870538889
12870543711
12870552195
12870558726
12870564402
12870573374
12870580942
12870587595
12870590769
12870597849
12870603525
12870607309
12870613352
12870617869
12870623423
12870628000
12870634287
12870639658
12870644968
12870652536
12870658335
12870664743
12870669748
12870676035
12870681223
12870687754
12870694162
12870701975
12870706797
12870711679
12870718881
12870723154
12870730539
12870734445
12870742807
12870748850
12870754587
12870760996
12870766245
12870772592
12870778757
12870784128
12870789133
12870796030
12870801157
12870805917
12870810861
12870814645
12870822702
12870826974
12870834909
12870842477
12870847909
12870852548
12870858041
12870861581
12870868234
12870874032
12870879526
12870884164
12870889902
12870896859
12870901071
12870906503
12870912545
12870916757
12870921823
12870928170
12870932931
12870939584
12870944284
12870947763
12870955453
12870959542
12870966256
12870970895
12870976937
12870980783
12870987008
12870992562
12870998178
12871002816
12871009164
12871013864
12871019418
12871025887
12871032845
12871040841
12871046822
12871053842
12871062203
12871068368
12871076241
12871083749
12871090463
12871099129
12871106820
12871112252
12871119759
12871129098
12871137520
12871147957
12871158639
12871165719
12871177376
12871184090
12871194832
12871203438
12871212716
12871222359
12871228890
12871236763
12871246285
12871254586
12871262642
12871267708
12871277901
12871285408
12871293953
12871301033
12871309395
12871317208
12871325386
12871331856
12871339852
12871348457
12871356514
12871365120
12871371101
12871380745
12871389046
12871397224
12871402718
12871411079
12871420601
12871427620
12871434517
12871442695
12871450691
12871458931
12871468513
12871477485
12871484566
12871494514
12871504585
12871513191
12871521187
12871529426
12871537727
12871545601
12871551582
12871560981
12871569770
12871578254
12871587532
12871596076
12871604377
12871613044
12871619697
12871628120
12871636237
12871644477
12871652107
12871660407
12871667609
12871676032
12871682868
12871691291
12871698310
12871709724
12871715888
12871724677
12871731940
12871740058
12871747809
12871756721
12871769355
12871775519
12871785773
12871790961
12871800910
12871806403
12871816535
12871823798
12871831733
12871838752
12871849433
12871857062
12871865668
12871872138
12871880194
12871887274
12871895331
12871903693
12871912116
12871920111
12871928229
12871936591
12871942267
12871952948
12871958197
12871967474
12871975287
12871984320
12871991217
12872000189
12872006903
12872017279
12872025702
12872034186
12872043402
12872052862
12872060980
12872067267
12872080389
12872088629
12872095099
12872103888
12872110907
12872122259
12872129339
12872137762
12872147955
12872154058
12872162847
12872171514
12872179632
12872185858
12872195501
12872203436
12872210699
12872217962
12872226446
12872233770
12872242376
12872248907
12872257757
12872265569
12872273687
12872283453
12872289739
12872299383
12872307378
12872314825
12872320074
12872330572
12872338872
12872346013
12872353582
12872361394
12872370489
12872376104
12872384954
12872393499
12872401067
12872409185
12872418279
12872424627
12872432195
12872440435
12872449285
12872461370
12872473271
12872481328
12872491643
12872499394
12872506597
12872511846
12872521855
12872528508
12872538152
12872543584
12872547856
12872553410
12872559514
12872565129
12872570134
12872575017
12872583318
12872588750
12872594914
12872598088
12872606633
12872611394
12872617497
12872623845
12872629033
12872635380
12872640935
12872645512
12872651921
12872657414
12872663029
12872668034
12872673649
12872680913
12872685856
12872689518
12872695378
12872707402
12872712651
12872717167
12872724247
12872730534
12872736149
12872741825
12872747685
12872753361
12872759953
12872765629
12872772160
12872775700
12872784123
12872793034
12872799931
12872805424
12872810673
12872816837
12872825138
12872829411
12872836857
12872842716
12872848637
12872854374
12872858097
12872864445
12872871159
12872876469
12872882267
12872888737
12872894291
12872901127
12872905643
12872910709
12872916752
12872922794
12872927860
12872934269
12872940494
12872946720
12872951847
12872955997
12872964115
12872968632
12872974186
12872980594
12872986515
12872991092
12872998050
12873004825
12873010318
12873013981
12873021488
12873027774
12873036197
12873040226
12873047245
12873052860
12873058414
12873062870
12873069889
12873074710
12873080997
12873086490
12873091983
12873098575
12873103519
12873111331
12873114993
12873121768
12873127994
12873134830
12873139530
12873146121
12873151920
12873158023
12873162784
12873169132
12873174686
12873181216
12873186954
12873192691
12873197452
12873203189
12873209964
12873216189
12873221805
12873226993
12873233523
12873238956
12873246341
12873251224
12873257083
12873262759
12873269839
12873274844
12873280948
12873285708
12873292544
12873297183
12873302798
12873308963
12873314883
12873320987
12873327884
12873332949
12873339297
12873346377
12873353518
12873358462
12873365237
12873373049
12873378298
12873384341
12873391238
12873397830
12873405215
12873410769
12873416079
12873430117
12873434634
12873443118
12873450320
12873456545
12873464358
12873473269
12873478701
12873490786
12873498049
12873507326
12873515993
12873523196
12873533449
12873541872
12873549563
12873557436
12873565798
12873573244
12873582705
12873589968
12873595827
12873607729
12873613344
12873623110
12873629396
12873639406
12873647829
12873655886
12873664247
12873670534
12873678835
12873686342
12873695009
12873701967
12873709413
12873717714
12873727052
12873734316
12873741090
12873749269
12873758119
12873764223
12873772768
12873781252
12873788942
12873797243
12873805116
12873813722
12873820314
12873827516
12873836610
12873843629
12873857179
12873866029
12873875062
12873880372
12873889589
12873897340
12873906068
12873913331
12873923524
12873930787
12873936464
12873947145
12873952577
12873963197
12873971376
12873978822
12873987550
12873995362
12874003846
12874011659
12874019898
12874026734
12874034303
12874043031
12874050355
12874058961
12874066285
12874075135
12874082337
12874091370
12874098023
12874107728
12874114381
12874122742
12874130982
12874139588
12874146302
12874154664
12874162598
12874171204
12874177308
12874184510
12874195008
12874202454
12874209229
12874215760
12874224427
12874233582
12874239869
12874249085
12874257752
12874266541
12874275147
12874285340
12874292053
12874300415
12874310242
12874318421
12874329651
12874337708
12874345825
12874353027
12874361328
12874369629
12874377991
12874385803
12874390991
12874401489
12874408813
12874414551
12874424011
12874430054
12874439270
12874447143
12874453369
12874462036
12874469665
12874477051
12874485656
12874493408
12874501037
12874506897
12874514892
12874523010
12874534545
12874544677
12874554382
12874561950
12874569885
12874575439
12874585754
12874595703
12874606384
12874613464
12874620910
12874628967
12874636413
12874643981
12874649596
12874657775
12874664550
12874675842
12874683715
12874692626
12874699645
12874707091
12874716369
12874724731
12874730651
12874738402
12874745605
12874753234
12874761168
12874772277
12874780211
12874790038
12874796569
12874805297
12874811278
12874818297
12874827086
12874835021
12874842406
12874850585
12874858580
12874865416
12874873290
12874881896
12874887633
12874895323
12874904296
12874911803
12874917906
12874928587
12874935118
12874942503
12874950743
12874956297
12874961913
12874966490
12874972350
12874977293
12874982603
12874987791
12874993224
12874998473
12875005003
12875011961
12875018004
12875025084
12875033385
12875039183
12875046507
12875052733
12875059080
12875065916
12875071104
12875075682
12875080320
12875085264
12875090147
12875095335
12875099730
12875104246
12875108702
12875113218
12875118406
12875122435
12875129271
12875135252
12875138731
12875145689
12875148802
12875154417
12875158750
12875164549
12875169309
12875175779
12875181700
12875185850
12875190122
12875195799
12875201536
12875206907
12875212400
12875216673
12875220884
12875226072
12875230711
12875234678
12875239622
12875248960
12875256040
12875263853
12875270200
12875280515
12875290342
12875309019
12875316953
12875324338
12875330564
12875342405
12875351316
12875359128
12875366453
12875374082
12875382261
12875389280
12875398923
12875406858
12875413999
12875421567
12875427732
12875437070
12875445676
12875454099
12875462522
12875470151
12875478391
12875484555
12875493466
12875502011
12875510312
12875520261
12875527829
12875534604
12875543515
12875551267
12875562070
12875568356
12875575681
12875585202
12875592526
12875599545
12875607053
12875616025
12875623532
12875633114
12875639035
12875648861
12875656491
12875662900
12875671261
12875676877
12875686947
12875695309
12875701474
12875712216
12875719052
12875726559
12875735714
12875742855
12875749752
12875758053
12875765316
12875774472
12875781430
12875791500
12875799191
12875806149
12875814327
12875822933
12875831539
12875838741
12875846493
12875854549
12875862362
12875871334
12875879574
12875886715
12875894405
12875905270
12875914669
12875923275
12875933040
12875941341
12875950374
12875958187
12875970028
12875978267
12875988155
12875996578
12876007869
12876017513
12876027523
12876036678
12876045101
12876053524
12876063289
12876073177
12876084773
12876093746
12876105892
12876117732
12876125667
12876135005
12876143489
12876154109
12876163142
12876173213
12876182674
12876192500
12876201045
12876210078
12876218928
12876227962
12876237178
12876246882
12876257564
12876266292
12876274348
12876286555
12876294856
12876304377
12876316584
12876327754
12876334590
12876346858
12876355830
12876366267
12876374262
12876384394
12876394587
12876406001
12876415583
12876424372
12876433955
12876442561
12876452692
12876461543
12876472285
12876482661
12876494074
12876502314
12876513911
12876521418
12876532709
12876543940
12876552912
12876563349
12876572870
12876580744
12876593317
12876602533
12876613276
12876622309
12876631037
12876640192
12876650446
12876661798
12876669977
12876680536
12876691095
12876697504
12876705194
12876712030
12876717767
12876724603
12876735162
12876740167
12876747858
12876755182
12876759943
12876768304
12876773431
12876781122
12876788202
12876794061
12876801202
12876805780
12876812738
12876818048
12876827325
12876833795
12876839898
12876846063
12876851739
12876859308
12876869256
12876877191
12876883539
12876889703
12876896112
12876901178
12876907708
12876915399
12876921868
12876927606
12876934137
12876940301
12876947442
12876953546
12876960870
12876969232
12876976556
12876985040
12876991265
12876999261
12877004083
12877011346
12877019708
12877028680
12877035516
12877041619
12877049249
12877055535
12877063348
12877073968
12877080315
12877088433
12877097100
12877103631
12877109978
12877116204
12877123528
12877131646
12877139947
12877145440
12877154046
12877162346
12877167778
12877175713
12877184807
12877193535
12877205681
12877212578
12877220208
12877228752
12877235833
12877244805
12877253166
12877261101
12877267510
12877275200
12877281243
12877289238
12877299736
12877306816
12877313652
12877320427
12877327995
12877334648
12877341301
12877348503
12877355522
12877360710
12877367363
12877373161
12877378838
12877384209
12877388603
12877393791
12877399223
12877404472
12877410026
12877415947
12877421135
12877425590
12877431206
12877437797
12877443840
12877449455
12877456108
12877460380
12877467888
12877472221
12877478996
12877485893
12877490776
12877496696
12877503044
12877509147
12877516410
12877521781
12877529655
12877534904
12877542594
12877548271
12877554801
12877560600
12877566398
12877572380
12877578361
12877582145
12877590080
12877595878
12877603690
12877607475
12877614372
12877619315
12877625541
12877631339
12877635551
12877643729
12877647330
12877653251
12877659537
12877665519
12877671439
12877677665
12877685172
12877690543
12877696281
12877702872
12877708365
12877713981
12877720450
12877726249
12877732779
12877738395
12877744193
12877750174
12877755973
12877762504
12877768058
12877773246
12877779105
12877787772
12877793204
12877799064
12877805106
12877809073
12877815970
12877822928
12877828849
12877835746
12877841300
12877850882
12877857474
12877864798
12877870474
12877875296
12877879752
12877887869
12877892386
12877899100
12877905692
12877911246
12877916617
12877923880
12877930533
12877936942
12877941824
12877949026
12877954947
12877961661
12877967459
12877974783
12877980154
12877986136
12877990897
12877996939
12878001639
12878007254
12878013174
12878018667
12878023611
12878030447
12878036001
12878041739
12878048269
12878053824
12878059927
12878064261
12878069937
12878075613
12878081411
12878087393
12878093679
12878097952
12878103750
12878108694
12878115896
12878119863
12878127371
12878135916
12878140921
12878146536
12878151968
12878157461
12878163259
12878168508
12878176260
12878180044
12878186453
12878191335
12878197744
12878203237
12878207632
12878214040
12878219351
12878225698
12878232412
12878237417
12878244802
12878253713
12878258413
12878268545
12878277029
12878283926
12878291677
12878300100
12878307485
12878313955
12878322011
12878327688
12878339040
12878346059
12878354726
12878361318
12878369985
12878376394
12878384145
12878390676
12878400685
12878410573
12878417897
12878425466
12878431752
12878438222
12878446523
12878453664
12878463674
12878472035
12878484181
12878491750
12878500539
12878508473
12878517629
12878526296
12878533681
12878544301
12878550465
12878559926
12878566701
12878574147
12878582448
12878591176
12878597951
12878605397
12878613881
12878621937
12878628529
12878636708
12878642994
12878654652
12878662465
12878670826
12878678639
12878685597
12878692372
12878700856
12878706715
12878714161
12878724659
12878730580
12878740773
12878748341
12878756520
12878765736
12878773487
12878782093
12878788990
12878798695
12878807240
12878816212
12878824818
12878831593
12878840199
12878848682
12878858143
12878868824
12878875050
12878884144
12878891407
12878900806
12878908558
12878916370
12878924488
12878931385
12878941150
12878948963
12878957264
12878964832
12878970874
12878979114
12878988941
12878996326
12879005542
12879013721
12879019702
12879028369
12879037403
12879046009
12879055225
12879063465
12879069507
12879077197
12879084155
12879092822
12879098010
12879108020
12879117236
12879125293
12879134143
12879140430
12879149158
12879157092
12879162707
12879172778
12879179675
12879189258
12879196338
12879202991
12879211841
12879220325
12879230517
12879239856
12879246020
12879254687
12879262378
12879269580
12879277636
12879284472
12879292956
12879302783
12879308886
12879317126
12879325305
12879334460
12879343127
12879351794
12879357897
12879367785
12879375537
12879383288
12879392626
12879401843
12879409350
12879416552
12879426806
12879440417
12879447741
12879457018
12879466173
12879477953
12879486071
12879493822
12879501330
12879508349
12879515185
12879521654
12879529284
12879536059
12879542223
12879549547
12879557543
12879563768
12879570849
12879577379
12879586840
12879593431
12879598864
12879603624
12879609056
12879615221
12879619615
12879625719
12879631945
12879637560
12879643602
12879648607
12879655138
12879658617
12879665758
12879669969
12879677049
12879682970
12879688219
12879692369
12879698778
12879703111
12879710191
12879715196
12879721483
12879727098
12879731248
12879736498
12879741747
12879747850
12879752245
12879759203
12879764574
12879770189
12879774950
12879781175
12879785753
12879791246
12879795885
12879802598
12879808763
12879814622
12879819871
12879826036
12879829820
12879835985
12879841966
12879848069
12879854783
12879861497
12879867234
12879873155
12879877732
12879884996
12879890001
12879897813
12879903123
12879907579
12879914415
12879918748
12879922898
12879929917
12879935472
12879940476
12879943711
12879951463
12879956773
12879961473
12879968186
12879973374
12879982346
12879988145
12879993394
12879998704
12880003709
12880009141
12880014146
12880020982
12880027268
12880032822
12880038255
12880043504
12880048630
12880054856
12880059251
12880065049
12880072190
12880077927
12880082566
12880087998
12880094346
12880100144
12880104355
12880110520
12880116562
12880121750
12880125290
12880133103
12880137314
12880144700
12880153611
12880158799
12880163132
12880171250
12880176377
12880181076
12880187485
12880193650
12880199387
12880205979
12880212571
12880219467
12880223801
12880230332
12880234604
12880239670
12880245468
12880251694
12880257553
12880264816
12880268295
12880275070
12880280014
12880285813
12880291428
12880297348
12880302353
12880309982
12880315292
12880318893
12880327744
12880332993
12880337448
12880343002
12880348312
12880354843
12880361984
12880366867
12880373215
12880378830
12880383407
12880389633
12880395737
12880402267
12880408249
12880414047
12880419845
12880427414
12880435714
12880443771
12880450363
12880459823
12880469955
12880479660
12880485458
12880494796
12880501937
12880510604
12880517074
12880527206
12880534164
12880541488
12880548141
12880557846
12880564071
12880571090
12880577560
12880586349
12880593490
12880602706
12880609969
12880616378
12880622848
12880632064
12880638656
12880649276
12880657272
12880664413
12880671493
12880679916
12880687301
12880694686
12880703048
12880710982
12880718551
12880726546
12880734237
12880742843
12880748580
12880757430
12880766280
12880772811
