12398104552
12398111815
12398116942
12398122374
12398126524
12398132201
12398138548
12398144102
12398149596
12398154356
12398159972
12398166014
12398171080
12398177672
12398183958
12398188658
12398195006
12398201170
12398207396
12398213438
12398219114
12398225340
12398232664
12398238707
12398246214
12398253111
12398260252
12398267332
12398275633
12398282469
12398288694
12398295042
12398302366
12398310301
12398315184
12398323545
12398330320
12398335752
12398342283
12398347715
12398353819
12398360838
12398369139
12398373655
12398380918
12398385801
12398393308
12398398496
12398404844
12398412351
12398417356
12398423704
12398428648
12398436033
12398440916
12398446348
12398453001
12398458921
12398464658
12398471250
12398476743
12398482908
12398489255
12398493894
12398500486
12398506650
12398512082
12398516782
12398522275
12398528440
12398535642
12398541623
12398546384
12398552244
12398558347
12398564145
12398568784
12398576902
12398583982
12398589780
12398595761
12398601316
12398607297
12398612851
12398619138
12398625913
12398632016
12398639829
12398645749
12398653073
12398659543
12398664731
12398672910
12398679074
12398685727
12398690183
12398697202
12398701596
12398708371
12398712888
12398721921
12398727292
12398732846
12398737912
12398747433
12398753903
12398761166
12398767148
12398774350
12398781613
12398786801
12398794430
12398801510
12398807675
12398813656
12398822262
12398827633
12398835019
12398840573
12398848080
12398853390
12398861203
12398867611
12398874997
12398879757
12398887448
12398893002
12398900509
12398907772
12398913204
12398920224
12398926388
12398930966
12398937618
12398943173
12398949215
12398954891
12398961422
12398968197
12398973202
12398980282
12398985653
12398994381
12398999874
12399007870
12399012631
12399022213
12399027767
12399032894
12399038753
12399044064
12399050045
12399057247
12399063412
12399071163
12399077450
12399084835
12399089901
12399097957
12399104732
12399111629
12399119015
12399124996
12399130794
12399136226
12399144222
12399149044
12399156673
12399161678
12399169857
12399173275
12399182613
12399186214
12399195064
12399200618
12399208492
12399213802
12399223445
12399228755
12399237422
12399242610
12399251094
12399257564
12399265865
12399271785
12399280696
12399286617
12399295162
12399302120
12399309444
12399316280
12399323055
12399328731
12399337093
12399342647
12399350703
12399356807
12399365596
12399371516
12399379573
12399386287
12399395137
12399403071
12399408015
12399415950
12399420711
12399429316
12399436274
12399443477
12399451350
12399460322
12399466121
12399473750
12399482661
12399490229
12399496699
12399504390
12399510493
12399520503
12399524775
12399533076
12399541133
12399547968
12399556452
12399565302
12399571528
12399581782
12399586482
12399596369
12399600214
12399612238
12399616389
12399627070
12399632807
12399639887
12399645319
12399650751
12399656916
12399661249
12399667658
12399672907
12399681086
12399684992
12399692866
12399697626
12399702875
12399708430
12399715449
12399719721
12399727228
12399732355
12399739618
12399743586
12399749811
12399752863
12399759882
12399767023
12399772211
12399778315
12399784052
12399787836
12399793634
12399798578
12399804560
12399809748
12399816584
12399822382
12399827753
12399833246
12399838495
12399842951
12399848200
12399852777
12399860529
12399866083
12399870172
12399876093
12399881342
12399887079
12399891290
12399900140
12399904352
12399909662
12399915460
12399920953
12399925531
12399931207
12399937677
12399945306
12399949518
12399956354
12399960687
12399966791
12399972772
12399978143
12399982599
12399989740
12399994256
12399999750
12400005426
12400011285
12400015680
12400022271
12400027887
12400034417
12400040460
12400045526
12400051202
12400056878
12400061029
12400067132
12400073785
12400079217
12400085015
12400088617
12400095819
12400102227
12400107171
12400112908
12400119561
12400124749
12400130609
12400137872
12400142999
12400147454
12400153741
12400158624
12400164971
12400169793
12400176873
12400180840
12400187310
12400192071
12400198235
12400203423
12400208672
12400214471
12400220513
12400225396
12400234673
12400239617
12400247308
12400252740
12400257806
12400264458
12400272027
12400277947
12400283196
12400289300
12400294060
12400300469
12400304925
12400312066
12400317437
12400323845
12400332634
12400339470
12400345330
12400351372
12400356865
12400362786
12400368462
12400372734
12400379570
12400385613
12400390007
12400397881
12400405144
12400409722
12400417046
12400423332
12400427727
12400433403
12400437920
12400445732
12400451592
12400461601
12400469048
12400476250
12400484734
12400492485
12400501640
12400509636
12400516655
12400524040
12400531242
12400540642
12400546745
12400554680
12400562309
12400571281
12400577690
12400585319
12400593742
12400599663
12400609733
12400616264
12400625602
12400633964
12400642021
12400649223
12400657646
12400663932
12400673454
12400679863
12400689872
12400696342
12400705070
12400711296
12400718803
12400727592
12400735343
12400741691
12400749931
12400757682
12400766227
12400773368
12400781852
12400788993
12400793327
12400803703
12400810111
12400819511
12400827872
12400835624
12400842033
12400851066
12400857230
12400863822
12400873710
12400883109
12400892203
12400901053
12400908866
12400916800
12400924247
12400930533
12400939872
12400947806
12400960807
12400970572
12400978202
12400987174
12400994315
12400998648
12401009146
12401015189
12401025504
12401031851
12401041068
12401047659
12401056754
12401063284
12401073477
12401080557
12401091788
12401100150
12401107962
12401116507
12401124014
12401132254
12401138541
12401148428
12401154410
12401163626
12401171377
12401178641
12401186392
12401193777
12401203177
12401210562
12401219107
12401226553
12401233816
12401243948
12401250601
12401258413
12401264578
12401272818
12401281240
12401288076
12401296194
12401304495
12401310903
12401320364
12401326589
12401335317
12401341421
12401349600
12401356985
12401365957
12401373281
12401377554
12401389517
12401395620
12401403310
12401409536
12401421377
12401426260
12401435842
12401444631
12401450490
12401458974
12401467336
12401473379
12401481740
12401492116
12401500478
12401506704
12401513051
12401522756
12401530080
12401537648
12401542653
12401555654
12401559926
12401571584
12401579213
12401586843
12401593068
12401601918
12401607961
12401617665
12401626699
12401632375
12401640309
12401648488
12401654225
12401662648
12401668385
12401677358
12401687001
12401694447
12401700734
12401707570
12401716054
12401723134
12401729970
12401733693
12401747243
12401751393
12401762929
12401770985
12401779713
12401788685
12401795216
12401802968
12401810109
12401818287
12401825245
12401832692
12401837697
12401846547
12401849965
12401860463
12401868641
12401875721
12401881459
12401887745
12401891896
12401900135
12401903248
12401911793
12401917958
12401924244
12401927723
12401936512
12401944691
12401950733
12401955799
12401961842
12401967335
12401973194
12401977650
12401981800
12401987110
12401991139
12401996021
12402001637
12402006092
12402010975
12402015125
12402018909
12402025623
12402029896
12402035755
12402041492
12402047535
12402052479
12402058216
12402064197
12402068592
12402075367
12402081653
12402085987
12402091480
12402096973
12402102649
12402108021
12402112842
12402117969
12402124744
12402131092
12402136707
12402141651
12402146900
12402151355
12402156849
12402162586
12402168140
12402173572
12402177967
12402183826
12402188770
12402193958
12402199024
12402209278
12402217456
12402222888
12402228259
12402233203
12402238391
12402241199
12402249133
12402253833
12402260364
12402265186
12402271411
12402276355
12402282214
12402286853
12402291431
12402298389
12402303149
12402308521
12402313892
12402319324
12402326282
12402331958
12402335132
12402341968
12402347705
12402356189
12402359607
12402368701
12402372973
12402379199
12402384143
12402392199
12402396655
12402402148
12402406421
12402412402
12402416552
12402421679
12402427112
12402432788
12402436816
12402441699
12402448108
12402453357
12402458056
12402462817
12402467517
12402471423
12402476611
12402480578
12402486499
12402490405
12402496020
12402499804
12402504992
12402509692
12402514514
12402520678
12402526476
12402531603
12402537524
12402541735
12402546557
12402553088
12402558337
12402561327
12402568163
12402572802
12402577929
12402582385
12402588915
12402594958
12402598864
12402605029
12402612658
12402617113
12402621630
12402625719
12402630968
12402635302
12402641405
12402646715
12402653368
12402659106
12402664171
12402668627
12402673998
12402680834
12402689684
12402696093
12402706896
12402711413
12402723192
12402727587
12402739000
12402744249
12402751940
12402761766
12402768908
12402773119
12402782274
12402790880
12402798326
12402802599
12402813219
12402821031
12402830126
12402837511
12402845140
12402851244
12402861070
12402867906
12402875719
12402881822
12402892564
12402898729
12402908800
12402914842
12402924058
12402930162
12402940477
12402946886
12402956712
12402962877
12402972581
12402979051
12402988328
12402994737
12403003587
12403009202
12403020189
12403026414
12403036363
12403042222
12403051377
12403057359
12403066026
12403074021
12403082139
12403088487
12403097276
12403103318
12403112229
12403120408
12403127549
12403135056
12403144883
12403151170
12403160630
12403165940
12403175462
12403181809
12403188401
12403193711
12403204881
12403212632
12403219346
12403225816
12403234849
12403238694
12403248093
12403253831
12403266282
12403274155
12403280930
12403289292
12403296128
12403302048
12403310898
12403318955
12403328232
12403335312
12403342820
12403350998
12403360642
12403368759
12403375962
12403384201
12403393235
12403398728
12403407212
12403414597
12403421433
12403429550
12403436020
12403446091
12403453537
12403461289
12403469956
12403476975
12403483749
12403491562
12403498276
12403506149
12403515427
12403521286
12403529709
12403536301
12403545151
12403552597
12403559311
12403568161
12403577133
12403583053
12403591659
12403598678
12403605331
12403612167
12403620895
12403628402
12403637558
12403644882
12403651657
12403658676
12403667526
12403674789
12403681686
12403689926
12403698654
12403706161
12403714889
12403720260
12403729720
12403736129
12403742904
12403749008
12403760360
12403769393
12403776412
12403783431
12403790023
12403799056
12403806136
12403812667
12403823287
12403831771
12403838546
12403845992
12403854659
12403862105
12403869246
12403877913
12403886641
12403895797
12403902755
12403910567
12403917220
12403924483
12403932845
12403938216
12403948470
12403955794
12403964156
12403970381
12403979964
12403991133
12404001692
12404007491
12404016585
12404026961
12404033736
12404042586
12404049239
12404058821
12404065352
12404072249
12404076643
12404083540
12404086470
12404094832
12404097517
12404104475
12404109969
12404116682
12404121992
12404127852
12404132002
12404139387
12404142866
12404152083
12404155562
12404163679
12404169600
12404177717
12404182600
12404190596
12404197371
12404205000
12404212874
12404220564
12404228193
12404236372
12404244246
12404249617
12404257673
12404264326
12404279402
12404285566
12404301130
12404310591
12404319074
12404326216
12404334150
12404345319
12404353925
12404358625
12404370649
12404376508
12404383711
12404394086
12404396345
12404408308
12404413190
12404423688
12404430158
12404432355
12404451093
12404453840
12404464399
12404471479
12404480268
12404487897
12404495282
12404500654
12404508039
12404515607
12404526654
12404533307
12404541242
12404546674
12404561017
12404570050
12404576520
12404584699
12404589276
12404603742
12404611615
12404617719
12404627179
12404634747
12404643842
12404648297
12404656598
12404663251
12404671613
12404680035
12404682660
12404694867
12404702435
12404711591
12404719525
12404728924
12404735211
12404739300
12404751996
12404756634
12404764752
12404770672
12404778241
12404785138
12404788922
12404798687
12404805096
12404813702
12404820721
12404829083
12404835858
12404841107
12404849347
12404856182
12404863324
12404870343
12404878399
12404887310
12404892376
12404900799
12404907513
12404915936
12404922222
12404929363
12404936505
12404944805
12404952068
12404959148
12404965191
12404973309
12404981487
12404986553
12404993877
12405001202
12405008282
12405016521
12405025127
12405029766
12405039837
12405046245
12405051739
12405059551
12405067608
12405073345
12405079693
12405090923
12405100872
12405105144
12405112835
12405121257
12405129375
12405134258
12405143840
12405150432
12405157817
12405166606
12405174541
12405181987
12405188274
12405195415
12405201763
12405210185
12405215740
12405224712
12405232585
12405240276
12405246990
12405254558
12405262309
12405269756
12405274211
12405284221
12405290935
12405299724
12405309306
12405315105
12405326701
12405339152
12405349284
12405358500
12405369304
12405376506
12405385600
12405402263
12405409282
12405421000
12405433207
12405442546
12405452616
12405465068
12405472941
12405483256
12405503459
12405510478
12405524272
12405533000
12405543192
12405552042
12405562174
12405573466
12405584208
12405597758
12405611063
12405620707
12405629557
12405640604
12405649088
12405659159
12405668253
12405679667
12405689371
12405698893
12405708414
12405716349
12405726664
12405737284
12405745035
12405755472
12405765177
12405773661
12405785745
12405794535
12405802591
12405816019
12405822305
12405833780
12405839273
12405854105
12405859903
12405872110
12405880045
12405891031
12405898843
12405910318
12405919168
12405928384
12405940896
12405948831
12405957925
12405966531
12405976846
12405984720
12405993875
12406004678
12406015054
12406026895
12406034707
12406044839
12406055520
12406066140
12406075662
12406087564
12406097024
12406105203
12406120034
12406132058
12406142983
12406150674
12406165383
12406175027
12406191262
12406201394
12406217019
12406228066
12406236672
12406246621
12406256936
12406267006
12406277077
12406287148
12406299233
12406310158
12406319497
12406329323
12406342385
12406352333
12406361855
12406369301
12406380532
12406390969
12406404518
12406414223
12406419533
12406432655
12406444740
12406453774
12406461281
12406475746
12406485634
12406497475
12406505775
12406512489
12406527870
12406537636
12406545997
12406558388
12406565223
12406577797
12406587623
12406597877
12406609962
12406622474
12406630714
12406640907
12406657264
12406669471
12406680091
12406693153
12406700294
12406715370
12406725623
12406735145
12406748756
12406755653
12406770118
12406780433
12406791419
12406803748
12406812171
12406825660
12406835731
12406847083
12406858375
12406866553
12406882361
12406893775
12406902259
12406915503
12406922339
12406936744
12406947058
12406956885
12406970374
12406979407
12406987403
12406996985
12407008582
12407018103
12407028418
12407040564
12407046668
12407061987
12407071204
12407084021
12407093481
12407102270
12407113501
12407125036
12407134497
12407146155
12407157690
12407167090
12407177160
12407188757
12407195959
12407211340
12407221350
12407230139
12407236670
12407244116
12407253454
12407260290
12407268835
12407277075
12407281774
12407291662
12407298376
12407306310
12407315466
12407319799
12407332128
12407339452
12407347143
12407355261
12407357641
12407369115
12407377111
12407386144
12407395361
12407402685
12407408300
12407416357
12407422765
12407433263
12407440648
12407446630
12407453832
12407463109
12407469762
12407476537
12407484472
12407492589
12407499913
12407507482
12407516271
12407524938
12407534459
12407541722
12407549779
12407554845
12407561376
12407568456
12407577062
12407583226
12407590734
12407594640
12407603856
12407609715
12407617589
12407623509
12407631444
12407638280
12407642186
12407650365
12407658116
12407665685
12407671605
12407678807
12407683751
12407689854
12407697545
12407704259
12407711949
12407719945
12407725621
12407738560
12407751256
12407756993
12407764744
12407771702
12407778904
12407785618
12407794835
12407801243
12407808079
12407816197
12407821080
12407827671
12407834996
12407843907
12407849644
12407858372
12407864231
12407876011
12407882298
12407890599
12407893894
12407901890
12407908055
12407913731
12407917576
12407924290
12407929661
12407935703
12407940403
12407946262
12407951572
12407956760
12407960728
12407966892
12407972141
12407975925
12407982822
12407987827
12407994297
12407998997
12408004246
12408010715
12408015293
12408021519
12408027073
12408031833
12408037327
12408041660
12408048923
12408055210
12408062229
12408067234
12408072605
12408081028
12408086582
12408091770
12408096958
12408104770
12408110202
12408115512
12408120639
12408124973
12408131076
12408136264
12408142368
12408147251
12408153476
12408159091
12408163608
12408170200
12408175388
12408180820
12408187656
12408195896
12408202793
12408208408
12408215244
12408221896
12408226535
12408232944
12408238986
12408244479
12408250949
12408256931
12408261569
12408268405
12408272739
12408278720
12408284885
12408290256
12408297702
12408305270
12408311008
12408319797
12408327487
12408335971
12408341830
12408351718
12408358066
12408367282
12408371066
12408384311
12408392245
12408399203
12408403231
12408416537
12408424594
12408433078
12408439975
12408447543
12408456515
12408462374
12408473483
12408481478
12408492953
12408502291
12408509982
12408516634
12408522494
12408531100
12408537447
12408546420
12408554171
12408559664
12408566561
12408573946
12408580660
12408590548
12408598482
12408605440
12408614352
12408619784
12408627840
12408634493
12408642428
12408652071
12408657503
12408666231
12408674227
12408680575
12408690035
12408699495
12408707857
12408714937
12408721590
12408727571
12408737581
12408743135
12408751985
12408760652
12408767977
12408775545
12408782625
12408788973
12408796419
12408807405
12408815706
12408823946
12408831453
12408838594
12408845674
12408853059
12408861116
12408868562
12408877473
12408881746
12408893098
12408900728
12408907747
12408915132
12408928316
12408937349
12408943513
12408953035
12408959138
12408968660
12408975190
12408983369
12408989778
12408998384
12409005159
12409012849
12409019563
12409027925
12409036286
12409043794
12409050569
12409057771
12409065339
12409070588
12409080354
12409088227
12409097321
12409106416
12409113984
12409121186
12409130341
12409136079
12409145905
12409154328
12409162934
12409169099
12409177155
12409183381
12409189973
12409198334
12409205720
12409214326
12409224335
12409234406
12409241730
12409249543
12409255402
12409264069
12409271698
12409279511
12409285065
12409294648
12409300324
12409309052
12409314972
12409324433
12409330048
12409338898
12409346161
12409352875
12409361176
12409367584
12409374848
12409382111
12409390045
12409398346
12409407135
12409414215
12409421539
12409430756
12409437775
12409442841
12409452606
12409459137
12409467072
12409473236
12409481476
12409487518
12409495331
12409503631
12409511261
12409519317
12409524872
12409532928
12409538482
12409547943
12409556122
12409562591
12409569061
12409577423
12409584320
12409592315
12409600006
12409605377
12409612579
12409618133
12409625396
12409631805
12409636749
12409641815
12409646148
12409650177
12409656280
12409662506
12409667694
12409672821
12409678680
12409683074
12409687469
12409695831
12409700836
12409707671
12409724883
12409732024
12409737823
12409742767
12409749419
12409756988
12409765472
12409772308
12409778716
12409785186
12409790557
12409796355
12409802520
12409808379
12409812224
12409818206
12409824554
12409829009
12409834624
12409842620
12409849090
12409855193
12409859160
12409866362
12409871306
12409876311
12409881499
12409887175
12409891021
12409896819
12409901946
12409907073
12409911650
12409917876
12409922454
12409927214
12409931792
12409937529
12409942229
12409946501
12409952300
12409958037
12409962432
12409968108
12409972563
12409977263
12409982878
12409988738
12409995513
12410003691
12410008025
12410013518
12410020171
12410025176
12410030425
12410035613
12410041472
12410047026
12410050383
12410056670
12410061125
12410067229
12410072722
12410076689
12410080901
12410088225
12410092863
12410097502
12410103606
12410109160
12410114653
12410119353
12410124296
12410129973
12410134367
12410139372
12410143889
12410150297
12410155851
12410160490
12410166777
12410170866
12410176115
12410179716
12410186613
12410191557
12410197660
12410203703
12410208586
12410213652
12410217253
12410223661
12410228361
12410235319
12410240934
12410246183
12410251249
12410256742
12410261564
12410266020
12410272672
12410284879
12410292509
12410299406
12410303495
12410308256
12410315153
12410321134
12410326688
12410331571
12410336393
12410340482
12410346769
12410351225
12410358488
12410364652
12410371854
12410380949
12410390653
12410398466
12410406034
12410413785
12410419279
12410428983
12410434781
12410443387
12410449308
12410459440
12410463285
12410474759
12410478666
12410488797
12410495877
12410504728
12410511136
12410517789
12410523893
12410532865
12410540006
12410549405
12410555020
12410564481
12410571622
12410581082
12410587186
12410596707
12410604825
12410614407
12410621304
12410629971
12410638211
12410645474
12410656155
12410664151
12410672696
12410681119
12410687344
12410695645
12410701443
12410712552
12410718472
12410729031
12410737271
12410745694
12410753750
12410760708
12410768948
12410776761
12410785672
12410793972
12410801236
12410811367
12410819851
12410826748
12410833279
12410844509
12410850613
12410858181
12410865444
12410871121
12410882107
12410889736
12410898586
12410905300
12410911648
12410922207
12410928555
12410938015
12410942287
12410954006
12410962612
12410970180
12410978970
12410985866
12410995937
12411004299
12411013698
12411022121
12411028957
12411037563
12411044460
12411048671
12411059841
12411068996
12411076442
12411080532
12411094143
12411100490
12411110805
12411117092
12411127224
12411136257
12411143825
12411151210
12411157497
12411166225
12411171718
12411181423
12411186000
12411196803
12411205348
12411214443
12411220302
12411230067
12411238918
12411247096
12411254543
12411262660
12411272609
12411280543
12411287257
12411294276
12411302577
12411309108
12411318690
12411329555
12411334804
12411343471
12411348842
12411357997
12411361842
12411372645
12411382411
12411389735
12411397914
12411407069
12411415858
12411422694
12411430262
12411438929
12411444606
12411453883
12411462916
12411470606
12411479579
12411486170
12411496363
12411505335
12411515040
12411523158
12411531947
12411540369
12411547144
12411555811
12411563746
12411572413
12411579066
12411588099
12411597254
12411605494
12411612635
12411620936
12411627344
12411635645
12411642176
12411650599
12411659815
12411670191
12411673914
12411685144
12411693750
12411699854
12411706446
12411714075
12411722559
12411728235
12411734583
12411739099
12411744593
12411751184
12411756677
12411761682
12411766138
12411772486
12411775965
12411784448
12411787805
12411797754
12411803247
12411810632
12411817041
12411821008
12411828272
12411832483
12411839136
12411844141
12411849023
12411854700
12411859827
12411865015
12411870264
12411875391
12411879907
12411885156
12411890649
12411895593
12411899682
12411905237
12411912378
12411916223
12411922693
12411929345
12411933740
12411939599
12411944055
12411948816
12411954980
12411961633
12411967859
12411972619
12411978662
12411984582
12411989404
12411995752
12412001611
12412007714
12412013269
12412018579
12412022790
12412028955
12412032983
12412039819
12412045068
12412051538
12412057763
12412062158
12412067407
12412072839
12412078759
12412084008
12412091454
12412097131
12412103417
12412107263
12412113000
12412117883
12412124169
12412131860
12412138573
12412142724
12412147607
12412153649
12412157677
12412163232
12412169030
12412174462
12412181542
12412187829
12412193993
12412200341
12412211205
12412218224
12412224328
12412231347
12412238183
12412242455
12412249901
12412255822
12412262413
12412267296
12412275963
12412281273
12412287133
12412292015
12412299096
12412303551
12412310265
12412315209
12412322716
12412328270
12412334191
12412339562
12412346276
12412352013
12412358299
12412362938
12412368431
12412374901
12412380089
12412384667
12412390038
12412395470
12412400292
12412404503
12412410362
12412415917
12412420494
12412425743
12412429710
12412435570
12412440269
12412445335
12412449486
12412455406
12412460472
12412465355
12412471764
12412477135
12412482384
12412488853
12412495933
12412502525
12412509544
12412517174
12412522545
12412530479
12412537498
12412547264
12412553428
12412561851
12412565391
12412575462
12412582115
12412590721
12412594322
12412606590
12412613609
12412621910
12412628868
12412635459
12412644065
12412650657
12412659507
12412669212
12412675681
12412683799
12412689964
12412698142
12412706382
12412714072
12412719627
12412727683
12412738120
12412744895
12412751914
12412758567
12412767173
12412774436
12412783835
12412792075
12412799277
12412806296
12412814841
12412821555
12412826682
12412836204
12412843833
12412852805
12412860801
12412868613
12412877036
12412882163
12412892600
12412901389
12412913169
12412920615
12412925986
12412935141
12412941428
12412951499
12412960349
12412967429
12412973654
12412981223
12412988364
12412994223
12413006857
12413016074
12413023154
12413028769
12413037558
12413044394
12413051718
12413057577
12413070334
12413074484
12413084860
12413091818
12413098349
12413106344
12413112631
12413120688
12413130148
12413139425
12413145895
12413154379
12413159994
12413169394
12413172812
12413184774
12413192648
12413201254
12413208517
12413215414
12413221456
12413228598
12413237753
12413247213
12413253561
12413260824
12413268392
12413274374
12413282980
12413288229
12413299703
12413308553
12413319479
12413327779
12413336996
12413345602
12413355062
12413362081
12413372152
12413376302
12413387716
12413395406
12413402486
12413412923
12413424032
12413431722
12413441305
12413449178
12413457967
12413467733
12413473653
12413489034
12413498250
12413514974
12413523458
12413531575
12413546834
12413556478
12413566670
12413575765
12413585469
12413595906
12413608418
12413615071
12413629170
12413641072
12413648335
12413661702
12413669270
12413679524
12413685811
12413702229
12413712117
12413724385
12413736592
12413744832
12413768635
12413780720
12413791340
12413801899
12413810505
12413820210
12413831257
12413839802
12413849690
12413860615
12413871479
12413879475
12413889485
12413900959
12413910969
12413919880
12413933125
12413942646
12413951618
12413959064
12413965778
12413972553
12413974689
12413985920
12413992878
12413999286
12414007404
12414015705
12414024372
12414031635
12414037311
12414041523
12414052387
12414059711
12414068927
12414077472
12414087787
12414095111
12414100483
12414110553
12414114948
12414123371
12414131366
12414136859
12414144733
12414146625
12414161151
12414163410
12414174701
12414179218
12414186969
12414192889
12414199664
12414205768
12414210773
12414220905
12414227740
12414234393
12414242389
12414248859
12414254596
12414259235
12414266437
12414270587
12414281024
12414288714
12414296283
12414303058
12414310931
12414317096
12414319354
12414330096
12414337603
12414345965
12414353167
12414362750
12414370562
12414372943
12414384417
12414391619
12414398394
12414406634
12414408831
12414421282
12414426531
12414435565
12414445574
12414450823
12414458697
12414463458
12414474627
12414482073
12414488177
12414498126
12414503252
12414514056
12414520708
12414525469
12414536028
12414538226
12414550982
12414558001
12414563555
12414572222
12414577166
12414589129
12414596270
12414603777
12414610796
12414618364
12414632830
12414640825
12414652300
12414657610
12414671526
12414680498
12414691973
12414699663
12414709307
12414716753
12414727922
12414737383
12414739580
12414755449
12414764177
12414772844
12414777849
12414786943
12414794817
12414804094
12414815569
12414826250
12414836137
12414838640
12414851640
12414860246
12414866411
12414875139
12414879777
12414892351
12414899431
12414907609
12414914201
12414922075
12414928850
12414936418
12414941606
12414950700
12414956620
12414965654
12414971940
12414982866
12414985490
12414996843
12415003617
12415009538
12415018083
12415022721
12415036332
12415041215
12415050431
12415057511
12415064958
12415071244
12415078751
12415089860
12415096574
12415105668
12415112931
12415115250
12415127579
12415132157
12415143815
12415151078
12415161027
12415167557
12415175126
12415181473
12415188309
12415196793
12415203080
12415209061
12415216569
12415220658
12415231278
12415237565
12415243058
12415252884
12415261246
12415272416
12415278336
12415289872
12415301834
12415311661
12415322281
12415328140
12415346146
12415354874
12415365128
12415373673
12415384781
12415392471
12415401199
12415410721
12415422012
12415429581
12415440750
12415447281
12415461075
12415469742
12415479385
12415488418
12415494461
12415507583
12415517471
12415533401
12415543106
12415550613
12415563125
12415570572
12415582107
12415593154
12415604568
12415612991
12415620132
12415637222
12415647842
12415653213
12415667861
12415679336
12415687026
12415699050
12415715591
12415726455
12415740432
12415749831
12415761062
12415769912
12415782058
12415790359
12415799270
12415808852
12415814650
12415828505
12415837111
12415846633
12415857680
12415871596
12415887954
12415901076
12415912795
12415922011
12415932509
12415942458
12415945387
12415959059
12415967360
12415979750
12415989333
12416000258
12416009718
12416018568
12416029127
12416035231
12416047560
12416056044
12416065626
12416077467
12416084669
12416094984
12416104139
12416113722
12416119825
12416135328
12416144606
12416155775
12416165236
12416174757
12416185255
12416195692
12416204298
12416212416
12416223036
12416228712
12416242445
12416252394
12416264356
12416272596
12416284071
12416294325
12416306959
12416316175
12416330335
12416341688
12416347974
12416361524
12416372022
12416381666
12416396497
12416406385
12416416822
12416423230
12416434522
12416445508
12416452893
12416467908
12416479444
12416489209
12416497083
12416506421
12416515698
12416529309
12416535352
12416550733
12416562451
12416572278
12416577527
12416588818
12416596631
12416605603
12416615613
12416627393
12416639844
12416652356
12416662427
12416667676
12416678296
12416686108
12416697827
12416705700
12416715893
12416726086
12416737072
12416747021
12416752209
12416763928
12416771923
12416781811
12416793713
12416803051
12416814404
12416823620
12416841442
12416852917
12416862194
12416873913
12416880077
12416895580
12416905346
12416915966
12416924145
12416935375
12416947216
12416956859
12416966442
12416979626
12416990490
12417005138
12417016308
12417029430
12417037609
12417049572
12417056224
12417067638
12417073192
12417079662
12417085216
12417091564
12417098705
12417104137
12417109020
12417116527
12417119823
12417126048
12417130565
12417137035
12417140209
12417146434
12417150890
12417158336
12417161388
12417167857
12417172435
12417178783
12417183666
12417188487
12417193004
12417199596
12417204540
12417210277
12417214366
12417220653
12417225108
12417229564
12417235606
12417245128
12417250438
12417255076
12417260753
12417265513
12417270457
12417277354
12417282664
12417289378
12417296336
12417302196
12417307628
12417313304
12417318065
12417322642
12417328441
12417334727
12417342357
12417348216
12417353343
12417360240
12417365550
12417371043
12417376475
12417383433
12417389292
12417394175
12417399180
12417401866
12417410716
12417415232
12417421702
12417426890
12417435008
12417440318
12417447337
12417451853
12417455882
12417463267
12417467722
12417473216
12417479685
12417485239
12417491099
12417497935
12417502085
12417508128
12417512644
12417521738
12417528086
12417536509
12417541758
12417547190
12417551279
12417558787
12417563853
12417568552
12417571421
12417579905
12417584665
12417589976
12417594065
12417601755
12417607309
12417613413
12417621836
12417627024
12417634958
12417640390
12417648081
12417653208
12417659983
12417663767
12417672373
12417675363
12417683908
12417689218
12417695200
12417701364
12417705637
12417712839
12417716562
12417721262
12417725717
12417731394
12417735727
12417740793
12417745859
12417749704
12417755380
12417760385
12417765329
12417768991
12417774545
12417779489
12417783212
12417788156
12417794992
12417800729
12417805246
12417810556
12417815683
12417820932
12417825876
12417830148
12417836557
12417845834
12417851694
12417858163
12417863412
12417868539
12417873605
12417879953
12417886850
12417892892
12417899728
12417908334
12417915963
12417924814
12417931955
12417942025
12417948739
12417954110
12417963693
12417971933
12417979135
12417987496
12417995309
12418003854
12418011056
12418018197
12418027535
12418035470
12418043221
12418051705
12418058846
12418063302
12418075204
12418082101
12418092110
12418098275
12418107858
12418114449
12418122140
12418130440
12418139229
12418147957
12418156136
12418165719
12418173897
12418182931
12418189644
12418197335
12418205941
12418214425
12418223031
12418230172
12418238228
12418246468
12418252571
12418261422
12418267952
12418278450
12418285469
12418294930
12418302010
12418312691
12418319100
12418328377
12418336556
12418346810
12418351021
12418362496
12418366829
12418378182
12418384773
12418392830
12418398933
12418409676
12418414192
12418425301
12418432808
12418441170
12418447822
12418456489
12418462898
12418473152
12418479317
12418489448
12418498359
12418505745
12418514595
12418525520
12418532722
12418541694
12418550361
12418558967
12418565864
12418574104
12418580513
12418588996
12418597785
12418604988
12418613227
12418619758
12418629707
12418636115
12418643012
12418650520
12418660468
12418667793
12418675117
12418683967
12418693183
12418700080
12418708747
12418717475
12418722541
12418731940
12418738837
12418747993
12418757453
12418764838
12418774482
12418784492
12418792609
12418799201
12418807929
12418815497
12418823188
12418828620
12418838141
12418844367
12418853827
12418861090
12418868354
12418877204
12418884101
12418891425
12418901435
12418910529
12418917426
12418927863
12418939215
12418948187
12418957465
12418967108
12418974066
12418982855
12418992011
12418998175
12419008307
12419015387
12419022650
12419029852
12419038580
12419045355
12419055792
12419062262
12419072760
12419083868
12419090826
12419100226
12419106634
12419114447
12419120611
12419129583
12419137945
12419145697
12419151800
12419160345
12419168219
12419175360
12419181036
12419189764
12419196051
12419205755
12419214239
12419221868
12419228826
12419237859
12419245611
12419254034
12419261663
12419267950
12419278875
12419287908
12419294439
12419303228
12419308599
12419315557
12419320074
12419326482
12419330511
12419341680
12419348211
12419354925
12419360174
12419367925
12419372930
12419378240
12419383184
12419389776
12419395818
12419402654
12419406865
12419418157
12419419744
12419428289
12419431524
12419439458
12419445562
12419450933
12419456548
12419463079
12419468389
12419475652
12419480962
12419486211
12419490483
12419497136
12419501409
12419508916
12419514409
12419520452
12419525578
12419530583
12419536870
12419541326
12419548467
12419553777
12419558965
12419564092
12419568974
12419576482
12419582890
12419589421
12419594792
12419601323
12419602910
12419613713
12419617863
12419627507
12419633061
12419639592
12419644047
12419651189
12419657353
12419664555
12419670170
12419675297
12419679753
12419684941
12419692143
12419697636
12419704289
12419710881
12419716679
12419722966
12419728337
12419732548
12419739689
12419745182
12419752140
12419757573
12419763188
12419767521
12419772526
12419779118
12419785343
12419788578
12419795780
12419800663
12419806401
12419811650
12419817692
12419822697
12419827885
12419836430
12419842289
12419847355
12419853947
12419859623
12419863224
12419869206
12419874516
12419880192
12419882755
12419891117
12419893986
12419902531
12419905949
12419911320
12419915714
12419922611
12419926578
12419934696
12419940006
12419946171
12419951481
12419959781
12419963505
12419970951
12419977054
12419983707
12419989628
12419996158
12419999515
12420007999
12420012333
12420018314
12420025455
12420030643
12420035770
12420042179
12420046573
12420051883
12420058597
12420061954
12420072574
12420075748
12420085025
12420088626
12420097049
12420104129
12420110355
12420115726
12420121463
12420125003
12420133853
12420139774
12420145999
12420152530
12420160953
12420169254
12420176028
12420182803
12420189944
12420197757
12420208743
12420219730
12420228824
12420232242
12420248538
12420254397
12420270633
12420281497
12420295718
12420305850
12420316348
12420328616
12420336673
12420348452
12420355532
12420371524
12420377627
12420392825
12420402529
12420413516
12420422610
12420433291
12420444705
12420451418
12420466616
12420476992
12420491335
12420502810
12420512148
12420524111
12420533572
12420541872
12420551272
12420562075
12420568606
12420584658
12420594240
12420606020
12420617067
12420626589
12420635317
12420645815
12420655764
12420661623
12420676882
12420686037
12420697512
12420709169
12420715578
12420727907
12420734682
12420746828
12420753420
12420767580
12420775392
12420786501
12420796266
12420807375
12420817018
12420828432
12420837892
12420849245
12420864869
12420877321
12420886171
12420894960
12420908082
12420916139
12420926576
12420936158
12420948610
12420961488
12420971742
12420978089
12420990602
12420999574
12421007874
12421020692
12421030274
12421046388
12421054932
12421065614
12421077515
12421087464
12421093690
12421106690
12421114991
12421129761
12421139466
12421152650
12421163025
12421174988
12421180481
12421193848
12421202454
12421214417
12421225953
12421238587
12421246582
12421255738
12421266785
12421276123
12421284485
12421295593
12421306030
12421320679
12421329285
12421336975
12421349609
12421356018
12421368469
12421379822
12421389893
12421412903
12421422424
12421434936
12421443420
12421451538
12421462219
12421476867
12421488220
12421495178
12421505005
12421515014
12421520813
12421534607
12421543151
12421557800
12421567504
12421576782
12421588928
12421599792
12421610595
12421618896
12421626830
12421636596
12421650512
12421658813
12421667907
12421677612
12421689758
12421697021
12421716430
12421727538
12421743835
12421755065
12421769225
12421781920
12421796447
12421809508
12421821288
12421845763
12421938109
12421972105
12422001219
12422031737
12422058958
12422077940
12422098448
12422119749
12422130613
12422141294
12422155455
12422176878
12422195371
12422213194
12422226621
12422236204
12422244993
12422253721
12422260801
12422269346
12422276609
12422285459
12422294004
12422302000
12422309324
12422317136
12422324705
12422332456
12422339963
12422347532
12422355466
12422362241
12422370664
12422377500
12422385618
12422391660
12422400510
12422406430
12422416013
12422422483
12422431821
12422441281
12422448362
12422452268
12422464048
12422471738
12422479184
12422487668
12422494748
12422501950
12422510739
12422520200
12422527036
12422534604
12422540280
12422549069
12422558347
12422566830
12422575436
12422582639
12422591611
12422602841
12422608639
12422618344
12422626218
12422634396
12422639645
12422648129
12422658505
12422667294
12422675595
12422681637
12422691037
12422699887
12422709225
12422716793
12422726742
12422735409
12422742367
12422752316
12422759762
12422767391
12422772763
12422782772
12422789791
12422796993
12422804623
12422812496
12422823727
12422829159
12422836666
12422842037
12422852352
12422859859
12422869015
12422875851
12422884579
12422893429
12422900753
12422908932
12422916012
12422923580
12422929317
12422937679
12422945247
12422955196
12422962276
12422970150
12422976314
12422987301
12422995845
12423002926
12423011043
12423020198
12423027034
12423035579
12423041378
12423049922
12423058895
12423066585
12423077022
12423082515
12423091976
12423100276
12423108699
12423116573
12423123836
12423132137
12423140620
12423147578
12423156062
12423164546
12423171443
12423180537
12423186275
12423196773
12423203426
12423210384
12423220759
12423227717
12423236140
12423242549
12423250667
12423257503
12423268306
12423276973
12423286250
12423294795
12423305171
12423316340
12423323603
12423333186
12423339350
12423346125
12423352290
12423358515
12423365168
12423372187
12423378901
12423385554
12423392756
12423399165
12423406794
12423412409
12423420527
12423428401
12423435664
12423443049
12423451045
12423457392
12423462275
12423471491
12423477412
12423483271
12423489863
12423497675
12423504450
12423511774
12423519221
12423526423
12423532160
12423536982
12423544184
12423551081
12423557306
12423561091
12423570246
12423574091
12423582148
12423587763
12423595758
12423601008
12423608393
12423613886
12423623285
12423630548
12423637629
12423645563
12423652826
12423662165
12423669123
12423677667
12423684564
12423690790
12423697687
12423704218
12423711725
12423718378
12423725092
12423732721
12423739191
12423746210
12423754083
12423761163
12423768610
12423774896
12423781915
12423789117
12423794366
12423801569
12423806879
12423813714
12423821039
12423826288
12423833978
12423842279
12423848504
12423856317
12423861810
12423868829
12423875970
12423881097
12423889825
12423896600
12423904596
12423913507
12423920221
12423926446
12423933465
12423941888
12423948297
12423952508
12423965875
12423973870
12423980950
12423989251
12423996881
12424001092
12424013299
12424020562
12424028802
12424033135
12424044854
12424049249
12424059380
12424063470
12424075188
12424079400
12424091241
12424098565
12424106988
12424113030
12424121270
12424127190
12424135552
12424142266
12424149041
12424156548
12424165154
12424170708
12424179375
12424184685
12424193352
12424201592
12424208794
12424215935
12424224297
12424229119
12424237847
12424246147
12424251885
12424261223
12424267449
12424275933
12424282341
12424288872
12424297295
12424306084
12424312859
12424321465
12424330132
12424335442
12424345757
12424350090
12424359184
12424366325
12424375542
12424382011
12424390312
12424396782
12424406120
12424412712
12424421135
12424427482
12424434135
12424443657
12424450493
12424457634
12424461784
12424472465
12424479789
12424489372
12424495720
12424502983
12424511283
12424519950
12424528312
12424534721
12424542778
12424548576
12424558341
12424563041
12424572502
12424577568
12424586967
12424594718
12424602592
12424608756
12424616691
12424622978
12424631034
12424639396
12424646171
12424652763
12424658500
12424664725
12424671195
12424676505
12424683097
12424688163
12424694694
12424699576
12424705558
12424711051
12424720145
12424724723
12424731803
12424737296
12424744315
12424749442
12424756827
12424761283
12424767264
12424773002
12424778190
12424783316
12424788627
12424794974
12424798331
12424806815
12424811942
12424820792
12424826163
12424831473
12424837455
12424842276
12424847647
12424852103
12424858451
12424863883
12424869193
12424874198
12424879569
12424888358
12424893607
12424899527
12424905692
12424911246
12424916373
12424919364
12424927298
12424932425
12424940421
12424945242
12424950919
12424957022
12424963614
12424968985
12424973013
12424979361
12424986685
12424993338
12424998038
12425003409
12425010062
12425016409
12425020926
12425026968
12425031607
12425039541
12425044546
12425051016
12425056021
12425063528
12425068167
12425073050
12425080313
12425086355
12425094473
12425098990
12425103811
12425108633
12425115957
12425118826
12425125601
12425129934
12425137625
12425142630
12425149465
12425155630
12425159292
12425165640
12425171072
12425175955
12425181021
12425187856
12425192251
12425198477
12425203603
12425209463
12425214834
12425220693
12425226431
12425234487
12425240041
12425246023
12425251638
12425258169
12425265371
12425269460
12425280019
12425286611
12425295034
12425304311
12425311391
12425320058
12425327688
12425333242
12425341421
12425345815
12425356984
12425364003
12425376149
12425384755
12425394033
12425401601
12425406118
12425416555
12425423207
12425431508
12425437978
12425442250
12425454030
12425458913
12425467153
12425474355
12425481984
12425490102
12425494863
12425506032
12425513295
12425518605
12425530812
12425539357
12425546681
12425550649
12425560170
12425565175
12425572316
12425579701
12425584828
12425592457
12425597035
12425604176
12425609181
12425615651
12425620839
12425625783
12425631337
12425639027
12425645558
12425653859
12425666188
12425673512
12425677174
12425687733
12425694081
12425706654
12425711048
12425722889
12425729176
12425736561
12425742420
12425750538
12425758656
12425767018
12425775013
12425782948
12425788868
12425797230
12425805287
12425810841
12425818165
12425822559
12425836720
12425843494
12425850208
12425858692
12425865894
12425869739
12425880604
12425884693
12425896900
12425903797
12425911732
12425917896
12425925403
12425933033
12425939991
12425948230
12425953785
12425964100
12425971607
12425981067
12425988208
12425996204
12426002857
12426011036
12426017749
12426027759
12426034229
12426043872
12426050403
12426059131
12426066760
12426073352
12426081592
12426089404
12426097339
12426105090
12426111499
12426118091
12426127124
12426133899
12426141162
12426147876
12426158069
12426165515
12426172351
12426176685
12426187305
12426194446
12426202685
12426211047
12426219104
12426227832
12426236194
12426242480
12426249499
12426258777
12426264026
12426273547
12426280932
12426289172
12426293628
12426303881
12426312060
12426320727
12426327075
12426334277
12426342944
12426351855
12426359179
12426366870
12426373095
12426380847
12426387866
12426394213
12426403735
12426411303
12426418993
12426426623
12426434435
12426441576
12426449267
12426455431
12426464037
12426470995
12426480578
12426487170
12426496203
12426504015
12426510302
12426518603
12426527209
12426535998
12426542833
12426551500
12426556749
12426566210
12426572313
12426582079
12426587999
12426597521
12426605211
12426612780
12426616991
12426626085
12426632555
12426642137
12426648546
12426656908
12426663256
12426671861
12426678209
12426685533
12426693346
12426702013
12426708788
12426716234
12426723314
12426731981
12426739671
12426746324
12426754259
12426758409
12426769273
12426776964
12426786180
12426792345
12426802171
12426808580
12426816759
12426825242
12426833604
12426839952
12426847520
12426855089
12426859117
12426874437
12426879441
12426889756
12426894090
12426905198
12426909288
12426920396
12426927049
12426936448
12426943040
12426951951
12426958299
12426967637
12426973985
12426982102
12426989732
12426996690
12427008103
12427012803
12427024461
12427031724
12427039719
12427046372
12427053818
12427062302
12427071397
12427077805
12427084397
12427093735
12427098923
12427105637
12427112046
12427119309
12427125168
12427132554
12427139939
12427145432
12427151597
12427157029
12427163193
12427169053
12427176377
12427182175
12427188584
12427194321
12427199387
12427206589
12427210923
12427217392
12427222214
12427227219
12427232224
12427237534
12427242783
12427248581
12427252426
12427258896
12427263291
12427270188
12427275864
12427283798
12427288559
12427295334
12427301132
12427312607
12427326523
12427342087
12427350693
12427359665
12427366379
12427375351
12427383896
12427391769
12427400741
12427409775
12427415756
12427419174
12427425155
12427429367
12427435348
12427440109
12427445419
12427450729
12427455856
12427460983
12427467514
12427473190
12427476974
12427482895
12427489669
12427493820
12427497787
12427504135
12427508163
12427515731
12427520797
12427525863
12427532150
12427539535
12427544784
12427549789
12427552963
12427559066
12427561630
12427569869
12427574386
12427582870
12427588180
12427593551
12427598129
12427603988
12427609725
12427614425
12427620589
12427627914
12427635177
12427640731
12427647323
12427653915
12427661605
12427665511
12427671371
12427677352
12427683944
12427688521
12427695785
12427701888
12427707015
12427713546
12427717818
12427722945
12427727828
12427734054
12427741927
12427746810
12427754195
12427759505
12427766097
12427772017
12427776717
12427781356
12427786055
12427790389
12427795272
12427799910
12427805770
12427812361
12427817427
12427823531
12427829268
12427834578
12427838973
12427844771
12427849837
12427855391
12427862715
12427866500
12427872603
12427876509
12427882552
12427887373
12427893172
12427899642
12427905318
12427908125
12427914534
12427920821
12427925887
12427928877
12427936018
12427939742
12427946883
12427951887
12427960005
12427963423
12427969466
12427975691
12427984419
12427991377
12427999434
12428007612
12428012373
12428022139
12428029219
12428036970
12428046492
12428051802
12428055891
12428066572
12428074934
12428083540
12428089766
12428097273
12428103437
12428112593
12428120832
12428125593
12428134565
12428140241
12428150923
12428157514
12428164472
12428172712
12428179731
12428184248
12428195295
12428201765
12428211347
12428217451
12428225263
12428234541
12428241987
12428248701
12428257368
12428266584
12428273237
12428281293
12428290082
12428299177
12428306928
12428314618
12428322553
12428329755
12428338178
12428347883
12428354230
12428360700
12428369367
12428379987
12428386640
12428393415
12428402814
12428408246
12428417401
12428424848
12428432355
12428436688
12428447431
12428455487
12428464826
12428471112
12428480023
12428487042
12428495038
12428501202
12428510114
12428517072
12428526898
12428533795
12428540265
12428550153
12428555279
12428564557
12428573102
12428580304
12428587567
12428595563
12428601910
12428609723
12428616986
12428625958
12428632184
12428639508
12428646527
12428654400
12428663922
12428669537
12428676861
12428684369
12428694134
12428700909
12428707928
12428717388
12428725384
12428729718
12428738995
12428745648
12428754864
12428760906
12428770062
12428777386
12428784100
12428793255
12428798931
12428808819
12428816326
12428823345
12428830608
12428838726
12428842876
12428854351
12428861492
12428869182
12428875774
12428884502
12428891277
12428900127
12428906536
12428914898
12428921062
12428930279
12428937664
12428944744
12428951763
12428959758
12428967754
12428976360
12428984600
12428988994
12428997539
12429003948
12429014202
12429021038
12429029949
12429036296
12429042888
12429051738
12429057537
12429067180
12429074138
12429081462
12429087261
12429095500
12429101726
12429111797
12429116924
12429125896
12429134013
12429138957
12429150127
12429158549
12429166057
12429173503
12429180705
12429187480
12429194865
12429201640
12429210002
12429216166
12429224894
12429234050
12429243815
12429251017
12429258830
12429265239
12429273051
12429282450
12429287822
12429297160
12429303630
12429312785
12429318034
12429327922
12429335429
12429342509
12429346842
12429356730
12429363017
12429373515
12429379740
12429389079
12429395915
12429401225
12429411112
12429418559
12429426371
12429432780
12429439921
12429445658
12429452494
12429456827
12429463602
12429468790
12429476542
12429483683
12429490336
12429495768
12429502176
12429506144
12429512980
12429517435
12429525004
12429531046
12429536661
12429542032
12429547953
12429557230
12429563456
12429569010
12429576883
12429582438
12429588724
12429594828
12429599894
12429605936
12429613016
12429620218
12429626261
12429632364
12429641458
12429645365
12429654764
12429660379
12429668375
12429675333
12429683756
12429687662
12429697855
12429706278
12429714822
12429721964
12429729593
12429738443
12429743509
12429755289
12429762552
12429772500
12429780374
12429786783
12429796609
12429805581
12429811807
12429820901
12429830667
12429838296
12429847390
12429853982
12429862222
12429871072
12429878518
12429887857
12429896768
12429901773
12429912942
12429920816
12429926309
12429938333
12429947915
12429958352
12429965371
12429975320
12429983621
12429988564
12429997659
12430006265
12430012795
12430024270
12430030251
12430039895
12430047280
12430055642
12430063088
12430065530
12430078713
12430085915
12430096413
12430104287
12430111001
12430118691
12430128335
12430135537
12430139809
12430148964
12430155068
12430164223
12430169472
12430176735
12430181679
12430188149
12430193520
12430196694
12430206398
12430209694
12430217385
12430222145
12430229286
12430234474
12430241249
12430246498
12430253395
12430259987
12430264565
12430272316
12430277382
12430282875
12430289650
12430295937
12430302040
12430307594
12430312843
12430319008
12430324135
12430331337
12430337501
12430342445
12430349281
12430355385
12430360268
12430365639
12430371681
12430376564
12430384804
12430387977
12430395912
12430401039
12430407631
12430412269
12430418739
12430425087
12430431190
12430436683
12430441932
12430449073
12430453895
12430459938
12430466652
12430472877
12430478370
12430484230
12430489051
12430495765
12430503089
12430507728
12430513954
12430520240
12430527076
12430534950
12430543128
12430548499
12430558143
12430564796
12430572852
12430580482
12430587745
12430591834
12430602149
12430609046
12430617469
12430624183
12430633765
12430641456
12430648109
12430658973
12430665626
12430673865
12430681739
12430690894
12430698462
12430709266
12430716346
12430727454
12430735022
12430744361
12430753150
12430758765
12430768287
12430775550
12430783545
12430790198
12430802039
12430810950
12430819068
12430827368
12430834998
12430839270
12430850195
12430856726
12430867285
12430874487
12430884680
12430891028
12430899146
12430907446
12430915381
12430924414
12430931860
12430942664
12430948950
12430958288
12430964941
12430973059
12430977209
12430987951
12430994482
12431007239
12431014380
12431023291
12431029516
12431037756
12431046911
12431052710
12431062902
12431070776
12431081091
12431089880
12431096106
12431102880
12431114843
12431121923
12431129614
12431135595
12431144750
12431151281
12431159826
12431166174
12431173681
12431182958
12431190099
12431196508
12431204870
12431213171
12431220068
12431227392
12431235448
12431241674
12431249486
12431257299
12431265722
12431272497
12431282140
12431288854
12431296117
12431304906
12431312475
12431319799
12431326085
12431335973
12431342321
12431351598
12431359349
12431366246
12431372655
12431380590
12431388768
12431397863
12431405065
12431412816
12431419713
12431429662
12431435521
12431443944
12431449803
12431458837
12431467259
12431475011
12431481297
12431488194
12431496007
12431502354
12431511693
12431518285
12431528416
12431537816
12431543553
12431551060
12431557957
12431565953
12431573460
12431582615
12431589818
12431593785
12431603489
12431609349
12431617772
12431623936
12431634129
12431640171
12431650425
12431657261
12431665318
12431673252
12431680516
12431688633
12431694371
12431703038
12431709629
12431718846
12431725132
12431732456
12431741123
12431748326
12431755833
12431762425
12431766392
12431778416
12431782810
12431792393
12431798679
12431807224
12431815037
12431820103
12431829380
12431839634
12431846409
12431855381
12431863743
12431869602
12431877476
12431885715
12431891880
12431900425
12431906772
12431913425
12431922641
12431928867
12431935703
12431942051
12431951572
12431958042
12431970127
12431978183
12431985569
12431991062
12431996616
12432002719
12432007053
12432009860
12432019016
12432023654
12432030185
12432036655
12432041294
12432046787
12432053317
12432060031
12432066257
12432072666
12432078098
12432082858
12432088229
12432093723
12432097812
12432105991
12432110629
12432118442
12432121494
12432129367
12432132480
12432138827
12432146396
12432152499
12432157260
12432162509
12432169284
12432174472
12432180209
12432185214
12432190158
12432197665
12432204867
12432211886
12432216586
12432225314
12432232089
12432238009
12432241061
12432251315
12432256930
12432262545
12432268893
12432274325
12432280001
12432286105
12432290621
12432298983
12432304660
12432310458
12432315646
12432323092
12432329562
12432337313
12432344149
12432351534
12432355929
12432362460
12432367526
12432372530
12432377779
12432383395
12432388155
12432397616
12432403170
12432408846
12432413119
12432419588
12432423922
12432430147
12432436495
12432440646
12432447359
12432453768
12432458224
12432462435
12432469332
12432474581
12432480868
12432484225
12432492220
12432497591
12432502962
12432507906
12432514864
12432519808
12432526217
12432530672
12432538057
12432542879
12432549288
12432555574
12432561312
12432565706
12432569979
12432577059
12432584139
12432590486
12432596163
12432600618
12432606111
12432612398
12432618074
12432623018
12432628328
12432635774
12432638887
12432649080
12432651949
12432658540
12432663179
12432671053
12432676668
12432684663
12432689607
12432696565
12432703889
12432709383
12432714510
12432721651
12432727449
12432730745
12432741426
12432745698
12432754793
12432760530
12432765962
12432773836
12432783296
12432788606
12432796296
12432806550
12432814424
12432821077
12432830232
12432834993
12432846223
12432853181
12432859529
12432868440
12432873201
12432886323
12432893525
12432905976
12432913484
12432920747
12432928987
12432937898
12432946748
12432958894
12432967744
12432977204
12432986482
12432995759
12433001191
12433015473
12433023591
12433030854
12433040986
12433052704
12433064240
12433075287
12433082734
12433091157
12433102875
12433111481
12433120270
12433130341
12433142853
12433154206
12433160492
12433173798
12433182282
12433191803
12433200714
12433211762
12433221100
12433226532
12433240570
12433246857
12433262482
12433271271
12433283966
12433293610
12433302338
12433316925
12433320160
12433337433
12433344025
12433358856
12433369476
12433378387
12433392425
12433395538
12433410370
12433420074
12433436432
12433446991
12433453338
12433466522
12433473480
12433489349
12433500213
12433508148
12433519866
12433526763
12433544158
12433553985
12433561858
12433575530
12433583526
12433593902
12433599761
12433610870
12433623321
12433631988
12433643523
12433650054
12433663543
12433672271
12433683928
12433693206
12433703154
12433711333
12433720305
12433734893
12433744170
12433752044
12433762114
12433774504
12433784819
12433791106
12433802092
12433813994
12433823882
12433835051
12433846892
12433854338
12433863188
12433875395
12433884062
12433891203
12433904387
12433910246
12433923796
12433933806
12433943754
12433952482
12433963225
12433973356
12433983244
12433991728
12434004179
12434013090
12434024992
12434036284
12434047697
12434054655
12434070524
12434083464
12434096830
12434103788
12434120329
12434131193
12434140104
12434151884
12434158415
12434170805
12434180570
12434192777
12434203031
12434212919
12434224332
12434230680
12434245023
12434254178
12434262357
12434275846
12434285611
12434296964
12434306058
12434319181
12434328336
12434337247
12434346891
12434352933
12434366544
12434375394
12434386685
12434395536
12434405362
12434416776
12434423306
12434435758
12434448087
12434454556
12434464688
12434475919
12434485989
12434492093
12434509000
12434518216
12434525052
12434536648
12434547330
12434555142
12434564297
12434574551
12434584195
12434593472
12434604397
12434612637
12434621975
12434630886
12434639370
12434652859
12434662625
12434674099
12434680813
12434693569
12434703091
12434715298
12434724758
12434734890
12434744412
12434753933
12434762112
12434773220
12434783474
12434795193
12434801907
12434816189
12434824917
12434833279
12434839565
12434846279
12434855251
12434863918
12434873379
12434875637
12434886989
12434894924
12434901455
12434909389
12434919582
12434926540
12434935024
12434945034
12434954616
12434960903
12434968410
12434978298
12434986110
12434991481
12435001857
12435003993
12435018825
12435026698
12435034206
12435038783
12435047695
12435055019
12435064052
12435071132
12435078639
12435088405
12435093471
12435104518
12435111293
12435118556
12435127101
12435134914
12435143519
12435148097
12435161281
12435170375
12435181056
12435189296
12435194789
12435203517
12435210170
12435217860
12435224940
12435233790
12435243190
12435248194
12435259242
12435265895
12435271144
12435281153
12435286585
12435294764
12435302760
12435313624
12435321559
12435329920
12435337000
12435343897
12435351099
12435358363
12435364283
12435371607
12435379481
12435386744
12435393092
12435397974
12435405360
12435409998
12435414332
12435420679
12435426722
12435432642
12435438746
12435444483
12435447291
12435455897
12435460962
12435466700
12435471155
12435479456
12435482569
12435490259
12435497095
12435502955
12435507349
12435512232
12435518152
12435524683
12435530664
12435535913
12435541834
12435547388
12435551722
12435556848
12435563684
12435568445
12435575952
12435580591
12435587183
12435592493
12435597681
12435600672
12435608850
12435612085
12435621729
12435627344
12435633264
12435637354
12435643457
12435649194
12435655542
12435660242
12435667627
12435672571
12435679163
12435684778
12435689966
12435695703
12435699609
12435705957
12435712183
12435719385
12435724329
12435730920
12435735498
12435740442
12435746240
12435752832
12435758081
12435766382
12435772485
12435778650
12435784997
12435792077
12435799341
12435803491
12435814050
12435821801
12435831445
12435839135
12435841455
12435853357
12435861291
12435869104
12435876306
12435886499
12435896081
12435902185
12435913293
12435920434
12435925988
12435936059
12435940514
12435949242
12435956017
12435966515
12435975365
12435985314
12435999474
12436008141
12436018151
12436027856
