12440599194
12440604992
12440609814
12440615185
12440620373
12440626660
12440632702
12440637341
12440642773
12440648693
12440654675
12440660290
12440666210
12440671337
12440675976
12440681286
12440686291
12440691479
12440695873
12440701244
12440706310
12440710705
12440716137
12440721325
12440726940
12440731640
12440736950
12440742138
12440746593
12440751659
12440757946
12440762524
12440767040
12440773388
12440778027
12440782665
12440787975
12440792126
12440797619
12440803173
12440808788
12440813305
12440818676
12440824596
12440828441
12440834240
12440840465
12440846447
12440851513
12440855602
12440861034
12440866710
12440872631
12440877575
12440883861
12440889293
12440894848
12440901195
12440907238
12440911754
12440916637
12440922741
12440928600
12440934093
12440939952
12440944652
12440949230
12440956249
12440960887
12440966319
12440971202
12440977184
12440981822
12440987377
12440994029
12440999461
12441003978
12441011241
12441017101
12441022777
12441032359
12441037242
12441045360
12441050670
12441058116
12441063426
12441070201
12441074535
12441082042
12441087718
12441095653
12441102305
12441106700
12441112376
12441119517
12441125316
12441130015
12441136119
12441142161
12441148082
12441155040
12441162974
12441169322
12441175914
12441182872
12441190318
12441197154
12441202464
12441209483
12441215342
12441223033
12441228831
12441235057
12441241954
12441248606
12441253184
12441259165
12441266612
12441273936
12441279185
12441288157
12441294383
12441300791
12441306895
12441313365
12441322154
12441329478
12441335703
12441343028
12441348032
12441354563
12441360484
12441370066
12441375986
12441381113
12441388071
12441393137
12441400278
12441404673
12441412241
12441419993
12441425364
12441430735
12441437205
12441442637
12441449228
12441454599
12441462107
12441469797
12441474619
12441482187
12441486643
12441493052
12441497568
12441505198
12441513071
12441519846
12441526377
12441533335
12441540537
12441546640
12441551950
12441557932
12441565256
12441571726
12441577402
12441585031
12441590402
12441597971
12441602304
12441611215
12441616708
12441624460
12441630319
12441636057
12441641977
12441650644
12441656442
12441663705
12441671152
12441678964
12441687631
12441695383
12441701852
12441709054
12441716257
12441721139
12441728464
12441739206
12441745187
12441752023
12441760385
12441766610
12441775583
12441781808
12441789499
12441796518
12441805734
12441810067
12441817392
12441829049
12441837350
12441845223
12441857675
12441864388
12441871346
12441878304
12441886666
12441893380
12441901132
12441908639
12441914376
12441920968
12441929818
12441936532
12441945382
12441951485
12441958749
12441968697
12441975472
12441986275
12441993722
12442001168
12442009713
12442016427
12442021676
12442028145
12442033944
12442039864
12442044808
12442050240
12442055123
12442060372
12442062996
12442069161
12442074654
12442080147
12442085946
12442090462
12442094613
12442100899
12442104805
12442110726
12442115548
12442119759
12442125923
12442130257
12442135323
12442140511
12442145699
12442151680
12442156441
12442161019
12442165413
12442171456
12442177193
12442182991
12442190193
12442200325
12442205757
12442211006
12442215828
12442221016
12442226143
12442230965
12442236214
12442240425
12442245186
12442249702
12442255867
12442260139
12442264778
12442271126
12442276497
12442284309
12442288032
12442294929
12442300484
12442306099
12442311836
12442316414
12442323250
12442327339
12442333015
12442337959
12442344429
12442349800
12442355720
12442360481
12442366768
12442372932
12442378303
12442383003
12442389473
12442394661
12442400581
12442406135
12442412239
12442418403
12442425483
12442430610
12442434394
12442443611
12442449958
12442455573
12442460639
12442467597
12442472175
12442479377
12442486457
12442491828
12442499885
12442504829
12442511176
12442516425
12442521064
12442527778
12442533515
12442539436
12442544685
12442553107
12442558295
12442567023
12442572639
12442578986
12442585700
12442592292
12442599067
12442606269
12442611518
12442618415
12442622626
12442628608
12442632209
12442640204
12442646125
12442651679
12442657111
12442662116
12442664740
12442671271
12442677619
12442683295
12442687934
12442692878
12442698005
12442703009
12442707770
12442713446
12442719306
12442726203
12442730963
12442737677
12442742560
12442748114
12442754279
12442758673
12442764716
12442770453
12442776007
12442781317
12442786139
12442791205
12442797125
12442802863
12442808234
12442815802
12442821356
12442826605
12442830939
12442836859
12442841010
12442848761
12442856696
12442867316
12442873419
12442882025
12442889227
12442894903
12442903326
12442909552
12442916876
12442923834
12442932135
12442939215
12442946661
12442953863
12442960638
12442968145
12442974859
12442984320
12442994329
12443002142
12443008734
12443016424
12443023931
12443031866
12443038092
12443045416
12443053411
12443061224
12443070745
12443077825
12443085577
12443091863
12443099981
12443107916
12443115850
12443125250
12443133489
12443137823
12443147832
12443154058
12443164678
12443170904
12443178350
12443186529
12443194707
12443203008
12443210576
12443218511
12443226873
12443235967
12443244085
12443250432
12443261846
12443270757
12443277715
12443286687
12443292669
12443301885
12443311223
12443319036
12443325627
12443334294
12443342595
12443349858
12443355535
12443363042
12443372136
12443378911
12443385930
12443393620
12443402837
12443407781
12443417058
12443422124
12443431523
12443438237
12443445561
12443454106
12443461735
12443468388
12443475529
12443482182
12443489873
12443495488
12443504094
12443510136
12443520451
12443527226
12443533879
12443542424
12443549199
12443556340
12443562931
12443572880
12443581913
12443589421
12443596257
12443604679
12443612309
12443619938
12443623783
12443633366
12443644291
12443650395
12443656132
12443665287
12443673710
12443681461
12443687748
12443693852
12443703861
12443713261
12443719303
12443728153
12443736942
12443742191
12443751530
12443757633
12443767338
12443773929
12443781376
12443788944
12443796024
12443803348
12443811771
12443818912
12443827396
12443837162
12443845340
12443849125
12443858280
12443864444
12443873783
12443879947
12443888004
12443895572
12443903873
12443913150
12443919010
12443927616
12443934268
12443940860
12443947269
12443954654
12443962589
12443970401
12443977969
12443985599
12443993167
12444000369
12444007571
12444015445
12444022586
12444031558
12444038272
12444044925
12444054629
12444062198
12444070193
12444077090
12444084964
12444094119
12444101504
12444107669
12444116336
12444123843
12444133243
12444140201
12444148318
12444156436
12444164187
12444170657
12444178714
12444186465
12444191348
12444198245
12444206851
12444214297
12444221499
12444228457
12444234988
12444242556
12444248110
12444253848
12444259524
12444265383
12444271914
12444276614
12444282900
12444287417
12444291750
12444297610
12444302065
12444308535
12444315249
12444319216
12444323183
12444328616
12444333559
12444339053
12444345705
12444349978
12444355044
12444360293
12444365542
12444369448
12444375002
12444380007
12444385500
12444388308
12444395449
12444400881
12444406496
12444410952
12444416384
12444421816
12444426821
12444431521
12444436281
12444441469
12444445620
12444451845
12444456850
12444462893
12444467653
12444473452
12444480043
12444484316
12444491091
12444496645
12444499941
12444505556
12444512087
12444517824
12444523134
12444527162
12444533022
12444538210
12444544130
12444550051
12444555544
12444559023
12444566652
12444571108
12444575990
12444583193
12444589052
12444594057
12444597780
12444603883
12444609316
12444615419
12444621828
12444626039
12444632326
12444637025
12444643739
12444649110
12444654787
12444660158
12444666200
12444671449
12444678590
12444684755
12444691591
12444697877
12444704347
12444711061
12444717286
12444722047
12444727174
12444734559
12444741029
12444748842
12444754457
12444760621
12444767701
12444773133
12444780153
12444785768
12444789857
12444793702
12444797609
12444802125
12444806214
12444811158
12444815370
12444819337
12444824098
12444828736
12444833558
12444838014
12444842530
12444847413
12444851991
12444856690
12444861146
12444865479
12444868165
12444875062
12444879640
12444885255
12444889771
12444893494
12444897767
12444903504
12444908387
12444913453
12444917908
12444922364
12444926820
12444930665
12444935059
12444939210
12444943726
12444947816
12444953614
12444960328
12444965699
12444970399
12444976258
12444980469
12444987183
12444991517
12444995972
12445003480
12445007508
12445013306
12445016846
12445023194
12445027833
12445032349
12445038575
12445046998
12445053467
12445059876
12445066468
12445073182
12445080811
12445087891
12445094727
12445101929
12445108399
12445116150
12445124146
12445131470
12445138550
12445144531
12445151612
12445159790
12445165955
12445173889
12445180176
12445187073
12445196716
12445203369
12445210205
12445217773
12445226868
12445232666
12445241150
12445249451
12445257568
12445265991
12445274353
12445280884
12445288818
12445296753
12445304992
12445313049
12445319580
12445328674
12445334655
12445343261
12445348449
12445356140
12445366272
12445372680
12445379394
12445388855
12445396423
12445403869
12445411743
12445419677
12445426879
12445433959
12445439697
12445447570
12445456237
12445464233
12445470397
12445478210
12445487731
12445495544
12445501769
12445509032
12445516845
12445524780
12445530944
12445539733
12445546447
12445555480
12445561706
12445569091
12445576598
12445584411
12445591064
12445598876
12445606139
12445614623
12445623656
12445629393
12445636718
12445643676
12445651549
12445659484
12445666747
12445675597
12445683287
12445690062
12445696227
12445704833
12445712035
12445717772
12445723632
12445733092
12445742491
12445748778
12445755370
12445764159
12445770445
12445779234
12445784300
12445794066
12445801390
12445808592
12445817442
12445824644
12445830992
12445838194
12445845152
12445853331
12445862669
12445870604
12445877745
12445885069
12445890990
12445898131
12445903990
12445912230
12445918821
12445929503
12445935911
12445942991
12445951414
12445956907
12445965391
12445972960
12445980162
12445987120
12445996458
12446002806
12446010252
12446016600
12446024961
12446034483
12446042539
12446052610
12446059934
12446066526
12446074644
12446081419
12446091184
12446097288
12446107175
12446114500
12446123594
12446130003
12446136228
12446142942
12446150083
12446156492
12446166013
12446174802
12446182004
12446188230
12446195371
12446202878
12446209836
12446215574
12446224180
12446231077
12446240415
12446246335
12446253049
12446258970
12446265744
12446273252
12446280576
12446289548
12446297483
12446303342
12446310788
12446317685
12446325925
12446331723
12446338559
12446348508
12446356381
12446362729
12446371518
12446377622
12446385861
12446392575
12446399472
12446404782
12446411435
12446416806
12446420163
12446427365
12446432065
12446436887
12446441464
12446446408
12446452389
12446457455
12446461789
12446467404
12446471799
12446476864
12446480771
12446485959
12446490964
12446497922
12446502133
12446506589
12446512326
12446516842
12446521298
12446525998
12446532589
12446538449
12446543393
12446547543
12446553830
12446559689
12446564328
12446568661
12446574215
12446582211
12446587521
12446593380
12446599789
12446604000
12446609432
12446613400
12446618160
12446624020
12446630673
12446635555
12446642025
12446646237
12446652279
12446656979
12446662594
12446668148
12446676022
12446681942
12446687557
12446693539
12446699642
12446704342
12446709042
12446715755
12446723995
12446729488
12446736019
12446742062
12446746578
12446753536
12446757442
12446762691
12446767879
12446775753
12446780147
12446786556
12446790767
12446795711
12446802303
12446807003
12446812557
12446817989
12446823055
12446828365
12446832882
12446837398
12446842952
12446847103
12446853572
12446857906
12446863216
12446868038
12446873531
12446878963
12446883846
12446888118
12446893428
12446898067
12446903987
12446910274
12446913387
12446919734
12446923519
12446931880
12446943355
12446950435
12446959407
12446966914
12446976924
12446984309
12446992671
12447001765
12447008968
12447020137
12447028987
12447036494
12447043941
12447051692
12447058528
12447065913
12447073848
12447084773
12447094050
12447103999
12447112239
12447119136
12447129207
12447137080
12447145381
12447153315
12447161738
12447169856
12447177668
12447186091
12447193110
12447202754
12447210627
12447219294
12447226069
12447234370
12447243220
12447250849
12447257502
12447268610
12447276118
12447281672
12447292170
12447300654
12447310236
12447315913
12447326228
12447338129
12447346857
12447358332
12447366633
12447379206
12447389338
12447402094
12447413630
12447421808
12447433405
12447443049
12447453669
12447464777
12447473383
12447484369
12447491083
12447501947
12447509699
12447523065
12447536066
12447546137
12447554254
12447563165
12447573114
12447581964
12447593683
12447603021
12447610651
12447621881
12447634820
12447644647
12447653985
12447663934
12447676446
12447685785
12447696161
12447705743
12447714288
12447726739
12447734491
12447746270
12447757623
12447765252
12447773614
12447783929
12447791864
12447803460
12447812493
12447825433
12447839471
12447850518
12447859734
12447867913
12447877435
12447886590
12447896905
12447908623
12447918450
12447927972
12447937737
12447946465
12447956475
12447966790
12447976189
12447985894
12447995720
12448004632
12448014275
12448025506
12448034356
12448045464
12448055474
12448064324
12448073662
12448083245
12448093132
12448103874
12448114250
12448124077
12448132622
12448142571
12448151116
12448161186
12448169731
12448178398
12448189629
12448197807
12448208855
12448215874
12448226921
12448236442
12448246879
12448254326
12448265068
12448274833
12448285270
12448294487
12448305656
12448315239
12448323845
12448335258
12448345146
12448353447
12448364982
12448374504
12448383293
12448394340
12448402885
12448411796
12448421501
12448431571
12448439506
12448446464
12448455131
12448460929
12448467277
12448475333
12448481864
12448487846
12448494987
12448502494
12448508659
12448514884
12448521476
12448526603
12448534049
12448538932
12448546744
12448553031
12448560111
12448566093
12448573417
12448578238
12448587821
12448596610
12448603263
12448609366
12448615592
12448622062
12448627738
12448636649
12448644950
12448652335
12448661429
12448668570
12448675223
12448682303
12448687979
12448696402
12448702140
12448709952
12448718802
12448725150
12448733817
12448739615
12448748465
12448754141
12448762564
12448768790
12448775259
12448783072
12448791373
12448797476
12448805411
12448810721
12448818472
12448825613
12448832144
12448839651
12448846182
12448856863
12448862906
12448870047
12448879446
12448884695
12448890799
12448896414
12448901724
12448907156
12448911306
12448916678
12448922781
12448927908
12448932608
12448938955
12448942923
12448949270
12448954519
12448958120
12448964529
12448970083
12448977041
12448984548
12448991690
12448997549
12449001943
12449007070
12449014211
12449017507
12449024648
12449029409
12449034353
12449039114
12449044424
12449050771
12449056387
12449060476
12449066702
12449070425
12449075674
12449080923
12449085256
12449091116
12449096792
12449103078
12449107717
12449111257
12449115713
12449119863
12449125112
12449129995
12449133291
12449139028
12449143362
12449147939
12449151540
12449157216
12449162099
12449167348
12449172841
12449177724
12449182607
12449187429
12449194570
12449199209
12449205251
12449210317
12449217153
12449221608
12449227651
12449232351
12449237539
12449242238
12449246328
12449253469
12449257985
12449263051
12449268727
12449273915
12449278249
12449283620
12449289418
12449295339
12449299855
12449306752
12449311208
12449317494
12449322316
12449328237
12449334035
12449340016
12449344167
12449351247
12449355946
12449362172
12449366933
12449372121
12449376942
12449383107
12449390370
12449395741
12449401173
12449406911
12449411305
12449416981
12449422169
12449427785
12449433583
12449440236
12449444935
12449450062
12449455250
12449459645
12449465870
12449471181
12449476185
12449481923
12449486500
12449492848
12449498768
12449505543
12449511219
12449517201
12449521840
12449529530
12449537281
12449542286
12449548634
12449553944
12449559437
12449565113
12449569874
12449577320
12449583668
12449589588
12449593373
12449600392
12449605274
12449610890
12449615589
12449621082
12449625172
12449631031
12449636219
12449640370
12449645985
12449650807
12449659474
12449665821
12449673939
12449679981
12449687000
12449696339
12449701221
12449710560
12449717335
12449726734
12449733448
12449740833
12449747486
12449756641
12449764942
12449772327
12449785755
12449793995
12449801929
12449808338
12449817371
12449823475
12449830310
12449840137
12449848804
12449855335
12449862964
12449869983
12449879261
12449886035
12449892566
12449902271
12449910571
12449916797
12449924610
12449931934
12449939563
12449948963
12449955798
12449963367
12449971057
12449980273
12449987781
12449995166
12450003162
12450010181
12450017505
12450025317
12450034473
12450041736
12450049121
12450057605
12450066028
12450074145
12450083117
12450090075
12450100024
12450107470
12450114123
12450124560
12450131823
12450139575
12450147815
12450155871
12450165942
12450172473
12450181140
12450188159
12450196826
12450204821
12450213915
12450220812
12450230029
12450238207
12450248095
12450256884
12450263781
12450275195
12450281542
12450290209
12450299120
12450307421
12450316271
12450325304
12450333239
12450339403
12450348315
12450356127
12450363024
12450370104
12450379320
12450386522
12450394762
12450403063
12450410143
12450418383
12450425524
12450431994
12450440050
12450448961
12450457628
12450463915
12450471849
12450478075
12450487657
12450494066
12450500597
12450509691
12450517259
12450526659
12450531969
12450539842
12450543871
12450557237
12450564134
12450572008
12450580736
12450588670
12450593126
12450603685
12450610887
12450619066
12450628526
12450634813
12450642564
12450651903
12450659593
12450666856
12450675828
12450684129
12450692674
12450699754
12450707994
12450717149
12450725328
12450732896
12450740770
12450747117
12450754014
12450763902
12450770738
12450778001
12450787583
12450795274
12450801927
12450809800
12450818162
12450824265
12450833848
12450839646
12450848069
12450856248
12450863023
12450870408
12450880174
12450887376
12450894578
12450902146
12450912095
12450918565
12450926316
12450933762
12450941636
12450949692
12450957810
12450964890
12450972764
12450979172
12450988633
12450994919
12451004197
12451010422
12451018784
12451028122
12451034165
12451043320
12451050278
12451060044
12451067856
12451078171
12451086289
12451094467
12451102585
12451110520
12451115769
12451121994
12451128830
12451135666
12451140183
12451146530
12451152451
12451157456
12451163071
12451168503
12451173752
12451179855
12451185471
12451191025
12451196457
12451202927
12451209579
12451213058
12451219406
12451224289
12451229660
12451235641
12451240524
12451246445
12451251571
12451257492
12451262314
12451266708
12451272384
12451279464
12451283493
12451289474
12451295089
12451301437
12451307113
12451311325
12451317672
12451322128
12451328292
12451333297
12451338729
12451346176
12451351303
12451357528
12451361557
12451368270
12451372055
12451379440
12451384078
12451389511
12451395431
12451399948
12451404403
12451411300
12451415695
12451422592
12451427047
12451432906
12451438155
12451444259
12451449691
12451455673
12451461410
12451466964
12451472274
12451478011
12451482345
12451487350
12451494064
12451498458
12451504867
12451509627
12451516952
12451521529
12451526595
12451534408
12451539840
12451545455
12451551192
12451556930
12451563460
12451568404
12451573165
12451578536
12451585006
12451589461
12451595992
12451600448
12451607650
12451611373
12451618453
12451624617
12451630843
12451635665
12451641585
12451644515
12451653243
12451660201
12451665999
12451669234
12451677718
12451684065
12451694564
12451700423
12451705794
12451712874
12451717940
12451723250
12451729048
12451738814
12451743941
12451748946
12451754805
12451759505
12451764082
12451769026
12451773787
12451778853
12451785628
12451790083
12451796919
12451801863
12451806990
12451812178
12451817244
12451822981
12451829695
12451833357
12451839827
12451844710
12451849776
12451854292
12451859297
12451865278
12451870100
12451875227
12451880537
12451886763
12451890791
12451894392
12451900557
12451906965
12451910627
12451919050
12451928511
12451933271
12451940229
12451945112
12451949812
12451958052
12451963362
12451968550
12451975508
12451983442
12451991072
12451998945
12452006574
12452013044
12452019331
12452029951
12452039045
12452047102
12452051313
12452061750
12452068037
12452078840
12452085615
12452093977
12452102644
12452107526
12452116743
12452123701
12452133344
12452138349
12452148481
12452154767
12452162885
12452171552
12452177350
12452183637
12452193830
12452200849
12452209272
12452215863
12452225507
12452232404
12452239301
12452247052
12452254499
12452262433
12452269208
12452280255
12452287335
12452295941
12452305280
12452311688
12452318646
12452329572
12452336224
12452343671
12452354474
12452363385
12452371686
12452378705
12452388470
12452394025
12452408368
12452418317
12452426190
12452435956
12452442670
12452452801
12452457928
12452468426
12452476666
12452484234
12452491925
12452501385
12452507489
12452516522
12452524456
12452531903
12452539166
12452547345
12452555706
12452561688
12452571392
12452577679
12452586285
12452594158
12452600506
12452607891
12452616985
12452622723
12452632000
12452640179
12452647625
12452654095
12452662212
12452671490
12452677410
12452686993
12452695110
12452702373
12452710308
12452718609
12452723858
12452733501
12452739666
12452748821
12452756328
12452766033
12452774090
12452781841
12452788494
12452798626
12452805706
12452813213
12452820598
12452829021
12452838787
12452846599
12452850688
12452862041
12452870098
12452878643
12452885784
12452896831
12452905010
12452914958
12452924968
12452932842
12452944255
12452954997
12452963908
12452972881
12452984355
12452996196
12453007304
12453017314
12453027385
12453037761
12453049174
12453057414
12453070842
12453082499
12453090617
12453102946
12453116923
12453128764
12453138163
12453151408
12453157756
12453168009
12453182414
12453191752
12453199381
12453211833
12453224345
12453231791
12453245951
12453258158
12453266398
12453279459
12453290446
12453300577
12453310831
12453324686
12453335673
12453344401
12453357523
12453368082
12453380472
12453386698
12453400919
12453417093
12453433329
12453445230
12453456217
12453472269
12453483744
12453494119
12453503458
12453513712
12453527322
12453535928
12453546182
12453555460
12453567056
12453575479
12453586649
12453598123
12453606180
12453613626
12453622293
12453630838
12453640359
12453647500
12453654092
12453662454
12453667764
12453675393
12453683084
12453690713
12453699380
12453701822
12453714517
12453719278
12453726541
12453738504
12453744607
12453752664
12453759683
12453766763
12453775186
12453781961
12453789285
12453795632
12453802285
12453809976
12453815408
12453825540
12453832314
12453838357
12453846780
12453853738
12453861611
12453868142
12453878091
12453885476
12453892983
12453901833
12453909218
12453916238
12453920815
12453930886
12453936074
12453943337
12453952492
12453960488
12453969704
12453975808
12453982827
12453990700
12453997475
12454006203
12454014870
12454022072
12454032143
12454038124
12454048317
12454054421
12454061562
12454070717
12454076882
12454085365
12454093422
12454101113
12454110451
12454119179
12454126381
12454130898
12454141701
12454147011
12454153969
12454163857
12454170692
12454182716
12454192726
12454203590
12454210426
12454222145
12454228187
12454234962
12454244850
12454250526
12454260292
12454265236
12454275734
12454282020
12454290809
12454298561
12454305397
12454313392
12454320839
12454330604
12454336769
12454346717
12454353858
12454359046
12454370216
12454379737
12454388709
12454399513
12454404701
12454417457
12454425697
12454438209
12454445472
12454453712
12454467017
12454472205
12454482337
12454491675
12454498389
12454505897
12454513526
12454522071
12454528663
12454538306
12454542457
12454550269
12454558021
12454567176
12454572181
12454583167
12454588965
12454595862
12454604041
12454607825
12454615088
12454621863
12454628760
12454636267
12454643225
12454652259
12454656775
12454664527
12454672644
12454681067
12454687171
12454695654
12454702429
12454710364
12454719092
12454728674
12454732703
12454740637
12454748572
12454754614
12454760840
12454767126
12454777014
12454788122
12454793799
12454802038
12454807593
12454811926
12454822851
12454830603
12454836218
12454845068
12454850500
12454858557
12454866552
12454874609
12454883032
12454888525
12454897375
12454904028
12454909033
12454917395
12454928564
12454936499
12454943457
12454953039
12454962072
12454973547
12454980322
12454990454
12455001379
12455014745
12455022863
12455035009
12455047033
12455052831
12455066991
12455076818
12455087072
12455098180
12455110265
12455118383
12455129247
12455137487
12455146825
12455161596
12455171239
12455182042
12455193822
12455196935
12455216832
12455225011
12455237706
12455249974
12455259008
12455268407
12455280065
12455291173
12455295751
12455311986
12455321263
12455328465
12455341405
12455347874
12455360020
12455371251
12455380162
12455389928
12455408055
12455420506
12455432286
12455443883
12455452977
12455464390
12455477269
12455491185
12455502659
12455514256
12455522557
12455531712
12455543431
12455550938
12455562596
12455570957
12455583409
12455590489
12455601292
12455613560
12455624302
12455635227
12455643650
12455652866
12455662449
12455672947
12455682102
12455693943
12455702427
12455714146
12455723057
12455732273
12455743137
12455750034
12455761509
12455772617
12455784458
12455794162
12455803745
12455814548
12455823764
12455835178
12455841281
12455851902
12455865573
12455874057
12455884311
12455894077
12455902561
12455912326
12455923740
12455932834
12455941867
12455952365
12455961642
12455972751
12455978915
12455992404
12456001803
12456009372
12456020663
12456032443
12456040988
12456050509
12456061374
12456075229
12456084689
12456097140
12456105929
12456117465
12456125338
12456137362
12456146090
12456160433
12456170199
12456181307
12456190768
12456199069
12456209261
12456218539
12456230807
12456240267
12456251376
12456261690
12456270541
12456279391
12456288180
12456298922
12456311312
12456321627
12456332003
12456341402
12456349703
12456359652
12456368319
12456374910
12456381380
12456389681
12456400240
12456409151
12456418550
12456426607
12456433077
12456439608
12456449129
12456456270
12456463777
12456472811
12456480257
12456486604
12456495332
12456502779
12456513948
12456520723
12456529512
12456543428
12456551790
12456559602
12456566438
12456574190
12456582918
12456590852
12456596773
12456603486
12456612214
12456618074
12456627473
12456633760
12456641878
12456649324
12456659822
12456666841
12456674714
12456680940
12456687959
12456696016
12456703523
12456710420
12456718660
12456726289
12456732026
12456738313
12456745088
12456749116
12456757112
12456762483
12456766145
12456773774
12456779389
12456785005
12456790559
12456795869
12456800935
12456807282
12456810517
12456817902
12456824128
12456830720
12456837251
12456841706
12456847871
12456854096
12456857270
12456864228
12456869416
12456874970
12456880768
12456885895
12456891755
12456895783
12456902741
12456906708
12456912202
12456917878
12456923981
12456928986
12456935273
12456939972
12456946137
12456951325
12456956818
12456962922
12456970124
12456975983
12456980500
12456986786
12456992402
12456998200
12457002228
12457008271
12457017121
12457022797
12457027130
12457033722
12457039459
12457043854
12457048554
12457056000
12457061737
12457068634
12457074616
12457079987
12457085175
12457090729
12457095917
12457101227
12457108246
12457115692
12457123261
12457134247
12457138519
12457142853
12457150482
12457156891
12457165314
12457171783
12457178863
12457189850
12457194794
12457203216
12457211334
12457216766
12457222381
12457228058
12457234771
12457238312
12457246063
12457253021
12457258026
12457263824
12457269439
12457275421
12457280121
12457284942
12457289764
12457294830
12457299896
12457305633
12457308685
12457313995
12457317840
12457322113
12457326751
12457331878
12457338226
12457341827
12457349578
12457356170
12457360443
12457365264
12457370208
12457375274
12457381255
12457387054
12457390777
12457395171
12457400420
12457406768
12457410919
12457417510
12457422759
12457426849
12457430694
12457436431
12457440765
12457447051
12457451202
12457456206
12457463409
12457467437
12457471282
12457476775
12457481048
12457487090
12457490996
12457498504
12457504363
12457510222
12457514983
12457521270
12457525298
12457530242
12457535430
12457540862
12457547515
12457553008
12457560210
12457567473
12457581328
12457588042
12457595671
12457605010
12457613250
12457622344
12457628264
12457637480
12457644866
12457653777
12457661223
12457668364
12457676116
12457685210
12457693083
12457701933
12457709746
12457718718
12457724089
12457733488
12457741728
12457748930
12457757353
12457765288
12457773344
12457781279
12457789336
12457797148
12457808012
12457814970
12457823271
12457830961
12457840239
12457848234
12457856657
12457864409
12457871977
12457881315
12457889799
12457896391
12457902800
12457911894
12457918608
12457929594
12457936247
12457945219
12457950712
12457960234
12457968046
12457975736
12457982389
12457990507
12457998869
12458007047
12458015287
12458023405
12458030363
12458038602
12458045133
12458054411
12458061185
12458070890
12458077482
12458084257
12458093534
12458101957
12458109464
12458116178
12458124418
12458133024
12458141507
12458149137
12458157254
12458164945
12458173429
12458177823
12458188382
12458194974
12458201688
12458213651
12458220914
12458228299
12458237027
12458243802
12458251798
12458259488
12458267606
12458276090
12458283902
12458292081
12458297147
12458308438
12458312711
12458321011
12458331082
12458337735
12458347806
12458356351
12458362637
12458370816
12458379483
12458387417
12458395901
12458407010
12458415066
12458420987
12458428982
12458437466
12458443326
12458452115
12458460537
12458466641
12458475369
12458481900
12458488247
12458496792
12458502835
12458511807
12458518704
12458525784
12458535549
12458544583
12458551052
12458559475
12458565029
12458574185
12458578884
12458589199
12458597561
12458608791
12458618374
12458625210
12458637417
12458645901
12458659573
12458666958
12458677090
12458685451
12458693447
12458701565
12458709011
12458719326
12458727810
12458736110
12458744961
12458751735
12458760036
12458768459
12458774868
12458784023
12458790493
12458799465
12458808437
12458813320
12458822719
12458829311
12458838893
12458845790
12458855190
12458861965
12458871059
12458878505
12458885524
12458890712
12458900050
12458906703
12458914394
12458922633
12458930629
12458937770
12458945033
12458951869
12458960231
12458966029
12458974147
12458980434
12458990443
12458997523
12459001491
12459008327
12459013270
12459018702
12459022120
12459028285
12459033534
12459038539
12459043971
12459050074
12459054164
12459059962
12459065150
12459069850
12459074916
12459079737
12459084132
12459090358
12459095485
12459101466
12459106715
12459112086
12459118617
12459124293
12459129481
12459135157
12459138026
12459144984
12459150538
12459154139
12459160670
12459165614
12459172328
12459177943
12459182887
12459187525
12459192896
12459199488
12459203761
12459210658
12459216273
12459221217
12459226893
12459231226
12459237574
12459241907
12459247889
12459254298
12459260340
12459265345
12459271509
12459276819
12459284510
12459289576
12459297449
12459305201
12459311243
12459318384
12459324549
12459330164
12459337488
12459342798
12459348658
12459352381
12459358118
12459363306
12459367701
12459371973
12459377222
12459381678
12459389063
12459395349
12459399378
12459405115
12459410974
12459416284
12459422022
12459428125
12459435877
12459440821
12459447229
12459452173
12459457300
12459463648
12459469385
12459474207
12459479822
12459485620
12459491113
12459496790
12459502039
12459505579
12459511499
12459517236
12459522668
12459527124
12459534326
12459539636
12459546106
12459550561
12459557397
12459563257
12459569665
12459574243
12459579431
12459586084
12459589990
12459596826
12459602441
12459608179
12459615564
12459621057
12459625757
12459631677
12459638757
12459643091
12459650049
12459655969
12459661767
12459667566
12459670800
12459677209
12459682092
12459688501
12459693383
12459702050
12459707849
12459713525
12459717858
12459724511
12459729028
12459734033
12459739160
12459744714
12459750817
12459757348
12459763757
12459769311
12459774560
12459778771
12459785485
12459793725
12459798241
12459805138
12459810693
12459815514
12459820519
12459824792
12459832482
12459839989
12459847436
12459858849
12459868432
12459883568
12459891381
12459906029
12459920495
12459928368
12459943261
12459955956
12459968468
12459981591
12459991112
12460005455
12460012474
12460024620
12460036339
12460048302
12460059899
12460071251
12460080711
12460090660
12460103111
12460118553
12460132225
12460142296
12460151329
12460164940
12460171654
12460188927
12460200462
12460208275
12460219932
12460231773
12460243126
12460253013
12460265648
12460272361
12460284263
12460297996
12460305992
12460318260
12460329917
12460343101
12460350425
12460365806
12460376243
12460386375
12460398032
12460409507
12460418662
12460429160
12460440635
12460452720
12460461509
12460473289
12460484214
12460497092
12460506186
12460514243
12460525351
12460534079
12460545615
12460554648
12460564048
12460576560
12460589804
12460598227
12460609824
12460618613
12460627829
12460638388
12460649069
12460657981
12460670065
12460681296
12460689536
12460704123
12460713705
12460721640
12460735190
12460743918
12460753683
12460763388
12460772970
12460786276
12460797445
12460805929
12460817648
12460826925
12460834799
12460845907
12460854696
12460866903
12460881552
12460890585
12460899313
12460907308
12460917745
12460927084
12460938436
12460944113
12460958151
12460968343
12460976644
12460987631
12460999105
12461007406
12461016134
12461027303
12461035970
12461046163
12461056417
12461064840
12461077047
12461082845
12461097921
12461107869
12461119527
12461133321
12461147115
12461159688
12461173299
12461188069
12461202474
12461214253
12461226460
12461237996
12461249959
12461259603
12461267293
12461276631
12461289082
12461297261
12461306111
12461315816
12461322713
12461333516
12461346944
12461360615
12461368367
12461378743
12461388264
12461394673
12461406941
12461416035
12461426960
12461439778
12461447773
12461457112
12461468281
12461477009
12461485981
12461496479
12461509114
12461516682
12461529682
12461542683
12461553059
12461560383
12461571125
12461580952
12461592732
12461602253
12461614155
12461622028
12461638386
12461648762
12461657062
12461669819
12461678547
12461685993
12461697346
12461709736
12461718036
12461727314
12461736164
12461740009
12461748249
12461755329
12461762409
12461770465
12461772602
12461783710
12461791889
12461800861
12461808551
12461813495
12461821430
12461825580
12461834125
12461843463
12461850360
12461855548
12461865314
12461872028
12461877887
12461884235
12461891925
12461898700
12461906940
12461911456
12461920612
12461925372
12461932758
12461940082
12461947406
12461954791
12461958942
12461968707
12461975177
12461981280
12461989337
12461994708
12462003009
12462010516
12462016070
12462021808
12462027545
12462035113
12462042743
12462050860
12462055560
12462064593
12462071063
12462078021
12462086077
12462093157
12462100054
12462106341
12462112445
12462120379
12462126727
12462136798
12462145587
12462154437
12462165972
12462173113
12462181048
12462187212
12462197649
12462205279
12462214556
12462223345
12462230364
12462238665
12462247515
12462254168
12462259783
12462273028
12462281573
12462287432
12462297442
12462304827
12462314226
12462318560
12462325945
12462334673
12462342180
12462351519
12462357439
12462366289
12462373125
12462380510
12462386858
12462391863
12462404802
12462412615
12462418840
12462426775
12462433000
12462440630
12462444292
12462454118
12462460039
12462467241
12462471941
12462480486
12462488603
12462491899
12462500200
12462505998
12462513261
12462518755
12462525224
12462532121
12462539629
12462547197
12462551652
12462558855
12462567522
12462573686
12462580644
12462584794
12462592302
12462599504
12462607255
12462614152
12462620988
12462626848
12462633744
12462640397
12462646257
12462653642
12462661393
12462668962
12462672929
12462680131
12462689286
12462696122
12462703141
12462709123
12462716630
12462725053
12462731217
12462737321
12462745255
12462752519
12462758500
12462766618
12462770951
12462780717
12462787370
12462795304
12462800736
12462807694
12462817704
12462822221
12462830765
12462840226
12462845597
12462854081
12462864091
12462873063
12462880387
12462885514
12462893265
12462898758
12462907731
12462912491
12462921769
12462931107
12462938370
12462946915
12462953751
12462965836
12462976700
12462992081
12463003983
12463014969
12463028824
12463043472
12463059281
12463069534
12463080460
12463092178
12463109695
12463120438
12463129471
12463140884
12463151810
12463161270
12463168045
12463181778
12463191360
12463201004
12463215408
12463224502
12463235855
12463245071
12463254837
12463262893
12463272171
12463282302
12463289810
12463301162
12463310623
12463318313
12463326553
12463334854
12463344863
12463354995
12463362869
12463373733
12463380569
12463391250
12463402602
12463410476
12463420119
12463428847
12463440566
12463449599
12463458144
12463468032
12463479018
12463487990
12463497695
12463504592
12463518081
12463529616
12463536818
12463552260
12463562392
12463572890
12463578871
12463595351
12463605544
12463613051
12463625807
12463638747
12463648024
12463658400
12463667616
12463679640
12463690077
12463703505
12463710219
12463722243
12463734450
12463746352
12463756972
12463767225
12463777785
12463791151
12463795424
12463812452
12463819288
12463835035
12463846022
12463855848
12463865248
12463876051
12463887953
12463899977
12463908033
12463921034
12463933790
12463942152
12463953687
12463964735
12463975599
12463984449
12463992445
12464004896
12464019239
12464027845
12464040113
12464050611
12464061109
12464071424
12464082776
12464090894
12464103834
12464113721
12464125074
12464136182
12464145337
12464157911
12464164258
12464178540
12464188001
12464196485
12464209790
12464218701
12464233350
12464245130
12464255628
12464267590
12464277417
12464291089
12464298596
12464315869
12464325574
12464336133
12464348096
12464356579
12464369153
12464379895
12464387402
12464400891
12464409253
12464419568
12464430981
12464442273
12464448559
12464462536
12464472790
12464482983
12464493542
12464501843
12464510266
12464519482
12464529736
12464540173
12464551891
12464559399
12464569531
12464581005
12464590405
12464598400
12464612072
12464622509
12464632885
12464643322
12464651562
12464660717
12464668041
12464681347
12464689586
12464700695
12464711864
12464719555
12464730724
12464736644
12464747387
12464754100
12464780529
12464786754
12464797008
12464802684
12464811290
12464820995
12464829173
12464836864
12464843028
12464852367
12464859264
12464865184
12464871471
12464877025
12464884288
12464890514
12464895885
12464901256
12464907054
12464911876
12464917125
12464922435
12464927623
12464933360
12464938609
12464945628
12464951488
12464957408
12464963267
12464968822
12464973216
12464979259
12464984752
12464990245
12464995738
12464999583
12465006480
12465011302
12465016246
12465022899
12465027598
12465032420
12465039805
12465045115
12465050242
12465054637
12465060801
12465070872
12465076548
12465081858
12465085887
12465093211
12465097361
12465104014
12465109690
12465116892
12465122325
12465129405
12465137461
12465146433
12465150645
12465158091
12465163584
12465170603
12465176096
12465182078
12465187266
12465193003
12465196604
12465202891
12465208262
12465213328
12465218516
12465223887
12465231333
12465236094
12465240671
12465245310
12465251047
12465255808
12465260386
12465267283
12465273264
12465279795
12465283762
12465288828
12465293589
12465299021
12465305002
12465310129
12465313181
12465319468
12465325510
12465328684
12465334543
12465338938
12465345407
12465350290
12465355783
12465362619
12465367624
12465373423
12465378855
12465382944
12465389719
12465394724
12465400583
12465405832
12465411325
12465415659
12465421457
12465425791
12465431284
12465437814
12465442087
12465448679
12465452951
12465458933
12465463632
12465470468
12465475229
12465481149
12465486887
12465490976
12465497202
12465503061
12465507944
12465512399
12465518930
12465524606
12465529428
12465535531
12465540842
12465546396
12465551828
12465558420
12465563608
12465567697
12465574594
12465578988
12465586557
12465592965
12465598153
12465603524
12465608957
12465611886
12465619272
12465623544
12465630441
12465636605
12465640634
12465647287
12465653024
12465658151
12465664559
12465670358
12465678414
12465685617
12465690499
12465698129
12465706063
12465714181
12465722543
12465730721
12465737863
12465747262
12465755929
12465764230
12465773446
12465782052
12465786629
12465797189
12465803536
12465811959
12465819955
12465829659
12465836800
12465844918
12465853097
12465861275
12465869759
12465879769
12465887826
12465895272
12465903512
12465912728
12465918648
12465929329
12465937142
12465946541
12465954781
12465963326
12465968575
12465978096
12465984871
12465994271
12466001900
12466009285
12466017037
12466026558
12466033455
12466040535
12466048042
12466055855
12466064766
12466073006
12466081795
12466089729
12466096931
12466104866
12466111763
12466121773
12466128120
12466136055
12466143318
12466152046
12466159614
12466166878
12466174934
12466182686
12466190498
12466199714
12466206367
12466215156
12466223091
12466230537
12466238533
12466245430
12466252998
12466262458
12466268318
12466278083
12466286079
12466296455
12466305366
12466313545
12466322700
12466330879
12466336677
12466345405
12466355842
12466362373
12466369697
12466380866
12466389350
12466398383
12466402656
12466411933
12466422004
12466429450
12466438117
12466447516
12466455390
12466464301
12466472846
12466479926
12466488654
12466497931
12466507026
12466514716
12466523017
12466529303
12466538947
12466545478
12466554389
12466566046
12466574225
12466583136
12466596747
12466603705
12466611456
12466621832
12466630133
12466638678
12466647955
12466656195
12466665595
12466672980
12466679327
12466687384
12466695685
12466704108
12466710394
12466719305
12466726385
12466737067
12466745306
12466750372
12466759527
12466765631
12466776251
12466781439
12466791754
12466798834
12466806768
12466813665
12466822393
12466828741
12466838140
12466847235
12466854559
12466861090
12466870062
12466878973
12466884161
12466893377
12466901617
12466909124
12466917364
12466927252
12466935430
12466942754
12466949407
12466957403
12466964239
12466972784
12466980535
12466988592
12466997137
12467005315
12467012212
12467020513
12467029302
12467037298
12467043828
12467051336
12467060735
12467068426
12467075750
12467083562
12467090825
12467098211
12467106694
12467115239
12467121282
12467128667
12467138982
12467147771
12467155767
12467162175
12467171514
12467178350
12467185430
12467192815
12467202275
12467210210
12467215581
12467223882
12467230657
12467236455
12467241338
12467246282
12467251836
12467259160
12467263738
12467270451
12467276067
12467281316
12467287053
12467291631
12467298344
12467304631
12467311101
12467317937
12467322819
12467328068
12467335576
12467340581
12467346806
12467353093
12467359868
12467365910
12467372380
12467377995
12467385808
12467392643
12467398259
12467403386
12467410649
12467415959
12467421635
12467427983
12467433720
12467440434
12467445256
12467449711
12467456669
12467461125
12467467778
12467472782
12467478886
12467485661
12467491947
12467496586
12467502934
12467509403
12467516056
12467521732
12467527958
12467533207
12467537479
12467542240
12467549809
12467556767
12467561100
12467565495
12467571232
12467575932
12467582829
12467587040
12467592472
12467598331
12467603764
12467610416
12467615238
12467620182
12467625797
12467631046
12467637089
12467642826
12467648319
12467653690
12467659061
12467664188
12467668766
12467674320
12467679325
12467684757
12467693363
12467697513
12467702579
12467708133
12467713443
12467719364
12467723941
12467729068
12467733890
12467740421
12467744937
12467749942
12467756717
12467762821
12467768680
12467773746
12467780521
12467788272
12467796085
12467801700
12467809390
12467813480
12467823306
12467830692
12467837894
12467843570
12467853946
12467861392
12467866092
12467872867
12467880923
12467888065
12467894229
12467901065
12467908572
12467917117
12467924930
12467933475
12467940188
12467945804
12467956424
12467963809
12467969363
12467976687
12467985782
12467991153
12468000308
12468010135
12468019290
12468027407
12468035647
12468042971
12468051150
12468061892
12468069827
12468077578
12468085940
12468092471
12468105288
12468114749
12468123354
12468132327
12468141299
12468151675
12468160342
12468164675
12468171511
12468181094
12468188113
12468194826
12468201357
12468206972
12468216799
12468224245
12468231020
12468239504
12468246157
12468253603
12468258791
12468268923
12468276735
12468287233
12468298403
12468309755
12468321535
12468332338
12468341738
12468350405
12468358339
12468369142
12468380190
12468391054
12468400820
12468403566
12468418092
12468428346
12468435915
12468446657
12468453676
12468463686
12468475832
12468487428
12468495729
12468506532
12468515382
12468522035
12468534242
12468542421
12468554933
12468562257
12468573427
12468582460
12468593507
12468599305
12468611085
12468619813
12468630372
12468637818
12468648744
12468659974
12468665467
12468679566
12468688539
12468696229
12468708924
12468715028
12468726014
12468736756
12468748170
12468758363
12468764893
12468775452
12468783631
12468794617
12468804749
12468814088
12468825379
12468837647
12468846741
12468857239
12468868897
12468882752
12468894776
12468907288
12468916077
12468923706
12468936646
12468949280
12468960694
12468973023
12468982666
12468990662
12469002747
12469016541
12469025025
12469038208
12469047913
12469059021
12469070374
12469082581
12469094299
12469104004
12469114929
12469130554
12469141052
12469157043
12469171997
12469181396
12469198791
12469213073
12469228698
12469243652
12469252563
12469263427
12469273193
12469285217
12469293640
12469305053
12469315917
12469324096
12469336608
12469343383
12469353637
12469365234
12469374938
12469389648
12469399352
12469406249
12469416991
12469427611
12469438842
12469448668
12469455932
12469466979
12469476745
12469487670
12469496642
12469507872
12469514769
12469524230
12469535094
12469546752
12469555236
12469566161
12469575804
12469584777
12469591979
12469606078
12469615050
12469622618
12469631529
12469643492
12469649840
12469660521
12469671751
12469680846
12469692625
12469701720
12469713133
12469719359
12469733031
12469742796
12469754149
12469765501
12469774351
12469788023
12469799498
12469809690
12469822203
12469831907
12469845030
12469855772
12469864622
12469877073
12469888609
12469898374
12469908384
12469918455
12469930174
12469942258
12469953489
12469962949
12469972715
12469982481
12469994382
12470005796
12470018369
12470027463
12470037168
12470046018
12470057798
12470067380
12470080320
12470091062
12470098691
12470113584
12470123716
12470134580
12470144223
12470153318
12470160520
12470169004
12470179257
12470185971
12470191892
12470197324
12470208920
12470213376
12470223996
12470232053
12470239987
12470246945
12470251767
12470263608
12470271420
12470278928
12470287106
12470293149
12470300961
12470308163
12470314938
12470324216
12470331906
12470341794
12470350705
12470359372
12470363339
12470373105
12470382382
12470391659
12470400387
12470407040
12470415280
12470422116
12470431637
12470437191
12470442562
12470451351
12470456051
12470463192
12470468502
12470476132
12470483883
12470489193
12470495724
12470500302
12470506039
12470512936
12470518795
12470524288
12470530209
12470536251
12470542049
12470547237
12470552731
12470557735
12470564388
12470568722
12470575191
12470579342
12470585934
12470590023
12470597896
12470602779
12470608211
12470614925
12470620785
12470626888
12470633297
12470637752
12470643917
12470651180
12470655819
12470660763
12470668514
12470675533
12470682064
12470686763
12470696224
12470699886
12470708553
12470713131
12470718624
12470726741
12470732723
12470738460
12470744625
12470751644
12470755977
12470763668
12470768794
12470776180
12470782894
12470789729
12470795223
12470803157
12470808955
12470815913
12470823055
12470830196
12470838924
12470846492
12470859187
12470866023
12470873286
12470881343
12470889033
12470895747
12470903377
12470910396
12470918513
12470931148
12470937678
12470946406
12470952937
12470960261
12470968318
12470974666
12470979426
12470991511
12470996821
12471008784
12471016169
12471020991
12471030085
12471034541
12471047846
12471054927
12471061885
12471068476
12471079157
12471086543
12471094294
12471104304
12471116267
12471126582
12471134455
12471141047
12471151789
12471161677
12471171931
12471180231
12471186823
12471194453
12471204218
12471211542
12471219477
12471227289
12471234064
12471243769
12471250422
12471256281
12471262018
12471270258
12471278315
12471283075
12471290461
12471294977
12471306696
12471312738
12471320002
12471326654
12471333246
12471338617
12471344904
12471357111
12471367609
12471377374
12471391901
12471403620
12471412103
12471422601
12471435114
12471442133
12471458978
12471469049
12471482233
12471492181
12471503229
12471514581
12471527582
12471539361
12471543329
12471558893
12471570977
12471582818
12471589166
12471599908
12471610284
12471618219
12471629083
12471639642
12471647943
12471657281
12471668206
12471678460
12471687859
12471697320
12471705499
12471713128
12471721429
12471731805
12471741875
12471752496
12471759881
12471770318
12471778130
12471786248
12471795525
12471804986
12471815545
12471824883
12471835076
12471843743
12471851677
12471864800
12471873650
12471880730
12471892205
12471903191
12471920037
12471931023
12471945305
12471954643
12471969109
12471977532
12471990715
12471999504
12472006340
12472016899
12472030937
12472039970
12472047966
12472056389
12472068718
12472080925
12472088982
12472103447
12472113029
12472123222
12472131218
12472145927
12472153923
12472166435
12472178459
12472187248
12472199089
12472211662
12472223869
12472232475
12472245170
12472251579
12472263297
12472275077
12472288993
12472296806
12472309501
12472321159
12472327201
12472341239
12472350578
12472359855
12472370536
12472380790
12472389335
12472399467
12472409598
12472421439
12472429862
12472441215
12472450614
12472460196
12472469413
12472475394
12472484183
12472495780
12472502494
12472510611
12472520255
12472526602
12472534171
12472541495
12472552725
12472559561
12472567984
12472575675
12472583914
12472593192
12472599844
12472609000
12472617056
12472623648
12472632620
12472639517
12472648306
12472655691
12472663016
12472670767
12472677786
12472686148
12472693838
12472702017
12472709646
12472718130
12472726797
12472733023
12472739554
12472748098
12472757803
12472766653
12472773245
12472782156
12472789785
12472796499
12472806509
12472811697
12472821524
12472827383
12472837759
12472845205
12472851492
12472858023
12472868643
12472875112
12472884512
12472891470
12472900198
12472906728
12472915762
12472923208
12472930715
12472940359
12472948232
12472955617
12472963613
12472972219
12472981557
12472988027
12472995717
12473003896
12473012380
12473020742
12473030202
12473038503
12473045400
12473054128
12473060720
12473068105
12473078542
12473086354
12473092214
12473097890
12473104787
12473114064
12473119496
12473127431
12473132985
12473139821
12473146169
12473154653
12473160390
12473165944
12473171254
12473178090
12473182790
12473190114
12473194875
12473200917
12473206349
12473210133
12473215627
12473220387
12473226674
12473233937
12473239186
12473244923
12473249379
12473253285
12473258473
12473263600
12473268422
12473274831
12473280629
12473287831
12473293141
12473297658
12473305104
12473311574
12473316823
12473323597
12473328541
12473334584
12473341115
12473345265
12473350209
12473355214
12473361439
12473366444
12473372120
12473376637
12473382496
12473387318
12473392567
12473397084
12473402882
12473408070
12473413258
12473419545
12473424671
12473429310
12473437611
12473441822
12473448109
12473454029
12473459828
12473466114
12473471119
12473476429
12473481190
12473485462
12473492909
12473498524
12473504444
12473510365
12473515369
12473520191
12473525257
12473530445
12473536793
12473544666
12473551502
12473556202
12473561878
12473567615
12473572925
12473577747
12473584888
12473589649
12473594776
12473602833
12473607776
12473614124
12473618763
12473624622
12473629200
12473636036
12473644642
12473650623
12473655201
12473660999
12473664539
12473672901
12473677845
12473684803
12473690113
12473696949
12473703601
12473710193
12473715686
12473721851
12473727344
12473732959
12473740406
12473745960
12473752124
12473756946
12473763477
12473766956
12473776172
12473779529
12473786365
12473790576
12473798694
12473803760
12473809314
12473814563
12473819324
12473824939
12473831104
12473836841
12473842090
12473848010
12473855701
12473859546
12473866016
12473871265
12473877856
12473883472
12473888721
12473893359
12473899402
12473904651
12473911670
12473918262
12473923144
12473929309
12473936938
12473945178
12473953784
12473962024
12473971972
12473977099
12473986865
12473996508
12474003772
12474011401
12474019824
12474027148
12474035266
12474042773
12474051257
12474059191
12474067309
12474075366
12474083788
12474090197
12474097094
12474104540
12474113329
12474120593
12474128100
12474137377
12474142565
12474150256
12474156847
12474164355
12474172045
12474181933
12474189135
12474197069
12474204333
12474211840
12474219530
12474227160
12474234240
12474241686
12474246142
12474257555
12474264025
12474272875
12474278978
12474287889
12474293810
12474301378
12474308886
12474316271
12474325548
12474332384
12474339281
12474345445
12474352892
12474360765
12474368028
12474375414
12474384325
12474393175
12474405077
12474416185
12474427171
12474434984
12474447435
12474454393
12474463365
12474473863
12474482652
12474490282
12474498643
12474503221
12474514207
12474523973
12474531907
12474536424
12474547044
12474553941
12474564012
12474571153
12474580491
12474586778
12474594651
12474602159
12474610643
12474618394
12474625535
12474635667
12474643418
12474650865
12474658738
12474668626
12474675584
12474683701
12474692735
12474698960
12474709153
12474714219
12474723924
12474730088
12474739793
12474749192
12474755479
12474764207
12474774155
12474783188
12474790330
12474800461
12474806565
12474816575
12474823288
12474832993
12474839219
12474848130
12474854294
12474860703
12474870530
12474876694
12474885788
12474892990
12474900925
12474906235
12474914231
12474922592
12474930588
12474937485
12474943588
12474952133
12474960495
12474967758
12474975632
12474981369
12474989914
12474998703
12475007126
12475013107
12475020676
12475027695
12475037155
12475043686
12475050583
12475057175
12475064316
12475072372
12475080612
12475087265
12475093857
12475103500
12475109787
12475117721
12475124008
12475131210
12475137130
12475146713
12475153732
12475164413
12475170822
12475179306
12475187362
12475191879
12475200363
12475215072
12475223129
12475231063
12475240341
12475250656
12475257919
12475269088
12475277267
12475281539
12475293563
12475299850
12475307357
12475312972
12475322128
12475328109
12475337447
12475341964
12475352889
12475359542
12475367232
12475374129
12475380416
12475385970
12475390914
12475398543
12475403853
12475409774
12475416427
12475421554
12475425765
12475431380
12475436873
12475443770
12475450850
12475455184
12475460311
12475466780
12475473128
12475477034
12475482283
12475487715
12475496016
12475500045
12475507003
12475511519
12475517256
12475524092
12475530013
12475535079
12475541487
12475547469
12475553450
12475558577
12475563765
12475572127
12475576338
12475583663
12475589400
12475595564
12475599959
12475606184
12475613264
12475619856
12475625227
12475629561
12475635847
12475642195
12475650496
12475656355
12475661909
12475668318
12475675093
12475679304
12475685774
12475693220
12475698286
12475703291
12475711104
12475716963
12475721724
12475728926
12475734968
12475740889
12475745894
12475752058
12475760481
12475766829
12475773787
12475778730
12475783918
12475791670
12475796919
12475801618
12475810652
12475817427
12475824018
12475828901
12475835798
12475841657
12475848371
12475853803
12475860517
12475866132
12475872236
12475877668
12475887251
12475893415
12475900617
12475908979
12475915205
12475921613
12475928083
12475936262
12475943525
12475948225
12475955366
12475960676
12475965559
12475972211
12475976179
12475982038
12475986188
12475991254
12475996930
12476001813
12476007673
12476013166
12476018171
12476024335
12476029279
12476034711
12476039899
12476045087
12476050458
12476056684
12476063947
12476069379
12476075177
12476079511
12476085858
12476095319
12476100995
12476106671
12476113263
12476119306
12476125287
12476131207
12476136823
12476142133
12476145001
12476152753
12476157514
12476163800
12476169843
12476175275
12476179669
12476184308
12476191388
12476196210
12476202313
12476209515
12476215314
12476221417
12476226239
12476230328
12476237225
12476242291
12476247906
12476254437
12476260846
12476266583
12476272381
12476277264
12476283429
12476289349
12476297223
12476307660
12476314312
12476322491
12476331402
12476339886
12476347027
12476356366
12476364239
12476372723
12476381146
12476389141
12476397259
12476407391
12476414959
12476422711
12476430889
12476439190
12476447186
12476451641
12476462383
12476469586
12476478069
12476485088
12476492901
12476503948
12476512249
12476519756
12476527386
12476536663
12476544292
12476553203
12476563030
12476570110
12476581707
12476593548
12476603313
12476609295
12476620952
12476629314
12476639324
12476650127
12476659649
12476668071
12476674663
12476684917
12476691326
12476698650
12476708415
12476715190
12476725749
12476734844
12476741252
12476749126
12476758586
12476765361
12476773296
12476782634
12476793193
12476801921
12476808330
12476817119
12476825114
12476830974
12476842082
12476849223
12476857341
12476865092
12476873271
12476880473
12476888591
12476897502
12476903544
12476912700
12476920695
12476927226
12476936808
12476943156
12476950847
12476960307
12476968303
12476975810
12476983012
12476991130
12476998576
12477007243
12477016337
12477022502
12477032267
12477038676
12477046061
12477055949
12477062968
12477072672
12477079081
12477087382
12477095194
12477102946
12477110453
12477119425
12477126932
12477133585
12477141886
12477151346
12477157450
12477166361
12477174418
12477178812
12477189249
12477195658
12477204081
12477213663
12477219523
12477229105
12477237284
12477244791
12477252909
12477260721
12477266825
12477277140
12477283792
12477292520
12477300394
12477308451
12477316202
12477324442
12477330972
12477337869
12477347513
12477354837
12477362100
12477370584
12477378336
12477387491
12477396768
12477405069
12477413431
12477423135
12477431741
12477438455
12477449502
12477459512
12477468851
12477478250
12477488565
12477497232
12477507058
12477518106
12477526284
12477533181
12477542520
12477550149
12477558450
12477565835
12477573831
12477581582
12477588845
12477596231
12477604043
12477612161
12477618814
12477626748
12477633645
12477640481
12477651040
12477658608
12477665749
12477671426
12477681130
12477687783
12477694436
12477702737
12477709756
12477717263
12477725014
12477732522
12477740090
12477748025
12477755410
12477759133
12477769570
12477778786
12477786904
12477793557
12477800637
12477805214
12477809914
12477817055
12477822854
12477828591
12477833901
12477839272
12477845498
12477851845
12477856850
12477862404
12477867409
12477874184
12477880593
12477887795
12477892433
12477898293
12477902260
12477909279
12477913796
12477918679
12477926552
12477931008
12477937599
12477942482
12477948769
12477954506
12477959755
12477964455
12477971230
12477978798
12477984230
12477990395
12477995094
12477999611
12478004738
12478012428
12478016518
12478023903
12478028236
12478033913
12478040993
12478046364
12478051185
12478057411
12478063087
12478069130
12478077125
12478081520
12478087379
12478093178
12478098243
12478103920
12478107399
12478116676
12478125953
12478131019
12478137306
12478143837
12478150123
12478157081
12478162330
12478167152
12478173622
12478184425
12478189308
12478195655
12478200599
12478205970
12478210121
12478215675
12478223365
12478229835
12478235389
12478241065
12478245643
12478251747
12478258216
12478264015
12478269203
12478275550
