12925247550
12925251335
12925254875
12925258171
12925261588
12925264884
12925268791
12925273246
12925278068
12925284721
12925288566
12925292228
12925296745
12925301139
12925305656
12925310172
12925314567
12925319083
12925325553
12925331168
12925336539
12925342521
12925347160
12925353751
12925360892
12925366080
12925372916
12925378226
12925385673
12925393363
12925400748
12925406425
12925414359
12925420096
12925426261
12925433280
12925442679
12925448783
12925455924
12925460441
12925466605
12925472953
12925481192
12925486563
12925495780
12925502066
12925509207
12925515677
12925521353
12925527457
12925534720
12925538932
12925548331
12925552725
12925561698
12925568656
12925574759
12925581717
12925587943
12925594901
12925601065
12925609427
12925617667
12925624625
12925630667
12925637076
12925643362
12925651541
12925655753
12925663687
12925669302
12925675711
12925683646
12925689017
12925695181
12925702627
12925708060
12925715689
12925722647
12925729788
12925738150
12925745291
12925756765
12925764090
12925771292
12925778555
12925785269
12925794180
12925806082
12925816091
12925826895
12925835134
12925845022
12925853445
12925863638
12925871023
12925880850
12925886709
12925892996
12925900137
12925906423
12925912710
12925918752
12925926138
12925933035
12925940664
12925947683
12925953786
12925961355
12925967763
12925973501
12925980825
12925988515
12925996206
12926002187
12926008230
12926013906
12926020620
12926026906
12926032644
12926040395
12926047109
12926054067
12926062246
12926068471
12926076894
12926084706
12926091481
12926098439
12926103749
12926113088
12926120046
12926126271
12926133534
12926142079
12926147023
12926154592
12926159780
12926167165
12926173085
12926178945
12926187062
12926193837
12926199880
12926206410
12926212331
12926218434
12926224110
12926231984
12926239186
12926244496
12926251515
12926258778
12926264699
12926272816
12926278676
12926287770
12926294545
12926301198
12926307667
12926316639
12926324147
12926330494
12926336476
12926346547
12926352711
12926358998
12926367604
12926376820
12926385365
12926394764
12926405506
12926412037
12926423939
12926432606
12926439198
12926448048
12926455860
12926463001
12926468861
12926476124
12926482044
12926490040
12926496021
12926504444
12926510975
12926520191
12926527454
12926533741
12926540577
12926548695
12926555592
12926563709
12926570911
12926577686
12926586231
12926592579
12926599354
12926605762
12926612476
12926620533
12926628834
12926636219
12926643055
12926649891
12926656788
12926665516
12926671802
12926677295
12926687305
12926693103
12926699878
12926708606
12926715503
12926721424
12926729724
12926736072
12926746448
12926755359
12926762988
12926770069
12926775684
12926780322
12926786670
12926791736
12926795764
12926800769
12926804797
12926810901
12926815723
12926820728
12926825488
12926835864
12926843005
12926846606
12926852283
12926856433
12926860950
12926867053
12926871997
12926876453
12926881885
12926885974
12926891772
12926898059
12926903308
12926908435
12926914172
12926919177
12926923938
12926928393
12926933520
12926938037
12926943225
12926949633
12926955493
12926959704
12926965197
12926970019
12926976550
12926981616
12926987719
12926993151
12927002124
12927008288
12927015795
12927021594
12927027819
12927035082
12927040026
12927045458
12927050646
12927055468
12927061328
12927066454
12927071642
12927077075
12927081591
12927086047
12927090746
12927097033
12927102648
12927107714
12927113024
12927118334
12927123217
12927129809
12927134447
12927140612
12927146044
12927151354
12927157519
12927162279
12927167773
12927172228
12927178698
12927183581
12927189806
12927194567
12927200854
12927204455
12927210802
12927215685
12927220690
12927225207
12927231249
12927234728
12927242296
12927247240
12927252489
12927256884
12927262804
12927270128
12927275805
12927284349
12927289232
12927294359
12927301805
12927305712
12927313341
12927319994
12927327257
12927331529
12927336107
12927342638
12927349047
12927355272
12927360643
12927366686
12927372240
12927377489
12927382799
12927389208
12927396227
12927401231
12927405016
12927412950
12927418382
12927423143
12927429369
12927434129
12927440355
12927445543
12927450670
12927457933
12927461656
12927468858
12927474901
12927479783
12927484666
12927489976
12927495286
12927501817
12927508958
12927514696
12927519090
12927524705
12927527818
12927541185
12927552781
12927563524
12927573350
12927581468
12927590440
12927600267
12927609666
12927617051
12927627000
12927634751
12927642015
12927649339
12927656602
12927663133
12927672044
12927680406
12927689561
12927696458
12927706162
12927713670
12927721055
12927731797
12927738877
12927746690
12927754441
12927763108
12927771287
12927778794
12927787095
12927794907
12927803635
12927812058
12927819871
12927828293
12927835618
12927843613
12927852463
12927860825
12927867539
12927875595
12927882859
12927893357
12927900986
12927909287
12927916794
12927924484
12927931748
12927940109
12927947312
12927962143
12927971848
12927980148
12927987839
12927996506
12928002670
12928011520
12928020248
12928029648
12928037277
12928043014
12928052780
12928059128
12928070907
12928078354
12928085678
12928092148
12928100509
12928109237
12928116928
12928125900
12928133407
12928139877
12928147262
12928155258
12928162277
12928170639
12928177841
12928184738
12928189376
12928202438
12928209518
12928217941
12928226547
12928231185
12928241134
12928249313
12928257308
12928265304
12928273483
12928279708
12928288680
12928296798
12928304672
12928312972
12928320174
12928329391
12928338790
12928348922
12928355575
12928364303
12928372420
12928381087
12928390731
12928398849
12928405929
12928413009
12928421920
12928429854
12928435958
12928443343
12928451827
12928458785
12928465987
12928473677
12928480880
12928488326
12928495528
12928504805
12928511580
12928519210
12928525191
12928532820
12928540328
12928548323
12928557540
12928565657
12928572859
12928580428
12928586897
12928594344
12928601607
12928608992
12928615828
12928625288
12928632735
12928640791
12928648848
12928654829
12928662581
12928673323
12928679487
12928688948
12928696943
12928703962
12928711714
12928719099
12928726179
12928734114
12928741804
12928752363
12928760908
12928765730
12928775251
12928779890
12928788923
12928796064
12928804548
12928809797
12928818037
12928826582
12928833052
12928840376
12928846845
12928855695
12928862776
12928870771
12928880048
12928887617
12928892316
12928903608
12928908552
12928918378
12928930158
12928936079
12928943159
12928949140
12928953107
12928961286
12928967817
12928971967
12928979658
12928985273
12928988996
12928994123
12929000898
12929006452
12929012189
12929017072
12929020551
12929026349
12929031659
12929037153
12929042218
12929048017
12929056562
12929066327
12929072675
12929079816
12929084516
12929090131
12929095258
12929100934
12929104413
12929109174
12929112958
12929117353
12929120893
12929125592
12929130109
12929135419
12929139691
12929143903
12929148114
12929152142
12929155988
12929160626
12929165265
12929169782
12929175641
12929180585
12929185407
12929189679
12929194867
12929200055
12929206891
12929212689
12929219037
12929223859
12929228863
12929233868
12929240033
12929244366
12929251691
12929257184
12929263776
12929268170
12929272870
12929278912
12929282879
12929289410
12929294598
12929300397
12929305584
12929314679
12929321942
12929326642
12929332745
12929337811
12929344403
12929352215
12929359112
12929365399
12929369366
12929374493
12929380474
12929386151
12929391949
12929396588
12929401470
12929407635
12929412274
12929417401
12929422528
12929427777
12929431256
12929438519
12929442791
12929447613
12929453716
12929458599
12929463665
12929467205
12929474163
12929480816
12929485882
12929489422
12929496136
12929501446
12929505962
12929512066
12929517986
12929525005
12929532146
12929538738
12929543438
12929549724
12929554424
12929559490
12929564800
12929570598
12929576153
12929585186
12929590801
12929598369
12929605999
12929614116
12929621196
12929627544
12929633159
12929639080
12929643047
12929650432
12929654522
12929661907
12929669109
12929673809
12929680706
12929686443
12929691753
12929695537
12929702922
12929707073
12929714763
12929720317
12929728618
12929735698
12929740825
12929748577
12929757121
12929766094
12929775188
12929782146
12929788249
12929796062
12929804301
12929812175
12929820964
12929828288
12929834209
12929842815
12929848003
12929856914
12929864055
12929872417
12929877849
12929885417
12929892741
12929901408
12929909709
12929917949
12929924235
12929932841
12929939433
12929949992
12929959452
12929969340
12929976847
12929983073
12929990641
12929997966
12930005961
12930014384
12930023417
12930031169
12930039347
12930047648
12930055338
12930060709
12930068705
12930076945
12930085185
12930093363
12930098063
12930105265
12930111979
12930120463
12930127604
12930135294
12930141825
12930148661
12930154887
12930161844
12930169169
12930177530
12930184366
12930192606
12930201273
12930207316
12930215372
12930223124
12930229349
12930237955
12930245951
12930251017
12930258036
12930268045
12930276712
12930284708
12930289957
12930296976
12930306375
12930314432
12930322183
12930334635
12930345438
12930357095
12930365579
12930374857
12930379617
12930387064
12930396402
12930417764
12930435953
12930459756
12930480691
12930504007
12930523172
12930543802
12930562905
12930581277
12930598794
12930609170
12930619241
12930633706
12930648171
12930661050
12930675759
12930690102
12930698342
12930704690
12930711831
12930718423
12930725442
12930733865
12930740395
12930748452
12930755349
12930762551
12930769387
12930776101
12930783059
12930789345
12930797646
12930805153
12930809975
12930820046
12930826088
12930832253
12930840249
12930846962
12930851052
12930857827
12930865212
12930870766
12930878395
12930884926
12930892311
12930899025
12930906410
12930913368
12930919106
12930927895
12930935036
12930941384
12930949928
12930957192
12930962807
12930969826
12930977638
12930985573
12930992226
12931003273
12931009987
12931017311
12931025795
12931032509
12931038673
12931044411
12931052528
12931059975
12931066688
12931075355
12931081947
12931087135
12931095863
12931103248
12931109413
12931117286
12931126686
12931134071
12931141517
12931148964
12931158424
12931166236
12931176002
12931183265
12931189247
12931197792
12931202186
12931210121
12931215492
12931221351
12931226417
12931231666
12931236915
12931241126
12931246253
12931251075
12931257057
12931262855
12931268348
12931274024
12931279212
12931283729
12931289527
12931295387
12931302406
12931308021
12931313087
12931318519
12931323402
12931329810
12931333045
12931339515
12931346412
12931351783
12931357215
12931362464
12931366797
12931372474
12931377784
12931385840
12931391211
12931396522
12931402259
12931407142
12931412269
12931418311
12931425208
12931429725
12931438697
12931443579
12931448829
12931455481
12931460730
12931466529
12931473304
12931479163
12931485205
12931490332
12931496558
12931502173
12931508155
12931513281
12931520423
12931524390
12931531348
12931535437
12931541052
12931545935
12931553687
12931557959
12931563818
12931571509
12931576636
12931581580
12931585974
12931593359
12931597815
12931603369
12931608801
12931616431
12931621680
12931627661
12931633337
12931639136
12931643408
12931648962
12931654944
12931660864
12931665869
12931672949
12931679236
12931685278
12931690161
12931696753
12931703955
12931713049
12931718847
12931727392
12931731543
12931738379
12931743261
12931749914
12931755651
12931764502
12931771154
12931776403
12931781652
12931786840
12931791296
12931797521
12931801855
12931808508
12931813452
12931819677
12931824011
12931829748
12931836401
12931841711
12931846044
12931853552
12931858373
12931863439
12931869421
12931875646
12931880590
12931886144
12931891576
12931896032
12931904516
12931910802
12931916235
12931921728
12931926610
12931931554
12931937902
12931943334
12931949743
12931955236
12931960973
12931965856
12931971105
12931976720
12931983434
12931989721
12931995763
12932000646
12932006017
12932011754
12932018224
12932024816
12932031041
12932036779
12932045324
12932055577
12932063573
12932070836
12932079015
12932090550
12932095800
12932106175
12932111730
12932123143
12932132115
12932140233
12932148473
12932155919
12932164037
12932173497
12932181920
12932191319
12932198766
12932208165
12932215672
12932224889
12932230199
12932242955
12932250584
12932257054
12932266270
12932275670
12932282689
12932289891
12932297886
12932307652
12932316197
12932322850
12932329747
12932337864
12932344822
12932354161
12932361119
12932367588
12932375767
12932386204
12932395237
12932403355
12932411228
12932418919
12932427830
12932435764
12932443455
12932451573
12932458836
12932466465
12932473789
12932481480
12932490086
12932498447
12932504978
12932512852
12932521763
12932527622
12932536716
12932544346
12932551853
12932559482
12932567112
12932577305
12932585422
12932591404
12932599338
12932606479
12932613559
12932623081
12932631565
12932639377
12932647983
12932655063
12932662571
12932669834
12932676914
12932686191
12932690891
12932699558
12932706638
12932715671
12932723300
12932733188
12932741489
12932748264
12932755832
12932763706
12932771945
12932781039
12932788181
12932795444
12932808017
12932816440
12932825290
12932832736
12932839511
12932847507
12932854526
12932861117
12932868747
12932875339
12932884372
12932891025
12932899691
12932906833
12932915866
12932923068
12932931430
12932937899
12932944674
12932951937
12932959262
12932966342
12932976718
12932982882
12932990389
12932998080
12933005892
12933012789
12933020053
12933028170
12933035555
12933043124
12933051669
12933058016
12933065157
12933073763
12933081332
12933087618
12933095309
12933102694
12933109408
12933118807
12933123751
12933134188
12933139681
12933150057
12933157992
12933173433
12933181612
12933189119
12933201632
12933209261
12933218782
12933226107
12933235750
12933242464
12933249544
12933258821
12933265413
12933274568
12933283419
12933290438
12933300569
12933309297
12933319734
12933325533
12933332124
12933340425
12933347017
12933355623
12933362520
12933371370
12933378450
12933387422
12933394258
12933402437
12933408968
12933413667
12933424287
12933429292
12933438447
12933445161
12933453828
12933459993
12933465120
12933472139
12933476899
12933483308
12933488313
12933493318
12933498933
12933504365
12933509248
12933514985
12933520478
12933526704
12933532319
12933537263
12933542573
12933549043
12933554902
12933560640
12933565522
12933571504
12933576203
12933581636
12933584565
12933592134
12933598359
12933604829
12933607942
12933614045
12933620942
12933626313
12933632783
12933638032
12933641694
12933647492
12933652985
12933658418
12933664460
12933670991
12933677338
12933682221
12933687775
12933692536
12933698334
12933704804
12933708527
12933714692
12933719514
12933726227
12933731293
12933736359
12933743073
12933746857
12933752900
12933759186
12933764924
12933771088
12933776520
12933782685
12933788727
12933794159
12933799958
12933806733
12933811310
12933817109
12933824433
12933831452
12933838471
12933843537
12933850556
12933855866
12933863068
12933869904
12933874054
12933879425
12933885102
12933890595
12933895661
12933905731
12933911164
12933916474
12933923004
12933928681
12933932709
12933939179
12933944733
12933952240
12933957367
12933963104
12933967987
12933973236
12933978607
12933984100
12933989288
12933995697
12934001251
12934006378
12934012115
12934017242
12934022613
12934027496
12934035309
12934041229
12934048370
12934053192
12934057098
12934062530
12934068878
12934075104
12934080963
12934086639
12934093536
12934098968
12934106659
12934110870
12934116668
12934121734
12934127899
12934133148
12934140045
12934147674
12934153472
12934159454
12934164886
12934170013
12934175811
12934182220
12934188812
12934194610
12934200103
12934205963
12934211456
12934217193
12934223358
12934228546
12934235076
12934243011
12934247100
12934255157
12934260955
12934266692
12934271575
12934276824
12934281402
12934288238
12934293548
12934299224
12934304656
12934310760
12934316497
12934323394
12934331695
12934340117
12934347869
12934355926
12934363494
12934372344
12934376738
12934386199
12934396026
12934403106
12934413054
12934418242
12934429045
12934434111
12934444548
12934452361
12934461821
12934470183
12934481902
12934492156
12934500701
12934509673
12934516814
12934527739
12934535124
12934543181
12934552092
12934559050
12934568327
12934576445
12934583464
12934592131
12934601225
12934609831
12934614348
12934624113
12934631682
12934640959
12934648344
12934655791
12934664091
12934676726
12934686064
12934693327
12934702177
12934709013
12934717009
12934723600
12934730436
12934741362
12934748808
12934755339
12934762968
12934769316
12934777799
12934784513
12934791715
12934799833
12934809049
12934818510
12934826017
12934833097
12934841337
12934849455
12934857389
12934864225
12934872282
12934880949
12934889371
12934897428
12934905424
12934913663
12934918912
12934927579
12934934598
12934944913
12934953458
12934960660
12934968107
12934974637
12934981351
12934988859
12934997281
12935005338
12935012357
12935021390
12935028287
12935036710
12935043180
12935051175
12935058560
12935068021
12935075528
12935083585
12935090909
12935097989
12935106046
12935112882
12935119779
12935128873
12935136502
12935144620
12935152432
12935160855
12935168790
12935176358
12935184415
12935193082
12935199979
12935208035
12935216702
12935225064
12935231900
12935239651
12935246670
12935252286
12935263760
12935268948
12935278225
12935285611
12935295315
12935303189
12935313565
12935319241
12935329861
12935338284
12935344998
12935352078
12935359646
12935364529
12935372525
12935382656
12935389736
12935397122
12935405239
12935412502
12935419033
12935426296
12935433926
12935441189
12935449246
12935456753
12935463650
12935470608
12935477077
12935483974
12935489651
12935501247
12935508694
12935516750
12935525112
12935532863
12935540005
12935544704
12935554592
12935562038
12935569301
12935576381
12935585354
12935592067
12935599880
12935607265
12935615566
12935623561
12935632656
12935640651
12935648525
12935658229
12935665126
12935672756
12935679775
12935686550
12935698390
12935705165
12935714748
12935719997
12935728969
12935735378
12935742458
12935749171
12935756557
12935761745
12935766017
12935771999
12935775478
12935781398
12935785731
12935790248
12935795985
12935800624
12935806117
12935811610
12935818263
12935824122
12935829433
12935834071
12935839015
12935845546
12935849086
12935855678
12935861110
12935865626
12935870997
12935877711
12935883510
12935889735
12935894618
12935898768
12935903895
12935909266
12935916041
12935921046
12935927211
12935932887
12935938563
12935944361
12935949488
12935955897
12935961390
12935966822
12935974024
12935979701
12935986598
12935990870
12935996363
12936002589
12936007655
12936012843
12936019618
12936024806
12936030299
12936035609
12936040736
12936045374
12936050379
12936055384
12936061182
12936068690
12936074244
12936079554
12936085230
12936089747
12936094324
12936097559
12936104639
12936110560
12936115565
12936121363
12936126063
12936132105
12936136744
12936141688
12936145716
12936151270
12936157618
12936162439
12936166834
12936173914
12936178370
12936185206
12936189173
12936195765
12936201441
12936207361
12936211817
12936217371
12936223108
12936228907
12936234888
12936239160
12936244715
12936250452
12936255945
12936262842
12936269922
12936276087
12936281458
12936289453
12936294275
12936300073
12936305017
12936311975
12936317163
12936322962
12936328577
12936335779
12936342493
12936348413
12936353235
12936358911
12936363550
12936369409
12936376001
12936382776
12936387720
12936393213
12936398462
12936404199
12936408960
12936415735
12936420740
12936425989
12936432336
12936437585
12936441980
12936447656
12936453149
12936458764
12936464013
12936471765
12936476404
12936482324
12936487390
12936492822
12936498193
12936505517
12936510583
12936517297
12936521020
12936526818
12936532617
12936539453
12936545861
12936552270
12936558374
12936564599
12936572900
12936578942
12936585961
12936593408
12936599572
12936607812
12936615136
12936624474
12936631860
12936640221
12936648461
12936657677
12936662865
12936672326
12936680810
12936688317
12936696313
12936703454
12936710656
12936720727
12936725243
12936734521
12936741479
12936751000
12936758141
12936765587
12936773034
12936780114
12936786705
12936795922
12936801964
12936810631
12936818688
12936826073
12936833031
12936840782
12936849022
12936856285
12936862755
12936872643
12936879357
12936886742
12936895348
12936903038
12936908531
12936918724
12936926170
12936936607
12936943871
12936952965
12936962547
12936970604
12936976768
12936985252
12936994652
12937003136
12937010094
12937018516
12937025963
12937036278
12937044151
12937052208
12937058738
12937066917
12937075706
12937081932
12937090416
12937098838
12937107750
12937113243
12937123069
12937131065
12937138328
12937146202
12937153282
12937161705
12937170616
12937178611
12937185264
12937194114
12937202049
12937209983
12937219444
12937226157
12937236045
12937242393
12937251792
12937260581
12937267783
12937275779
12937284690
12937293540
12937300498
12937308921
12937318381
12937331260
12937341025
12937350486
12937357444
12937366294
12937374411
12937382468
12937390342
12937397300
12937404990
12937413108
12937420859
12937430625
12937438864
12937446494
12937454673
12937461630
12937469504
12937477133
12937485068
12937493491
12937500632
12937510336
12937517661
12937524558
12937531455
12937537985
12937547568
12937554770
12937563437
12937571005
12937577780
12937584982
12937591757
12937599142
12937607260
12937615561
12937623312
12937631247
12937637839
12937650168
12937656210
12937665304
12937672567
12937680258
12937687399
12937695700
12937704733
12937712790
12937720419
12937729513
12937738729
12937747335
12937753805
12937761495
12937770284
12937777670
12937784567
12937792318
12937800375
12937808431
12937816183
12937823629
12937832235
12937840231
12937848714
12937854269
12937861898
12937869100
12937877218
12937883993
12937893331
12937900899
12937908712
12937916036
12937925313
12937932577
12937940023
12937947103
12937955892
12937966146
12937973775
12937981527
12937989583
12937994344
12937999715
12938004720
12938011312
12938017232
12938022664
12938027608
12938032796
12938039022
12938043843
12938049031
12938056050
12938063375
12938068257
12938073262
12938080342
12938084615
12938093404
12938098714
12938103719
12938110249
12938115559
12938121663
12938128499
12938133748
12938138875
12938143880
12938148763
12938154927
12938161580
12938167805
12938173360
12938179768
12938185445
12938189656
12938195943
12938202290
12938207722
12938213582
12938218342
12938226338
12938231709
12938236836
12938242390
12938247639
12938254292
12938259846
12938267048
12938272725
12938276326
12938282429
12938287983
12938293965
12938300434
12938306050
12938311665
12938316487
12938322590
12938329121
12938335102
12938340596
12938346699
12938352558
12938358113
12938364765
12938370991
12938376362
12938381245
12938388081
12938392536
12938401508
12938408894
12938413776
12938419453
12938425556
12938431416
12938437397
12938442768
12938447956
12938453938
12938459064
12938464497
12938469990
12938475727
12938481892
12938487263
12938493793
12938500080
12938503986
12938511921
12938515522
12938522846
12938527790
12938532978
12938539997
12938545063
12938550983
12938556904
12938563434
12938570575
12938575397
12938580768
12938586750
12938592853
12938598896
12938603717
12938608722
12938614215
12938619648
12938625263
12938630756
12938636798
12938643634
12938649127
12938653888
12938660175
12938664630
12938672016
12938679950
12938684284
12938692584
12938700275
12938706256
12938711749
12938722186
12938730914
12938736102
12938742511
12938746844
12938752826
12938758685
12938764606
12938770587
12938774921
12938780841
12938786944
12938791583
12938797565
12938802875
12938807696
12938812823
12938818194
12938823749
12938828265
12938833514
12938837298
12938845477
12938852496
12938857440
12938864581
12938871722
12938877032
12938887835
12938894671
12938903277
12938911517
12938917315
12938925433
12938933551
12938942767
12938949908
12938957415
12938966326
12938975176
12938982562
12938990252
12938997271
12939006121
12939013751
12939022234
12939029131
12939038592
12939048479
12939058123
12939067034
12939074908
12939082903
12939089678
12939097185
12939103167
12939114641
12939120806
12939129534
12939137774
12939144549
12939152483
12939160601
12939168474
12939174639
12939182329
12939189898
12939198015
12939205767
12939213945
12939221819
12939230181
12939238542
12939245378
12939254900
12939264665
12939272295
12939281816
12939290788
12939296831
12939306474
12939314470
12939321855
12939331804
12939340166
12939346208
12939354448
12939361833
12939368181
12939376665
12939382890
12939389909
12939400835
12939405839
12939415361
12939423295
12939433610
12939442827
12939450883
12939460283
12939469560
12939478715
12939488054
12939495805
12939503434
12939511125
12939517717
12939526689
12939535356
12939543473
12939550981
12939558732
12939564591
12939570878
12939579484
12939586320
12939591325
12939600419
12939606767
12939614579
12939621903
12939630875
12939637589
12939642594
12939652055
12939657853
12939664628
12939671464
12939680558
12939687821
12939695084
12939701493
12939709366
12939716874
12939723588
12939730362
12939737137
12939744339
12939754471
12939760819
12939773636
12939781205
12939789933
12939796830
12939803177
12939809952
12939816788
12939826920
12939836258
12939844681
12939852249
12939859574
12939865433
12939874100
12939882462
12939890213
12939896439
12939902664
12939910782
12939916946
12939921951
12939930496
12939935562
12939944901
12939951492
12939958389
12939964432
12939973526
12939979874
12939986526
12939994217
12939999649
12940007278
12940014908
12940022232
12940026932
12940036087
12940043350
12940050430
12940058304
12940066543
12940074844
12940083023
12940088150
12940097976
12940105056
12940114151
12940122085
12940127761
12940135330
12940143325
12940149551
12940157791
12940167373
12940175491
12940184036
12940193496
12940207168
12940215530
12940221450
12940231033
12940237624
12940247329
12940253127
12940259536
12940268386
12940274673
12940281509
12940286513
12940291640
12940296523
12940299880
12940305678
12940311904
12940317153
12940321059
12940326980
12940332839
12940340651
12940345351
12940349624
12940354995
12940360549
12940364638
12940370070
12940376296
12940381118
12940385695
12940392531
12940398330
12940403762
12940408095
12940414870
12940421096
12940426284
12940432265
12940438307
12940442458
12940450209
12940454054
12940460097
12940465956
12940469863
12940477004
12940485854
12940492507
12940498854
12940504164
12940508742
12940516982
12940523879
12940530775
12940536818
12940543776
12940548842
12940555067
12940561598
12940567335
12940573256
12940578810
12940583449
12940591933
12940597609
12940603529
12940608473
12940614454
12940619948
12940625929
12940630629
12940637343
12940642653
12940649122
12940654371
12940660292
12940665968
12940671705
12940677382
12940683302
12940690260
12940695814
12940700270
12940706800
12940713942
12940720228
12940727064
12940733900
12940740553
12940746229
12940753553
12940758863
12940764723
12940773023
12940778883
12940783277
12940792494
12940798719
12940803968
12940811292
12940818311
12940824110
12940831495
12940839307
12940844556
12940851087
12940859266
12940869154
12940874341
12940881544
12940887220
12940894422
12940898328
12940906690
12940911573
12940917310
12940923902
12940929456
12940934888
12940940503
12940946424
12940952527
12940958753
12940964063
12940969617
12940975721
12940980970
12940986768
12940992505
12940999036
12941004651
12941010694
12941016187
12941022718
12941029309
12941035596
12941043103
12941050855
12941056836
12941061780
12941067700
12941073377
12941079175
12941085156
12941090527
12941096265
12941099194
12941104871
12941110608
12941115002
12941120862
12941125439
12941131055
12941136487
12941143323
12941149304
12941159436
12941169568
12941179272
12941185986
12941197217
12941204541
12941211194
12941220349
12941226636
12941234082
12941242688
12941250561
12941259106
12941268261
12941275280
12941283398
12941292004
12941300061
12941308117
12941316113
12941323742
12941332897
12941342114
12941350292
12941358532
12941366711
12941373791
12941381786
12941388744
12941396008
12941406750
12941414928
12941423107
12941431225
12941438305
12941445629
12941455334
12941463024
12941471569
12941478832
12941486339
12941496593
12941505321
12941512707
12941520214
12941529735
12941542736
12941550914
12941560009
12941568554
12941576732
12941586010
12941594982
12941603282
12941611644
12941619701
12941627391
12941635631
12941643566
12941651622
12941660838
12941669566
12941678478
12941686595
12941693797
12941701915
12941711559
12941720714
12941727367
12941738170
12941745189
12941754344
12941762889
12941771251
12941780101
12941788768
12941797923
12941806529
12941816600
12941826121
12941833018
12941841929
12941849254
12941859568
12941868968
12941878672
12941886729
12941893748
12941901927
12941910777
12941919078
12941926158
12941936961
12941945201
12941953318
12941962229
12941968272
12941980723
12941992930
12942008860
12942018504
12942025584
12942031077
12942039255
12942046702
12942053538
12942060923
12942067942
12942075754
12942083018
12942090708
12942096934
12942104807
12942112192
12942117258
12942127146
12942132334
12942139536
12942147410
12942156076
12942162241
12942169626
12942177011
12942184397
12942190805
12942199289
12942206064
12942213144
12942221323
12942228403
12942232981
12942240427
12942247446
12942256296
12942263315
12942270395
12942277780
12942282785
12942292307
12942297128
12942305795
12942313730
12942320566
12942328195
12942336130
12942345590
12942357187
12942366281
12942376596
12942384958
12942393136
12942401498
12942409372
12942417062
12942425363
12942433297
12942439645
12942446176
12942455880
12942460641
12942470102
12942477365
12942481332
12942490731
12942500314
12942507638
12942515206
12942521615
12942529061
12942535836
12942541329
12942548654
12942556649
12942563363
12942570321
12942577462
12942585763
12942591744
12942596383
12942601449
12942605355
12942611520
12942617623
12942622384
12942626351
12942633981
12942639962
12942645089
12942652718
12942658150
12942664254
12942669625
12942673043
12942678841
12942684273
12942689583
12942697945
12942705697
12942711983
12942716988
12942721016
12942725533
12942730721
12942735421
12942741219
12942746651
12942751839
12942756722
12942761177
12942766426
12942771675
12942778878
12942784493
12942789498
12942794991
12942800850
12942805733
12942810555
12942818795
12942826241
12942832222
12942837166
12942841866
12942846199
12942849373
12942854073
12942858650
12942863167
12942868477
12942874397
12942880135
12942884651
12942889656
12942893684
12942900398
12942905403
12942910713
12942915779
12942921089
12942926460
12942932686
12942938179
12942944649
12942950813
12942958382
12942964851
12942972359
12942978401
12942984993
12942990974
12942996651
12943001228
12943005440
12943010566
12943015999
12943021614
12943027168
12943032966
12943039131
12943045051
12943050422
12943055732
12943059639
12943066475
12943071357
12943077949
12943083625
12943087776
12943093330
12943099556
12943103889
12943109016
12943114997
12943119514
12943125434
12943131172
12943136421
12943141426
12943147224
12943151801
12943157356
12943163398
12943169135
12943175361
12943179267
12943184577
12943189826
12943194099
12943199470
12943206306
12943210090
12943215888
12943223762
12943231391
12943236701
12943243415
12943249213
12943255134
12943260444
12943266669
12943273139
12943276862
12943284675
12943290595
12943295722
12943300361
12943307929
12943312568
12943318610
12943324347
12943330390
12943335944
12943341132
12943347113
12943352973
12943361335
12943371527
12943379645
12943388800
12943397650
12943405585
12943414557
12943420661
12943429755
12943437628
12943445685
12943453620
12943458624
12943467597
12943474982
12943484198
12943491461
12943497504
12943507391
12943512946
12943520819
12943530218
12943539557
12943552679
12943560187
12943571051
12943579046
12943586920
12943596136
12943604498
12943612555
12943620611
12943629034
12943636175
12943644537
12943654486
12943662298
12943669439
12943677313
12943684820
12943692450
12943699530
12943706915
12943713446
12943720953
12943729681
12943737371
12943744085
12943751898
12943759039
12943768682
12943775152
12943781988
12943789190
12943799139
12943805853
12943813787
12943822942
12943830694
12943837652
12943845891
12943854558
12943862615
12943870061
12943878728
12943885808
12943894536
12943903447
12943911443
12943918523
12943926519
12943935064
12943944158
12943955144
12943964544
12943972661
12943981939
12943990178
12943998357
12944005925
12944014653
12944022222
12944030278
12944039922
12944045354
12944055913
12944063115
12944068364
12944079839
12944085637
12944096196
12944101567
12944109624
12944119878
12944126958
12944135197
12944143803
12944151921
12944158574
12944167302
12944174382
12944182744
12944191899
12944199772
12944206791
12944214238
12944222722
12944230412
12944237858
12944246830
12944254216
12944261174
12944271855
12944279240
12944288334
12944295231
12944303837
12944311772
12944320011
12944329045
12944335575
12944345097
12944350712
12944365299
12944370609
12944383793
12944389652
12944398747
12944407841
12944419865
12944430424
12944436893
12944445682
12944452335
12944459537
12944466617
12944473698
12944482609
12944489261
12944497257
12944504520
12944513614
12944520328
12944526371
12944535587
12944541813
12944549564
12944557865
12944565860
12944573124
12944580387
12944586856
12944594120
12944601505
12944609683
12944619083
12944624515
12944632694
12944640262
12944644473
12944653934
12944663944
12944671756
12944680301
12944687320
12944694766
12944702213
12944710818
12944718631
12944727115
12944734683
12944743777
12944751834
12944760074
12944767459
12944774661
12944783816
12944792056
12944802432
12944808474
12944814029
12944820926
12944827029
12944833072
12944838870
12944843936
12944849978
12944856021
12944863833
12944868594
12944874392
12944879336
12944885745
12944890994
12944896792
12944903445
12944907656
12944914614
12944920718
12944927493
12944932681
12944938662
12944944521
12944950442
12944955630
12944962039
12944966982
12944985781
12944990603
12944996523
12945003115
12945007021
12945014651
12945020388
12945024966
12945030703
12945036318
12945042116
12945046999
12945053896
12945059878
12945064089
12945070864
12945078066
12945082705
12945088381
12945095705
12945102175
12945109560
12945116884
12945121279
12945127443
12945134768
12945141054
12945147585
12945152590
12945159060
12945164736
12945171144
12945176760
12945182192
12945187563
12945193422
12945199709
12945207277
12945214357
12945221376
12945224733
12945231691
12945237734
12945244020
12945250429
12945255983
12945260683
12945267336
12945271730
12945277834
12945284914
12945290712
12945296571
12945300783
12945309511
12945314943
12945319215
12945326967
12945332521
12945338197
12945343629
12945348024
12945354372
12945360780
12945365907
12945372682
12945379091
12945385011
12945390565
12945396425
12945403138
12945407655
12945415773
12945419740
12945426271
12945432740
12945439637
12945444154
12945449525
12945455445
12945461000
12945467652
12945474183
12945479982
12945484925
12945488954
12945495607
12945501893
12945508058
12945513185
12945517335
12945525697
12945531251
12945536256
12945542787
12945548280
12945556336
12945561280
12945567628
12945573548
12945579713
12945587525
12945593385
12945598084
12945603883
12945609254
12945614503
12945621766
12945625794
12945633851
12945638123
12945645264
12945650635
12945657166
12945662415
12945668702
12945675110
12945680787
12945686219
12945692505
12945697449
12945703919
12945713074
12945723206
12945732300
12945740174
12945748291
12945757447
12945765381
12945773316
12945779847
12945789673
12945797303
12945804505
12945811951
12945820618
12945827942
12945835571
12945842774
12945851013
12945858826
12945867432
12945875122
12945883423
12945890930
12945899475
12945906311
12945913513
12945922363
12945929748
12945937744
12945946228
12945953857
12945960937
12945972473
12945979797
12945988037
12945996338
12946004699
12946012817
12946018982
12946027954
12946036438
12946045410
12946053527
12946060302
12946067688
12946075866
12946085266
12946090759
12946098571
12946109863
12946116210
12946124450
12946133788
12946142822
12946152099
12946160644
12946171264
12946180480
12946190246
12946197631
12946205199
12946213134
12946221191
12946229613
12946236755
12946244811
12946252807
12946261413
12946269958
12946278075
12946288024
12946295104
12946300536
12946312926
12946320922
12946328063
12946335387
12946341979
12946352660
12946358702
12946367247
12946375487
12946387999
12946394652
12946403014
12946413573
12946421813
12946428771
12946436888
12946445860
12946454894
12946463011
12946471007
12946477843
12946484801
12946494383
12946501524
12946510008
12946520445
12946524840
12946534178
12946541807
12946552550
12946558043
12946569334
12946577330
12946584959
12946595335
12946607542
12946615965
12946623594
12946631773
12946641417
12946648680
12946656248
12946667784
12946675779
12946686827
12946696043
12946704588
12946714781
12946726133
12946733946
12946742185
12946750059
12946757261
12946764951
12946773313
12946779539
12946786985
12946795103
12946801389
12946809568
12946817625
12946824766
12946833250
12946839902
12946847410
12946854673
12946862668
12946869748
12946876035
12946884763
12946892148
12946898008
12946906369
12946915098
12946924741
12946931333
12946938596
12946947202
12946954953
12946963010
12946971250
12946979001
12946986936
12946993527
12947001462
12947011655
12947018674
12947027829
12947035092
12947042050
12947051022
12947057980
12947064816
12947073605
12947080441
12947090390
12947098141
12947101926
12947111264
12947118344
12947131406
12947137570
12947143979
12947153317
12947161130
12947165402
12947177914
12947185116
12947192807
12947202023
12947208493
12947213681
12947218197
12947223202
12947230160
12947235775
12947242489
12947247616
12947254452
12947259579
12947265255
12947270504
12947275631
12947282467
12947288449
12947293881
12947298214
12947304135
12947311398
12947315487
12947321469
12947326473
12947333492
12947338802
12947346554
12947353329
12947360836
12947367611
12947373226
12947378658
12947385311
12947390560
12947397701
12947402767
12947407772
12947412289
12947417049
12947421810
12947429745
12947434994
12947440304
12947446224
12947451412
12947456722
12947462215
12947468502
12947473507
12947480343
12947483944
12947490841
12947494381
12947501949
12947507137
12947511898
12947518245
12947522823
12947533748
12947539241
12947544674
12947549495
12947555111
12947561397
12947567989
12947572811
12947578426
12947584041
12947589778
12947595760
12947602230
12947607112
12947612667
12947620357
12947623714
12947628963
12947635555
12947641658
12947646236
12947652767
12947659175
12947665828
12947672786
12947677913
12947684077
12947690059
12947695003
12947700069
12947704707
12947714229
12947720027
12947725764
12947731807
12947737300
12947742244
12947747737
12947754329
12947758723
12947765864
12947771358
12947776057
12947781489
12947788875
12947793757
12947799128
12947804561
12947810847
12947817195
12947822932
12947829402
12947835139
12947840632
12947846125
12947851680
12947858149
12947863948
12947869746
12947876826
12947882502
12947887873
12947893366
12947898066
12947904048
12947911128
12947917048
12947922663
12947928523
12947934443
12947941279
12947948237
12947956843
12947963068
12947970149
12947975092
12947980952
12947986811
12947992670
12947998225
12948003657
12948008784
12948013911
12948019282
12948024531
12948029780
12948035578
12948040034
12948048578
12948053583
12948058771
12948063471
12948069330
12948075129
12948082148
12948090571
12948098688
12948107111
12948114557
12948122553
12948129633
12948136774
12948144220
12948152643
12948161188
12948169977
12948178827
12948185358
12948195062
12948201837
12948211847
12948220392
12948228204
12948237787
12948245844
12948253656
12948262506
12948270563
12948278253
12948285577
12948294672
12948301874
12948309564
12948316278
12948325494
12948333246
12948343866
12948351495
12948359247
12948367853
12948376886
12948383722
12948391656
12948399835
12948407892
12948416681
12948424920
12948432855
12948440911
12948448541
12948455621
12948464837
12948472528
12948477594
12948489129
12948494500
12948503839
12948513543
12948521050
12948529778
12948537408
12948545525
12948553887
12948562554
12948570672
12948578606
12948586175
12948594292
12948602898
12948610772
12948618096
12948627251
12948635186
12948643120
12948651238
12948658318
12948666680
12948675591
12948683892
12948692742
12948698906
12948707085
12948718621
12948725396
12948734673
12948743584
12948752739
12948761650
12948770500
12948775688
12948785759
12948798210
12948806755
12948814995
12948823540
12948832024
12948837090
12948847527
12948854851
12948860527
12948871758
12948877312
12948885857
12948893974
12948901848
12948910454
12948919182
12948925346
12948934196
12948943046
12948952263
12948960258
12948968254
12948976310
12948983757
12948991081
12949000419
12949007560
12949012931
12949025077
12949033989
12949041313
12949048759
12949055351
12949068046
12949081596
12949091056
12949098075
12949108512
12949116142
12949124198
12949130485
12949141410
12949148734
12949156974
12949165519
12949174064
12949181388
12949189506
12949198234
12949206473
12949217643
12949225822
12949233268
12949240653
12949249503
12949257010
12949265983
12949273368
12949281424
12949289176
12949297538
12949307059
12949314383
12949321952
12949330069
12949338126
12949347464
12949354239
12949362296
12949370780
12949379080
12949385916
12949393119
12949401908
12949409110
12949419486
12949426993
12949434622
12949441763
12949449881
12949457999
12949466666
12949474539
12949485403
12949493155
12949499869
12949508108
12949516775
12949524771
12949533377
12949542471
12949550528
12949556692
12949563955
12949571463
12949581289
12949588675
12949595999
12949602346
12949608816
12949616873
12949623220
12949629080
12949635000
12949641104
12949647757
12949651846
12949659109
12949665213
12949671133
12949677175
12949683035
12949688650
12949693106
12949698599
12949702078
12949710012
12949716665
12949722891
12949728506
12949733938
12949739614
12949745474
12949751028
12949756216
12949762807
12949768606
12949774770
12949780019
12949785696
12949790823
12949796987
12949802663
12949807485
12949813467
12949818471
12949825124
12949830312
12949837453
12949842214
12949848684
12949855276
12949861501
12949866506
12949872182
12949878225
12949884389
12949889577
12949895009
12949900380
12949906545
12949912221
12949917958
12949921315
12949928945
12949936025
12949941701
12949946767
12949953847
12949959767
12949964284
12949970388
12949976186
12949982350
12949988027
12949993581
12949998525
12950004811
12950010426
12950015920
12950021657
12950027455
12950032948
12950038503
12950044728
12950051381
12950059804
12950065785
12950070729
12950075978
12950086049
12950090871
12950096608
12950101796
12950107777
12950114369
12950119984
12950124318
12950129811
12950135548
12950141591
12950146474
12950153431
12950159291
12950164723
12950169972
12950174916
12950181508
12950186757
12950192677
12950198475
12950203602
12950210560
12950215626
12950222767
12950229603
12950236500
12950241932
12950248890
12950254078
12950259938
12950264393
12950270558
12950275257
12950280079
12950285084
12950290821
12950296925
12950302113
12950307484
12950313038
12950318836
12950323841
12950329029
12950334156
12950340260
12950345081
12950350208
12950357105
12950361805
12950367359
12950372974
12950378834
12950385792
12950391956
12950397510
12950404224
12950409046
12950414966
12950420093
12950425648
12950431141
12950438282
12950444202
12950449634
12950454090
12950459644
12950466541
12950472217
12950476917
12950486011
12950494312
12950502857
12950507007
12950516834
12950526355
12950533985
12950543201
12950549976
12950558826
12950567798
12950576465
12950583423
12950593555
12950600879
12950609607
12950616931
12950625171
12950632129
12950640186
12950648669
12950656909
12950663806
12950671008
12950679980
12950687427
12950694751
12950702136
12950710132
12950720019
12950727405
12950735156
12950743701
12950751025
12950759143
12950766162
12950774402
12950781970
12950790149
12950798694
12950806689
12950811145
12950823046
12950828662
12950838000
12950845690
12950853625
12950861987
12950871386
12950879626
12950887499
12950895617
12950902514
12950911242
12950918505
12950926623
12950935351
12950944506
12950952807
12950963122
12950974230
12950982531
12950993395
12951001330
12951009203
12951019579
12951027758
12951037707
12951045275
12951053393
12951061632
12951070299
12951077807
12951083849
12951092394
12951103258
12951109606
12951118395
12951127184
12951135241
12951139574
12951148912
12951156542
12951166246
12951175829
12951183336
12951190599
12951199693
12951206957
12951216478
12951224107
12951233934
12951241625
12951250597
12951258531
12951264940
12951273729
12951280992
12951289232
12951297777
12951306749
12951314073
12951322374
12951330003
12951337999
12951345994
12951353380
12951361375
12951371385
12951376756
12951384874
12951395921
12951403062
12951412400
12951420335
12951428453
12951436998
12951444200
12951454209
12951462449
12951469102
12951477281
12951486314
12951491563
12951502671
12951510911
12951519029
12951526048
12951531480
12951541795
12951552781
12951559983
12951567796
12951576096
12951584641
12951592454
12951600571
12951608933
12951617051
12951625535
12951633591
12951642441
12951650742
12951658249
12951666611
12951673996
12951681992
12951690659
12951695664
12951703049
12951711899
12951719529
12951728257
12951736008
12951744370
12951752426
12951762192
12951770127
12951777207
12951786057
12951793869
12951804978
12951811936
12951820603
12951830307
12951839706
12951848007
12951856674
12951867477
12951882919
12951891281
12951902878
12951916000
12951925461
12951934921
12951947250
12951956955
12951968979
12951983566
12951993759
12952002487
12952012802
12952021041
12952032638
12952038925
12952049118
12952060348
12952066574
12952075912
12952082992
12952089279
12952096115
12952103866
12952111556
12952116439
12952128707
12952136398
12952145797
12952153487
12952161849
12952170150
12952178207
12952185043
12952193038
12952202743
12952211532
12952218612
12952226363
12952233382
12952244491
12952256453
12952264083
12952272628
12952280562
12952288131
12952295943
12952303817
12952311873
12952318770
12952328658
12952335616
12952343672
12952352645
12952357894
12952367781
12952375289
12952381880
12952389083
12952397627
12952408248
12952416487
12952423201
12952432784
12952439986
12952447554
12952456709
12952463728
12952471236
12952480940
12952489058
12952493208
12952505354
12952514265
12952521834
12952531111
12952535994
12952547285
12952554609
12952562239
12952571943
12952579390
12952587446
12952595076
12952607222
12952615644
12952626020
12952634687
12952642195
12952650190
12952659468
12952665388
12952674299
12952685591
12952694074
12952701399
12952709638
12952721052
12952728437
12952735578
12952743635
12952751386
12952759565
12952767500
12952775556
12952783552
12952791914
12952800336
12952808759
12952817792
12952824445
12952832014
12952839521
12952847333
12952855451
12952864179
12952872602
12952878644
12952888471
12952894391
12952904157
12952910566
12952917585
12952925580
12952934430
12952941144
12952950605
12952957196
12952966046
12952973248
12952981183
12952987653
12952996076
12953002362
12953012311
12953019208
12953026715
12953034100
12953041425
12953051068
12953057233
12953064618
12953072980
12953080426
12953087933
12953097394
12953104535
12953112713
12953120770
12953129925
12953140423
12953149396
12953160077
12953168255
12953179730
12953189007
12953197247
12953208477
12953216534
12953228253
12953237225
12953248883
12953255291
12953261578
12953268414
12953275006
12953281414
12953287396
12953295086
12953302166
12953309979
12953316387
12953322002
12953328838
12953334637
12953344463
12953350140
12953357525
12953371380
12953376446
12953385357
12953390850
12953403545
12953409954
12953415691
12953423992
12953429607
12953437725
12953443340
12953451153
12953456218
12953463909
12953469707
12953475872
12953484111
12953490337
12953498272
12953503093
12953512920
12953517620
12953526775
12953531292
12953540935
12953547771
12953556011
12953561077
12953569805
12953576457
12953585979
12953590495
12953600139
12953606914
12953613017
12953621745
12953628276
12953635783
12953642497
12953648845
12953657146
12953665385
12953671672
12953681499
12953688945
12953695293
12953701762
12953710490
12953717570
12953726726
12953734538
12953745646
12953754313
12953762553
12953770121
12953777385
12953784770
12953793010
12953800456
12953807780
12953815348
12953822612
12953830485
12953836772
12953844828
12953853495
12953862712
12953871073
12953876322
12953883341
12953893229
12953900492
12953907633
12953914713
12953923930
12953929057
12953938456
12953946085
12953955729
12953962199
12953970988
12953979288
12953987040
12953995341
12954004618
12954011698
12954020060
12954026835
12954034037
12954041361
12954051066
12954058024
12954064554
12954072184
12954079325
12954089090
12954094828
12954104959
12954112162
12954122965
12954132669
12954140848
12954148233
12954157572
12954165567
12954169901
12954178934
12954189249
12954196268
12954204569
12954210916
12954217630
12954226663
12954235025
12954241678
12954250162
12954256876
12954264017
12954273294
12954278177
12954287942
12954295389
12954302347
12954309549
12954316385
12954326639
12954332620
12954339944
12954346109
12954355325
12954362344
12954370157
12954377725
12954385476
12954393960
12954401345
12954408425
12954416299
12954422708
12954432839
12954440469
12954449319
12954458779
12954466836
12954473977
12954481240
12954488137
12954495767
12954503152
12954511392
12954520852
12954528909
12954534890
12954540688
12954545632
12954551675
12954556130
12954561318
12954566201
12954572060
12954578164
12954583962
12954589638
12954595620
12954600564
12954606179
12954609231
12954616738
12954621865
12954627785
12954632973
12954640908
12954648110
12954652932
12954657998
12954663064
12954669411
12954675637
12954681252
12954686379
12954691811
12954697976
12954703591
12954708779
12954715065
12954720131
12954725685
12954731728
12954736916
12954741982
12954747048
12954751015
12954757790
12954763710
12954768898
12954773537
12954778725
12954785683
12954791176
12954797585
12954804360
12954810646
12954816200
12954821877
12954830605
12954839272
12954847572
12954852150
12954857155
12954861793
12954865883
12954870644
12954875832
12954881386
12954887184
12954892311
12954897011
12954902870
12954907570
12954913551
12954918495
12954924293
12954930092
12954934791
12954938881
12954946266
12954951149
12954956093
12954961708
12954967201
12954973060
12954978309
12954983802
12954990089
12954994972
12955000221
12955005775
12955012977
12955018470
12955025123
12955030982
12955034523
12955039772
12955045265
12955051490
12955056739
12955062965
12955066810
12955072730
12955078468
12955081947
12955089210
12955092811
12955101722
12955109840
12955115394
12955121742
12955126197
12955131141
12955136695
12955142982
12955146888
12955153724
12955160499
12955165321
12955169898
12955173865
12955180274
12955186194
12955193580
12955198768
12955206092
12955210486
12955216956
12955221656
12955226600
12955231788
12955237098
12955244544
12955252723
12955258643
12955264747
12955269935
12955276893
12955281104
12955288123
12955293616
12955301123
12955307837
12955312842
12955319861
12955325721
12955330054
12955335486
12955340003
12955348548
12955354712
12955359595
12955365271
12955371314
12955378638
12955387793
12955402075
12955410742
12955418860
12955423865
12955433997
12955442297
12955447913
12955458838
12955468542
12955475745
12955481238
12955492590
12955500220
12955506445
12955514868
12955524695
12955533545
12955540381
12955548803
12955556616
12955564856
12955572607
12955581213
12955588964
12955596777
12955605444
12955612829
12955621496
12955628942
12955636633
12955644384
12955652624
12955659948
12955668615
12955676306
12955684728
12955693212
12955701696
12955709936
12955718420
12955724950
12955732336
12955742162
12955749670
12955755163
12955765966
12955773534
12955780492
12955788854
12955797460
12955805761
12955813512
12955821813
12955829137
12955838964
12955847448
12955856664
12955863866
12955871618
12955882421
12955887426
12955895116
12955904515
12955912145
12955919591
12955927953
12955935826
12955945104
12955954015
12955962499
12955969823
12955978795
12955986058
12955994298
12956001927
12956010899
12956015233
12956025731
12956034154
12956041539
12956049229
12956057530
12956066380
12956073643
12956082188
12956089818
12956098424
12956107640
12956113865
12956123326
12956128514
12956138035
12956148716
12956157078
12956162449
12956173191
12956178502
12956189427
12956196873
12956206517
12956214024
12956221897
12956230809
12956238560
12956246739
12956256748
12956264439
12956273106
12956280430
12956289646
12956298924
12956304722
12956315281
12956322666
12956330479
12956337864
12956345371
12956355015
12956363987
12956371311
12956379551
12956388584
12956397007
12956405552
12956414524
12956422214
12956431431
12956444126
12956449619
12956459934
12956467624
12956474033
12956483066
12956491794
12956500827
12956508579
12956519504
12956526767
12956535068
12956542636
12956551425
12956559360
12956564853
12956576816
12956584262
12956592807
12956600253
12956609042
12956616245
12956623752
12956630405
12956639011
12956648471
12956654697
12956663913
12956672275
12956680026
12956688327
12956695468
12956707126
12956718295
12956723666
12956731357
12956738864
12956746982
12956755038
12956762729
12956770297
12956778903
12956786532
12956793673
12956801181
12956807833
12956815768
12956824130
12956832125
12956840243
12956845065
12956854647
12956861971
12956869235
12956874056
12956883639
12956890780
12956899142
12956905856
12956912508
12956918917
12956922701
12956929415
12956935397
12956941744
12956948641
12956954562
12956961520
12956966891
12956973177
12956978548
12956985323
12956989962
12956997530
12957004610
12957009432
12957015658
12957019625
12957026461
12957032747
12957039461
12957045809
12957052095
12957057833
12957062349
12957074434
12957081026
12957085970
12957095308
12957099092
12957106050
12957111727
12957116732
12957122042
12957128633
12957133028
12957140596
12957146761
12957151521
12957156465
12957160188
12957166353
12957172823
12957178682
12957185457
12957191377
12957198946
12957204744
12957211946
12957217012
12957221162
12957226900
12957232881
12957239534
12957246431
12957251436
12957257112
12957262178
12957269197
12957274873
12957281099
12957285982
12957292207
12957301484
12957307405
12957313081
12957318391
12957322542
12957329194
12957336091
12957339509
12957347993
12957354951
12957361116
12957367219
12957374604
12957381196
12957387849
12957393342
12957401887
12957407075
12957414094
12957418916
12957425874
12957432344
12957438142
12957443025
12957450227
12957454926
12957460298
12957464753
12957471406
12957477204
12957482819
12957488313
12957494538
12957499848
12957504853
12957511506
12957517304
12957523469
12957528474
12957532563
12957540314
12957545563
12957550751
12957556184
12957561616
12957567292
12957572541
12957577485
12957583283
12957589509
12957594514
12957599518
12957604645
12957609772
12957616425
12957622529
12957628510
12957634919
12957640900
12957647126
12957654023
12957659394
12957664887
12957669159
12957675141
12957683319
12957690338
12957694916
12957699616
12957704499
12957709259
12957714997
12957721222
12957725617
12957731781
12957737091
12957742707
12957748322
12957753693
12957758698
12957764130
12957768952
12957774994
12957781281
12957787445
12957793793
12957801727
12957808502
12957816925
12957825104
12957833221
12957840668
12957845367
12957853607
12957860382
12957868683
12957875824
12957881378
12957891693
12957898956
12957907806
12957914764
12957922821
12957929657
12957936859
12957944732
12957951629
12957960235
12957969146
12957977935
12957984832
12957993804
12958002044
12958011993
12958021087
12958031097
12958039092
12958046966
12958053802
12958062286
12958068145
12958076263
12958084564
12958093047
12958099395
12958107024
12958114898
12958120452
12958130035
12958137176
12958144622
12958151824
12958160125
12958166534
12958174834
12958182891
12958189544
12958197661
12958207427
12958215301
12958224212
12958231414
12958239226
12958247771
12958253875
12958262420
12958271209
12958279143
12958284941
12958293608
12958300688
12958310332
12958315398
12958324004
12958331755
12958340666
12958348113
12958355925
12958362761
12958369780
12958376494
12958384917
12958400053
12958409209
12958421782
12958430693
12958439421
12958448759
12958455717
12958464384
12958471770
12958480620
12958486967
12958494963
12958502531
12958511442
12958518767
12958526823
12958534514
12958541472
12958549772
12958557646
12958564665
12958570097
12958580717
12958588224
12958595793
12958602690
12958611051
12958618986
12958626249
12958631925
12958639982
12958648283
12958656523
12958663358
12958671903
12958678861
12958683805
12958693876
12958699613
12958709745
12958714994
12958722257
12958729581
12958738370
12958745389
12958753263
12958760709
12958769559
12958777799
12958785917
12958792509
12958800626
12958808927
12958818693
12958829557
12958838041
12958845487
12958852994
12958861051
12958868680
12958874906
12958882901
12958890714
12958898709
12958905362
12958913907
12958920621
12958929715
12958936124
12958943204
12958950955
12958958524
12958966458
12958974820
12958983670
12958990628
12958997952
12959004422
12959012784
12959021085
12959027249
12959036587
12959045743
12959053555
12959061917
12959068082
12959075772
12959083462
12959090726
12959099209
12959107327
12959113064
12959122342
12959130459
12959137722
12959145596
12959152371
12959159024
12959168911
12959176846
12959184353
12959192044
12959199246
12959207547
12959217190
12959226528
12959234463
12959240017
12959248928
12959255886
12959261624
12959267605
12959273892
12959278896
12959285183
12959291531
12959297817
12959303432
12959309048
12959313931
12959319118
12959324917
12959330898
12959335598
12959342007
12959348171
12959353786
12959358608
12959364223
12959369716
12959373562
12959379360
12959384731
12959388515
12959396206
12959399746
12959406399
12959412258
12959417019
12959423916
12959429470
12959435756
12959440578
12959445766
12959451381
12959456264
12959462795
12959467067
12959474147
12959479702
12959484767
12959490627
12959494838
12959499355
12959505275
12959513698
12959519802
12959527614
12959532253
12959538173
12959543971
12959549343
12959553554
12959559474
12959564296
12959570033
12959575893
12959580776
12959584926
12959590846
12959596523
12959600978
12959607753
12959612270
12959617213
12959622951
12959628505
12959634181
12959638820
12959644069
12959650416
12959654506
12959660976
12959666713
12959672938
12959678309
12959682338
12959691188
12959695155
12959701442
12959707606
12959714381
12959720241
12959725795
12959732570
12959737697
12959744593
12959752467
12959759425
12959762965
12959771083
12959777797
12959783107
12959789759
12959794947
12959806727
12959815699
12959821070
12959828150
12959834315
12959840113
12959847743
12959853663
12959858058
12959863856
12959868739
12959875636
12959881556
12959886561
12959891688
12959897303
12959903895
12959909815
12959914027
12959919947
12959925440
12959931055
12959936549
12959941675
12959947413
12959954127
12959959620
12959962916
12959972193
12959978358
12959983973
12959989039
12959996119
12959999842
12960005640
12960011805
12960017176
12960022791
12960027979
12960033472
12960039087
12960044947
12960050501
12960056116
12960062647
12960068811
12960073206
12960078150
12960084803
12960091028
12960095728
12960107019
12960112451
12960121851
12960130457
12960140466
12960148828
12960159143
12960166956
12960174402
12960182886
12960190454
12960198633
12960207300
12960215601
12960222681
12960233118
12960240747
12960249109
12960257226
12960265405
12960272424
12960281335
12960287988
12960295984
12960303369
12960312158
12960319970
12960329126
12960336999
12960344445
12960352563
12960361718
12960370080
12960377587
12960385644
12960393396
12960401757
12960410790
12960416772
12960426538
12960435388
12960443200
12960451684
12960459435
12960467614
12960474816
12960481713
12960490319
12960498315
12960506249
12960514977
12960522424
12960529870
12960541039
12960548424
12960555993
12960564965
12960573022
12960583581
12960594567
12960602257
12960607506
12960617272
12960624596
12960634362
12960641808
