12565951107
12565956600
12565961605
12565967403
12565971859
12565976803
12565982235
12565986812
12565992122
12565996761
12566001278
12566005977
12566010189
12566015377
12566020931
12566025997
12566031063
12566035579
12566040828
12566045711
12566050838
12566056148
12566063106
12566069027
12566076107
12566083248
12566088863
12566096004
12566101314
12566106868
12566114803
12566121273
12566128108
12566134639
12566142208
12566148555
12566155452
12566160884
12566167537
12566173885
12566181148
12566186641
12566192806
12566197078
12566203609
12566208369
12566212398
12566217830
12566222713
12566228328
12566231807
12566236690
12566240901
12566245235
12566250911
12566255061
12566259578
12566263484
12566269282
12566273311
12566278865
12566283137
12566287410
12566292354
12566297053
12566301509
12566307124
12566312800
12566318965
12566324824
12566330256
12566337275
12566343440
12566349421
12566355952
12566361689
12566367610
12566374080
12566380000
12566386836
12566393244
12566399043
12566406306
12566413752
12566419429
12566426997
12566434870
12566445796
12566452082
12566459651
12566466425
12566472895
12566479914
12566485224
12566493037
12566499812
12566506159
12566512324
12566519099
12566525202
12566532343
12566539423
12566544306
12566550837
12566555842
12566562983
12566569636
12566575251
12566580927
12566588251
12566596369
12566601679
12566607599
12566614679
12566620966
12566626093
12566633051
12566638483
12566646479
12566653437
12566659418
12566664911
12566674005
12566679499
12566685358
12566691095
12566697443
12566703302
12566710382
12566716547
12566723139
12566730158
12566736627
12566743280
12566748895
12566755548
12566761591
12566767328
12566775934
12566781244
12566790460
12566795831
12566804132
12566808954
12566818414
12566823541
12566831537
12566836908
12566844537
12566850702
12566856500
12566865411
12566873773
12566880670
12566888544
12566895074
12566900995
12566908685
12566916131
12566923028
12566929437
12566938226
12566946527
12566955316
12566963006
12566969232
12566976739
12566986322
12566993341
12567002252
12567009210
12567018975
12567026422
12567034661
12567041436
12567049737
12567057183
12567067010
12567071465
12567083672
12567088982
12567096185
12567102959
12567112664
12567118768
12567128350
12567135125
12567142388
12567149407
12567159112
12567164666
12567173760
12567179680
12567189690
12567198296
12567205193
12567214165
12567219841
12567227715
12567234429
12567242302
12567250542
12567256218
12567266228
12567274895
12567282524
12567291558
12567300408
12567306267
12567313225
12567320000
12567327019
12567333672
12567339287
12567347283
12567353752
12567363579
12567368034
12567377678
12567383171
12567387627
12567393181
12567399162
12567406242
12567411003
12567417595
12567423759
12567428764
12567433159
12567440361
12567445976
12567451836
12567458061
12567463432
12567467460
12567475639
12567480705
12567487724
12567492668
12567496879
12567502983
12567507316
12567513481
12567516472
12567522392
12567526970
12567534111
12567537834
12567544792
12567549919
12567557487
12567561210
12567569511
12567576103
12567582817
12567586418
12567595268
12567598686
12567607780
12567613578
12567619255
12567624809
12567632133
12567638908
12567643546
12567649528
12567656608
12567662956
12567668205
12567673820
12567679618
12567686515
12567693046
12567696830
12567704948
12567710563
12567717765
12567725150
12567730094
12567734183
12567740409
12567744865
12567751273
12567756095
12567762870
12567767692
12567774406
12567777213
12567784659
12567787528
12567794425
12567799430
12567804679
12567811027
12567817435
12567823172
12567829215
12567833793
12567839896
12567845328
12567851004
12567858573
12567863272
12567869193
12567873343
12567881217
12567885733
12567892203
12567897330
12567903433
12567909964
12567915457
12567921317
12567926505
12567932730
12567937918
12567943595
12567950003
12567953848
12567959952
12567967032
12567972220
12567975455
12567983389
12567987967
12567994864
12568000967
12568005301
12568011710
12568018423
12568023367
12568029044
12568033438
12568039786
12568047232
12568051443
12568059683
12568064139
12568070303
12568077078
12568082449
12568088186
12568093313
12568098868
12568104788
12568111441
12568117544
12568120596
12568130117
12568133352
12568139273
12568144583
12568152578
12568159597
12568164114
12568171316
12568176931
12568182852
12568187979
12568193655
12568201589
12568206716
12568212576
12568218435
12568223745
12568231741
12568240408
12568251577
12568262014
12568271230
12568280447
12568287588
12568296438
12568304067
12568314565
12568323171
12568333364
12568340566
12568350759
12568357168
12568366140
12568373037
12568380422
12568389455
12568395376
12568404226
12568410451
12568420644
12568426320
12568435659
12568442922
12568450246
12568456227
12568464894
12568471913
12568481435
12568487966
12568495717
12568504201
12568512258
12568521230
12568529408
12568538381
12568544667
12568552663
12568559133
12568568288
12568573659
12568581166
12568590260
12568597829
12568604726
12568611745
12568619496
12568627675
12568632130
12568641408
12568649586
12568657948
12568665333
12568673451
12568681569
12568688222
12568695118
12568704152
12568714772
12568722401
12568731617
12568737111
12568747303
12568753041
12568762257
12568769459
12568777211
12568786122
12568793629
12568798023
12568806507
12568813160
12568822926
12568831227
12568837574
12568846424
12568854237
12568864918
12568873158
12568882069
12568892933
12568901783
12568910023
12568919971
12568926868
12568934742
12568942737
12568949146
12568957813
12568966236
12568973682
12568981922
12568990284
12568998096
12569005909
12569013721
12569020923
12569029590
12569037098
12569047413
12569055896
12569062000
12569071949
12569080982
12569088489
12569093006
12569105274
12569112110
12569120838
12569129077
12569136463
12569144946
12569152637
12569161609
12569169421
12569177844
12569186450
12569192188
12569200427
12569208789
12569214526
12569221912
12569230518
12569238635
12569245959
12569251697
12569258777
12569266406
12569274158
12569282153
12569288501
12569298877
12569305285
12569313403
12569322253
12569329760
12569337390
12569343493
12569351855
12569360766
12569369006
12569374987
12569382678
12569390734
12569398669
12569404833
12569413378
12569423449
12569431750
12569439990
12569445849
12569453722
12569461474
12569467883
12569477709
12569486742
12569494860
12569503161
12569509203
12569517748
12569525866
12569532885
12569541125
12569549731
12569556078
12569564135
12569572130
12569580248
12569588244
12569594713
12569603747
12569612719
12569620836
12569627550
12569635729
12569644274
12569650438
12569658434
12569666674
12569675707
12569682054
12569687731
12569691820
12569699327
12569704698
12569709459
12569717211
12569723375
12569728807
12569734117
12569739794
12569743700
12569749925
12569754564
12569762010
12569767076
12569773302
12569778551
12569785020
12569789720
12569795702
12569803453
12569811510
12569815782
12569822862
12569828355
12569833299
12569840257
12569845567
12569853197
12569859361
12569866136
12569871873
12569878953
12569885301
12569889024
12569895067
12569901719
12569907335
12569912950
12569918443
12569924119
12569928697
12569933763
12569940843
12569948411
12569954393
12569960374
12569965013
12569971177
12569976976
12569981919
12569987779
12569994187
12570000352
12570006333
12570010728
12570017564
12570023667
12570028855
12570035813
12570042222
12570048203
12570053697
12570059617
12570065659
12570070115
12570076096
12570082078
12570087449
12570093430
12570100083
12570104539
12570111253
12570116868
12570122483
12570129075
12570135850
12570140549
12570146226
12570150620
12570158005
12570162522
12570168809
12570175522
12570181260
12570186265
12570192856
12570197800
12570205369
12570210312
12570216904
12570222092
12570229721
12570234909
12570242661
12570247544
12570254502
12570259262
12570265732
12570271103
12570278244
12570285141
12570289353
12570296677
12570303086
12570307846
12570313095
12570321030
12570328415
12570335922
12570341049
12570346909
12570353500
12570360581
12570366318
12570372788
12570380356
12570389755
12570393173
12570401108
12570406967
12570416305
12570421371
12570427780
12570432175
12570439926
12570445114
12570451706
12570458359
12570464828
12570471603
12570477951
12570483383
12570490646
12570494980
12570502609
12570506759
12570513290
12570515854
12570523605
12570529281
12570535629
12570540145
12570546066
12570552841
12570560104
12570564987
12570573288
12570583419
12570589767
12570598495
12570604415
12570612777
12570620590
12570627731
12570636276
12570643295
12570651595
12570660079
12570666244
12570673995
12570681808
12570690231
12570696395
12570705184
12570713302
12570719344
12570728133
12570734664
12570743758
12570752059
12570758407
12570767928
12570776473
12570783370
12570792159
12570801192
12570807296
12570816085
12570822432
12570831160
12570840010
12570846907
12570854720
12570862899
12570870894
12570877791
12570886763
12570894515
12570903182
12570911482
12570919417
12570925520
12570933333
12570941084
12570949202
12570957686
12570966048
12570972456
12570980391
12570988509
12570996626
12571002791
12571011214
12571020552
12571028853
12571035628
12571043562
12571048750
12571057295
12571065230
12571073408
12571083174
12571089644
12571099165
12571105085
12571113447
12571121931
12571128462
12571137251
12571147444
12571154158
12571161665
12571169477
12571177412
12571185163
12571191877
12571200605
12571210371
12571217329
12571225019
12571233747
12571241743
12571248029
12571255781
12571265119
12571271833
12571279035
12571286787
12571293562
12571300886
12571310529
12571314497
12571325483
12571333967
12571340925
12571347700
12571355146
12571361066
12571371442
12571377302
12571386213
12571393049
12571402326
12571409101
12571419111
12571424970
12571432416
12571440107
12571448102
12571458234
12571465131
12571473859
12571482221
12571488019
12571494306
12571503705
12571509198
12571518292
12571526044
12571535138
12571542279
12571549786
12571558026
12571564801
12571571881
12571578595
12571589825
12571597089
12571601178
12571611676
12571617474
12571626019
12571631818
12571640301
12571649762
12571658002
12571664288
12571673749
12571679669
12571688458
12571694928
12571702496
12571711041
12571719403
12571726117
12571735150
12571741375
12571749859
12571756146
12571764874
12571773175
12571779583
12571789227
12571796185
12571803509
12571810528
12571817425
12571825543
12571832745
12571840679
12571849957
12571858074
12571865215
12571871441
12571878887
12571886639
12571894207
12571901104
12571910870
12571916790
12571926678
12571932781
12571941204
12571949383
12571954815
12571962871
12571968609
12571974346
12571980266
12571987468
12571992717
12571999065
12572004863
12572011821
12572019268
12572023906
12572029766
12572035076
12572039531
12572044841
12572050396
12572057109
12572064006
12572068279
12572073711
12572079509
12572084941
12572090679
12572096355
12572102214
12572107463
12572113262
12572117961
12572123210
12572128093
12572133281
12572138408
12572145244
12572152629
12572157451
12572163799
12572169780
12572175090
12572180705
12572184734
12572191875
12572198405
12572203349
12572210429
12572214885
12572221049
12572225322
12572230815
12572237773
12572243815
12572248759
12572253459
12572260234
12572266459
12572272380
12572275432
12572283793
12572287150
12572296122
12572300029
12572308635
12572313884
12572321757
12572326945
12572333354
12572338908
12572347575
12572352946
12572358988
12572365763
12572371073
12572378031
12572383586
12572388529
12572393901
12572400675
12572405558
12572411906
12572416606
12572423930
12572429667
12572434733
12572441081
12572447855
12572450785
12572458903
12572461894
12572470377
12572473673
12572482584
12572488322
12572494425
12572499674
12572506449
12572513407
12572516581
12572524210
12572530314
12572538676
12572546732
12572551859
12572558695
12572563700
12572568766
12572575541
12572581400
12572587809
12572595560
12572603556
12572609293
12572615030
12572620218
12572626444
12572631632
12572636209
12572642008
12572648416
12572652323
12572658182
12572662943
12572668741
12572672708
12572678873
12572685037
12572689554
12572694437
12572700296
12572704874
12572711099
12572715921
12572721414
12572728311
12572733804
12572740823
12572745767
12572750894
12572755838
12572760172
12572766946
12572772501
12572780862
12572785318
12572791666
12572798257
12572804178
12572808511
12572813943
12572820047
12572828226
12572834634
12572842508
12572850809
12572857583
12572865579
12572872171
12572881143
12572889688
12572897867
12572905313
12572913369
12572918008
12572926675
12572935037
12572941446
12572950784
12572958413
12572962197
12572974954
12572981484
12572988320
12572994363
12573005044
12573014871
12573022317
12573026162
12573037148
12573043557
12573053933
12573059853
12573068703
12573075845
12573084145
12573090615
12573099709
12573105935
12573114785
12573122597
12573129189
12573137368
12573146157
12573152566
12573159768
12573167946
12573176247
12573182107
12573188759
12573197854
12573205483
12573215615
12573221657
12573230629
12573237648
12573245278
12573249123
12573261879
12573270058
12573277565
12573286659
12573294106
12573300698
12573308571
12573314919
12573325905
12573330666
12573343422
12573349831
12573359291
12573367226
12573376747
12573382668
12573392860
12573401649
12573408974
12573414955
12573424232
12573428322
12573437721
12573446022
12573453529
12573460060
12573470619
12573477150
12573484535
12573492347
12573499489
12573506019
12573515419
12573521705
12573531776
12573538063
12573544715
12573553321
12573561317
12573567787
12573576210
12573582923
12573591285
12573600868
12573608375
12573615882
12573619850
12573629981
12573637794
12573644752
12573653602
12573662696
12573669044
12573677711
12573686683
12573694068
12573700294
12573708778
12573716956
12573724708
12573731055
12573738990
12573747352
12573755164
12573761146
12573767493
12573776771
12573787330
12573793738
12573801978
12573808509
12573817786
12573823645
12573831458
12573838355
12573847571
12573854956
12573863684
12573871070
12573877967
12573884925
12573894324
12573901038
12573909339
12573917639
12573923377
12573932044
12573937964
12573947485
12573953772
12573964026
12573970435
12573979712
12573985876
12573994788
12574000952
12574008704
12574018103
12574024878
12574034155
12574043310
12574049902
12574056311
12574065893
12574073828
12574079870
12574089026
12574095312
12574104223
12574113867
12574121435
12574129187
12574137732
12574144689
12574152685
12574159521
12574168249
12574177831
12574181799
12574192724
12574196813
12574207189
12574214391
12574222082
12574228979
12574237463
12574243688
12574251989
12574256017
12574262304
12574266454
12574273168
12574279638
12574286230
12574290685
12574298437
12574303380
12574309362
12574315221
12574320226
12574327489
12574331762
12574338109
12574342199
12574349035
12574354772
12574361486
12574367894
12574373815
12574380163
12574384252
12574389989
12574395604
12574400975
12574404577
12574412694
12574418859
12574425206
12574430211
12574436620
12574440648
12574447301
12574454503
12574460546
12574465550
12574471593
12574477025
12574482945
12574488194
12574496068
12574501866
12574508092
12574514073
12574518224
12574524693
12574529271
12574536412
12574542821
12574549596
12574555211
12574561620
12574567113
12574571629
12574578526
12574584691
12574590611
12574596593
12574603795
12574608800
12574614720
12574620213
12574626866
12574634801
12574642430
12574648411
12574653782
12574662083
12574667576
12574673741
12574681614
12574689244
12574695347
12574703892
12574709263
12574715245
12574723118
12574730198
12574735203
12574743687
12574748936
12574754673
12574759922
12574765660
12574770909
12574776341
12574780674
12574788181
12574792881
12574798863
12574804905
12574810764
12574816441
12574821995
12574827976
12574834751
12574839573
12574845188
12574851231
12574857212
12574863071
12574868015
12574873997
12574879612
12574886082
12574891331
12574897312
12574903477
12574908054
12574913975
12574920078
12574926853
12574931553
12574938633
12574943271
12574949924
12574954441
12574960788
12574965732
12574974460
12574979221
12574985630
12574990085
12574996677
12575002475
12575008701
12575013828
12575020969
12575025730
12575031711
12575036106
12575043979
12575048313
12575054538
12575062961
12575069370
12575076084
12575081516
12575085910
12575092563
12575098606
12575107456
12575114169
12575123020
12575129550
12575139499
12575146091
12575155063
12575164340
12575169833
12575180942
12575191623
12575199130
12575209262
12575214999
12575223788
12575232516
12575238315
12575248507
12575257297
12575267428
12575274875
12575282687
12575286837
12575305209
12575311618
12575321383
12575328219
12575338351
12575346713
12575354525
12575363497
12575370883
12575377535
12575387789
12575392977
12575404635
12575408724
12575420687
12575424899
12575436495
12575440768
12575451998
12575460360
12575467379
12575473360
12575482272
12575491366
12575498263
12575504732
12575512179
12575519320
12575528841
12575534823
12575545015
12575550936
12575558504
12575565889
12575575960
12575582613
12575591158
12575597384
12575606966
12575613008
12575621614
12575627962
12575637117
12575643770
12575652498
12575660372
12575666963
12575674837
12575681734
12575689485
12575697908
12575707552
12575715608
12575724580
12575730257
12575738069
12575745638
12575753389
12575760957
12575769441
12575777498
12575783968
12575792818
12575798738
12575806917
12575814790
12575823213
12575830171
12575839326
12575862459
12575869844
12575878633
12575885530
12575891938
12575899385
12575909822
12575917634
12575924958
12575934480
12575941682
12575949250
12575956147
12575964692
12575971406
12575979707
12575986421
12575993989
12576000886
12576007539
12576017304
12576024995
12576031953
12576041230
12576048249
12576054169
12576063630
12576070649
12576077424
12576086518
12576093293
12576101350
12576110016
12576117158
12576124299
12576130463
12576143281
12576152680
12576159577
12576167084
12576177399
12576181488
12576192780
12576197052
12576207428
12576218048
12576224945
12576233063
12576241791
12576246918
12576256623
12576260590
12576271820
12576280365
12576287140
12576295624
12576302338
12576308258
12576317597
12576325043
12576332184
12576338898
12576348846
12576354950
12576362457
12576370697
12576378326
12576384308
12576394623
12576399444
12576409271
12576415191
12576424347
12576432159
12576440765
12576446686
12576457184
12576463409
12576473419
12576481353
12576488189
12576494049
12576502288
12576508087
12576514251
12576519073
12576527252
12576530670
12576537750
12576544342
12576549407
12576555694
12576560882
12576566680
12576572723
12576576751
12576583587
12576589813
12576595123
12576600005
12576605804
12576611724
12576616668
12576622955
12576627105
12576633025
12576637481
12576644012
12576649688
12576657684
12576663421
12576670989
12576675933
12576682769
12576687224
12576692351
12576697784
12576704497
12576709441
12576715606
12576721282
12576725554
12576731719
12576738738
12576745025
12576751433
12576756987
12576761504
12576767547
12576774321
12576781279
12576786528
12576793975
12576800017
12576805083
12576813811
12576818755
12576825469
12576830352
12576838286
12576844878
12576852446
12576857634
12576863921
12576871367
12576876738
12576881377
12576887297
12576892729
12576898833
12576903655
12576910307
12576914397
12576920928
12576926115
12576931059
12576938017
12576945158
12576950835
12576955107
12576959929
12576966277
12576972502
12576977995
12576983977
12576989653
12576995756
12577001005
12577005644
12577012907
12577017241
12577023100
12577028105
12577035368
12577040129
12577045500
12577051664
12577057707
12577061918
12577068205
12577076017
12577081511
12577086271
12577092314
12577098112
12577103117
12577108732
12577112883
12577119963
12577126249
12577131193
12577137419
12577141813
12577146879
12577153410
12577158842
12577165373
12577172087
12577177702
12577183012
12577189359
12577194853
12577199735
12577205229
12577210233
12577214933
12577222135
12577226469
12577232328
12577237394
12577244047
12577250822
12577257474
12577266386
12577272916
12577280546
12577286039
12577291227
12577297330
12577304899
12577310575
12577316312
12577323392
12577329191
12577333951
12577341459
12577346525
12577353788
12577359769
12577365873
12577372403
12577380643
12577389554
12577395047
12577404813
12577413724
12577421231
12577428861
12577436490
12577447354
12577457547
12577464261
12577471829
12577481229
12577489346
12577495999
12577505093
12577512784
12577522000
12577531827
12577539395
12577545865
12577555203
12577561978
12577569363
12577580655
12577590665
12577600064
12577605130
12577613797
12577620816
12577629544
12577636746
12577643887
12577652127
12577659634
12577665310
12577675747
12577679837
12577689297
12577699002
12577704861
12577714688
12577724758
12577732205
12577738369
12577746975
12577754788
12577760586
12577769497
12577776333
12577785977
12577792568
12577799038
12577807766
12577813870
12577822414
12577828152
12577837856
12577850430
12577857143
12577863735
12577873989
12577881679
12577887478
12577895046
12577904201
12577913357
12577921230
12577928676
12577935390
12577943813
12577950832
12577957912
12577965969
12577977016
12577984645
12577991542
12577999111
12578005031
12578013332
12578021144
12578027675
12578037685
12578046230
12578054897
12578060024
12578068691
12578077175
12578083217
12578092006
12578100917
12578107936
12578116481
12578122951
12578132289
12578138515
12578147365
12578153346
12578162501
12578170436
12578177638
12578185573
12578192409
12578200282
12578208156
12578216640
12578223536
12578232753
12578240931
12578245021
12578255214
12578261439
12578270717
12578279506
12578287562
12578294703
12578305690
12578312037
12578322047
12578330714
12578337794
12578346034
12578352015
12578360316
12578369959
12578376429
12578383875
12578393031
12578401270
12578409022
12578416468
12578422633
12578431483
12578440882
12578446803
12578455653
12578461878
12578471094
12578478724
12578485926
12578494471
12578503931
12578510279
12578517054
12578525843
12578532801
12578541468
12578548670
12578555262
12578564478
12578570765
12578580286
12578586512
12578594507
12578600489
12578608606
12578618433
12578628321
12578634851
12578643274
12578651758
12578658655
12578666406
12578672510
12578680628
12578689783
12578696069
12578704736
12578711084
12578718286
12578727625
12578735254
12578744653
12578754114
12578760644
12578768335
12578777490
12578782495
12578791162
12578798669
12578805810
12578814294
12578823816
12578831018
12578836633
12578843225
12578848718
12578853296
12578860254
12578866296
12578872949
12578877038
12578883020
12578887231
12578893212
12578897546
12578903527
12578909753
12578915979
12578921228
12578925256
12578930322
12578935693
12578940820
12578946313
12578952966
12578957849
12578964807
12578967919
12578975793
12578980859
12578988183
12578997399
12579002892
12579008080
12579013024
12579017846
12579025903
12579030480
12579037743
12579042565
12579050561
12579057153
12579061852
12579066125
12579072900
12579076256
12579084191
12579091332
12579096520
12579100854
12579107445
12579111352
12579118065
12579122094
12579127892
12579132165
12579138817
12579143334
12579150780
12579155114
12579160119
12579164147
12579171166
12579176720
12579183495
12579188317
12579195092
12579200096
12579208153
12579215599
12579221398
12579227440
12579233177
12579238182
12579244469
12579250267
12579255943
12579260216
12579264672
12579271446
12579277611
12579284813
12579290306
12579296837
12579300987
12579307274
12579311668
12579318626
12579324486
12579330345
12579336754
12579341515
12579347740
12579352623
12579357384
12579362755
12579367454
12579374168
12579378685
12579385643
12579391624
12579397667
12579402061
12579407921
12579415184
12579421226
12579427391
12579433861
12579438682
12579445762
12579450889
12579458824
12579465599
12579470665
12579476341
12579481224
12579486168
12579492149
12579496421
12579503074
12579508079
12579516136
12579522178
12579527549
12579532371
12579539390
12579545310
12579549644
12579555869
12579563743
12579569602
12579576804
12579581931
12579589317
12579595054
12579599937
12579604881
12579614768
12579620445
12579625999
12579632224
12579638450
12579645469
12579651023
12579656516
12579661826
12579667625
12579673179
12579682517
12579689536
12579696677
12579703818
12579709922
12579718528
12579726279
12579732688
12579741111
12579747092
12579755637
12579761313
12579769797
12579777732
12579786277
12579791220
12579800498
12579806906
12579815512
12579821982
12579831076
12579839560
12579845664
12579853598
12579860373
12579868247
12579875632
12579883566
12579890402
12579899497
12579906760
12579912680
12579921530
12579927512
12579937216
12579943747
12579953207
12579959677
12579971091
12579975546
12579985678
12579991659
12580000693
12580008505
12580015890
12580023153
12580034201
12580040609
12580048605
12580056540
12580064230
12580070456
12580080343
12580087790
12580098715
12580102926
12580113974
12580117941
12580129843
12580136068
12580144064
12580150717
12580159689
12580168539
12580176290
12580182516
12580190817
12580197164
12580206136
12580212606
12580220358
12580228475
12580236288
12580242635
12580250936
12580259603
12580266500
12580275594
12580284444
12580293233
12580300435
12580307149
12580315206
12580323690
12580330770
12580339315
12580346761
12580354879
12580362264
12580368673
12580375570
12580384847
12580391011
12580403157
12580409383
12580421041
12580431111
12580440511
12580448445
12580455403
12580463887
12580470906
12580479878
12580486470
12580497334
12580504964
12580511983
12580519673
12580528462
12580533101
12580543355
12580551900
12580559529
12580568074
12580575581
12580584431
12580591817
12580602131
12580609883
12580614277
12580625630
12580630085
12580641194
12580649861
12580657429
12580666340
12580674092
12580681965
12580689534
12580698078
12580706074
12580714253
12580722248
12580731343
12580739582
12580748127
12580755940
12580760090
12580772846
12580776936
12580787556
12580792683
12580802754
12580810200
12580818317
12580824909
12580834064
12580840717
12580850361
12580859821
12580867573
12580876240
12580883686
12580887836
12580900104
12580904865
12580914631
12580922077
12580931354
12580937946
12580946247
12580954609
12580962604
12580968830
12580976825
12580983112
12580992511
12580998127
12581007099
12581013202
12581021869
12581030841
12581039264
12581046832
12581055377
12581062030
12581069904
12581076495
12581084186
12581089801
12581099078
12581105792
12581111713
12581119037
12581122272
12581131122
12581138873
12581145282
12581154010
12581159381
12581167743
12581171466
12581178729
12581181903
12581190509
12581196612
12581202106
12581207660
12581211932
12581217853
12581227374
12581236529
12581242267
12581249957
12581255572
12581259539
12581265521
12581271624
12581276019
12581282489
12581286334
12581293597
12581298297
12581304705
12581307574
12581315448
12581320819
12581326678
12581332049
12581336444
12581341265
12581347857
12581353106
12581358294
12581365313
12581370501
12581376238
12581381304
12581386675
12581392413
12581396685
12581403460
12581408099
12581416277
12581422991
12581428545
12581431231
12581439288
12581443804
12581451006
12581454424
12581463030
12581468462
12581473345
12581477434
12581483782
12581488054
12581495135
12581500933
12581506609
12581511309
12581518511
12581523455
12581528154
12581531756
12581537066
12581541704
12581549395
12581552691
12581559343
12581563494
12581570147
12581575884
12581582048
12581585283
12581592485
12581597185
12581603777
12581610308
12581615190
12581619036
12581624346
12581628557
12581634722
12581639360
12581645830
12581650652
12581659197
12581666460
12581671526
12581679338
12581687273
12581691240
12581698320
12581707170
12581713213
12581721025
12581727556
12581735857
12581742631
12581747331
12581754594
12581759050
12581764299
12581771989
12581776628
12581781694
12581787797
12581793046
12581801896
12581807451
12581815141
12581820451
12581826066
12581832231
12581837114
12581844865
12581851213
12581858537
12581863298
12581868669
12581873246
12581879655
12581886247
12581890519
12581897111
12581901567
12581907182
12581914384
12581922380
12581929399
12581936967
12581945146
12581952287
12581959489
12581969438
12581975480
12581983842
12581991593
12581999162
12582005875
12582014542
12582021867
12582030595
12582038224
12582044327
12582051774
12582057267
12582066483
12582076005
12582083390
12582087662
12582099564
12582105668
12582114518
12582121781
12582128800
12582140152
12582147355
12582154557
12582163590
12582170426
12582179215
12582185257
12582194413
12582204361
12582213089
12582220474
12582229202
12582238663
12582248490
12582257889
12582265762
12582277176
12582285050
12582293778
12582302933
12582309280
12582320084
12582326858
12582338150
12582346451
12582355972
12582364395
12582372635
12582377701
12582390884
12582398575
12582408462
12582418289
12582429458
12582436355
12582448440
12582455337
12582464370
12582470840
12582480728
12582487686
12582495925
12582504898
12582513381
12582520095
12582528457
12582534622
12582540786
12582551040
12582558303
12582566665
12582577041
12582585708
12582592605
12582601394
12582609634
12582617446
12582626723
12582634475
12582638747
12582650344
12582654861
12582664748
12582670425
12582678420
12582684035
12582692763
12582698928
12582708205
12582715163
12582724379
12582730666
12582738906
12582746047
12582752822
12582763076
12582768752
12582777785
12582784072
12582793105
12582799514
12582807509
12582816542
12582824355
12582831313
12582839369
12582845900
12582855238
12582861830
12582870375
12582876723
12582885634
12582894484
12582900954
12582909132
12582914442
12582923293
12582929274
12582936720
12582946486
12582954115
12582963026
12582970289
12582977370
12582984816
12582989271
12583001295
12583005934
12583015211
12583021620
12583030897
12583039991
12583047316
12583053602
12583062391
12583069044
12583077406
12583084425
12583092604
12583100416
12583108717
12583115797
12583123365
12583131422
12583140577
12583148206
12583152479
12583161512
12583168165
12583178785
12583185560
12583194044
12583203626
12583210401
12583219740
12583227186
12583235425
12583242139
12583249341
12583258375
12583265089
12583272962
12583280652
12583289930
12583298108
12583306287
12583313550
12583319898
12583327894
12583335706
12583345472
12583351514
12583362012
12583366162
12583372998
12583377515
12583383924
12583389112
12583395887
12583400525
12583406690
12583412732
12583416944
12583422132
12583428601
12583436658
12583441602
12583447766
12583452405
12583458875
12583463269
12583469739
12583475537
12583484937
12583488049
12583495557
12583500867
12583505627
12583508557
12583515454
12583521558
12583528760
12583533459
12583539319
12583545117
12583549084
12583554822
12583562207
12583566540
12583573010
12583579114
12583583630
12583589551
12583595349
12583600476
12583605237
12583611767
12583617810
12583623425
12583628369
12583636181
12583639233
12583647046
12583651806
12583659375
12583665112
12583672253
12583677563
12583684582
12583689038
12583696667
12583703503
12583710034
12583715649
12583720043
12583726269
12583730908
12583738110
12583742809
12583749767
12583754894
12583761242
12583765637
12583772595
12583778027
12583785900
12583792553
12583798962
12583803051
12583813122
12583818310
12583825756
12583831310
12583838573
12583843761
12583853771
12583859386
12583864452
12583872265
12583877392
12583882702
12583889232
12583895580
12583902599
12583908031
12583914013
12583919201
12583924694
12583929638
12583934337
12583941295
12583945690
12583953136
12583956554
12583962963
12583968029
12583975170
12583979869
12583986644
12583993907
12584000865
12584004161
12584010936
12584016124
12584023082
12584027904
12584033824
12584040294
12584044811
12584052196
12584057567
12584063426
12584069896
12584075389
12584081126
12584086498
12584092784
12584098766
12584105052
12584110423
12584114879
12584121104
12584126353
12584132457
12584139171
12584144298
12584150767
12584155589
12584161754
12584165233
12584171702
12584178172
12584183909
12584188731
12584195628
12584200145
12584205760
12584212352
12584218455
12584221690
12584232859
12584241282
12584249644
12584254283
12584265208
12584272105
12584282542
12584289256
12584296153
12584304698
12584312693
12584319773
12584326060
12584335276
12584342356
12584350047
12584358347
12584366038
12584375864
12584383189
12584390757
12584397776
12584404368
12584414317
12584420725
12584429758
12584437144
12584444590
12584452647
12584459788
12584468455
12584476938
12584485544
12584492808
12584501841
12584509226
12584517893
12584524851
12584533091
12584539133
12584548960
12584555979
12584565195
12584574289
12584580820
12584587900
12584596811
12584603403
12584610849
12584619028
12584628000
12584634531
12584643564
12584650644
12584657419
12584666086
12584673227
12584677072
12584688058
12584697519
12584704660
12584708627
12584718759
12584724618
12584733224
12584739145
12584748788
12584757822
12584765939
12584772592
12584781564
12584787423
12584796151
12584802255
12584811288
12584820199
12584829110
12584835580
12584842599
12584851632
12584859750
12584866342
12584873361
12584882394
12584891244
12584898141
12584904550
12584913766
12584919503
12584928536
12584935372
12584944100
12584952096
12584961923
12584970284
12584977853
12584985360
12584993478
12585000008
12585007760
12585014474
12585023751
12585030648
12585038766
12585044991
12585053292
12585062264
12585067452
12585077401
12585083565
12585092721
12585100228
12585108101
12585115242
12585122384
12585129708
12585136849
12585144600
12585152596
12585159493
12585168465
12585174813
12585183052
12585191719
12585198738
12585207772
12585215950
12585222359
12585228768
12585238594
12585244637
12585254952
12585261665
12585268929
12585277718
12585285042
12585293770
12585301826
12585306953
12585316536
12585325142
12585332893
12585339546
12585347175
12585356392
12585364998
12585371528
12585377571
12585387642
12585394600
12585405220
12585411262
12585421394
12585427803
12585437324
12585442512
12585451728
12585460029
12585468086
12585473030
12585482002
12585488349
12585497261
12585504157
12585513008
12585519294
12585527778
12585534675
12585544563
12585553413
12585560554
12585569465
12585575996
12585583076
12585590461
12585598212
12585608344
12585615852
12585620124
12585629218
12585635871
12585646003
12585652595
12585660346
12585669135
12585674018
12585679938
12585685065
12585691352
12585697272
12585701972
12585707831
12585713446
12585720282
12585725104
12585731757
12585737555
12585743659
12585748725
12585756171
12585759833
12585767035
12585772406
12585780219
12585784613
12585792243
12585796210
12585801276
12585810980
12585816290
12585822028
12585827521
12585832465
12585839423
12585844183
12585849921
12585855902
12585860785
12585865485
12585871649
12585875983
12585880866
12585886237
12585891791
12585900397
12585905463
12585913519
12585918524
12585924628
12585930975
12585936346
12585941656
12585948126
12585954413
12585960394
12585966742
12585972662
12585977728
12585984198
12585990179
12585997198
12586003546
12586008307
12586015204
12586021368
12586029364
12586035833
12586042974
12586051214
12586057867
12586061102
12586069403
12586074285
12586079534
12586083990
12586091680
12586098272
12586103643
12586108587
12586114996
12586119756
12586125921
12586132025
12586137518
12586142339
12586147405
12586153265
12586157354
12586165167
12586171392
12586175848
12586182134
12586188970
12586193914
12586198980
12586204778
12586218450
12586233221
12586240850
12586253545
12586258550
12586271978
12586280462
12586286809
12586293889
12586303716
12586309392
12586315679
12586319341
12586325383
12586330388
12586336065
12586341253
12586348088
12586352788
12586360417
12586365178
12586371404
12586377751
12586383794
12586390081
12586394780
12586401494
12586406011
12586412541
12586418035
12586421880
12586428166
12586433232
12586439153
12586442754
12586450200
12586456853
12586461675
12586466679
12586473027
12586477605
12586484929
12586490971
12586495183
12586501958
12586506596
12586512395
12586517644
12586521245
12586527043
12586531621
12586537663
12586543461
12586549504
12586556218
12586561833
12586568669
12586576726
12586582768
12586591069
12586599675
12586607243
12586615178
12586620915
12586628544
12586635929
12586642277
12586651738
12586663578
12586669621
12586677677
12586685673
12586691960
12586700382
12586708683
12586717594
12586725163
12586731388
12586739872
12586747563
12586754582
12586762333
12586768925
12586777164
12586783817
12586791569
12586798832
12586806644
12586814396
12586821049
12586828556
12586837528
12586847294
12586854069
12586860416
12586869388
12586876041
12586883121
12586892643
12586900516
12586908573
12586917972
12586921756
12586934391
12586938663
12586948429
12586954288
12586964115
12586972538
12586979801
12586985904
12586995243
12587001102
12587008304
12587014346
12587022220
12587031009
12587039188
12587045413
12587053653
12587059390
12587067325
12587073673
12587081546
12587090213
12587097049
12587105411
12587112674
12587119083
12587126956
12587135257
12587141116
12587152164
12587162234
12587169681
12587177737
12587184024
12587192447
12587199771
12587208194
12587216189
12587225161
12587234439
12587246279
12587259036
12587266848
12587277346
12587287417
12587294497
12587303286
12587314883
12587326174
12587334475
12587343691
12587360537
12587369082
12587379641
12587390932
12587398562
12587410891
12587418581
12587433169
12587443850
12587452395
12587461367
12587469179
12587480715
12587489931
12587501284
12587511965
12587522097
12587536318
12587546938
12587558107
12587566835
12587577883
12587589418
12587596376
12587608217
12587615358
12587628237
12587638002
12587648622
12587656313
12587666566
12587676698
12587686281
12587697267
12587706605
12587715883
12587725587
12587734498
12587744386
12587755494
12587764894
12587773073
12587781862
12587793275
12587802369
12587817750
12587828736
12587839845
12587850892
12587862001
12587871949
12587883485
12587894166
12587905885
12587915894
12587928224
12587942201
12587951051
12587962403
12587972291
12587982606
12587990296
12588003175
12588010865
12588021729
12588032532
12588042298
12588050110
12588063660
12588072388
12588084656
12588094910
12588103760
12588114258
12588122620
12588131775
12588142395
12588154053
12588164002
12588175659
12588194031
12588213379
12588232605
12588255676
12588279358
12588301025
12588320129
12588341430
12588361084
12588381775
12588391601
12588404113
12588413757
12588423950
12588443542
12588458557
12588472167
12588485534
12588499145
12588508666
12588516601
12588526306
12588534606
12588543517
12588552856
12588562621
12588571410
12588579040
12588588012
12588596191
12588603759
12588611816
12588620177
12588627196
12588635802
12588642882
12588652038
12588660338
12588666869
12588675231
12588683654
12588689879
12588700927
12588708495
12588717040
12588723449
12588732238
12588738585
12588747313
12588755370
12588765074
12588773680
12588781615
12588789061
12588797240
12588805663
12588814086
12588822691
12588828734
12588841856
12588852171
12588863524
12588872374
12588882384
12588890440
12588895445
12588902647
12588908018
12588912230
12588916930
12588920836
12588925535
12588929625
12588934996
12588940123
12588945250
12588949705
12588953917
12588958494
12588962462
12588968016
12588974302
12588976744
12588983214
12588988279
12588992613
12588996885
12589002073
12589007322
12589011107
12589017637
12589021788
12589026121
12589029661
12589035337
12589039915
12589045957
12589050535
12589055540
12589061399
12589066465
12589071409
12589077452
12589083860
12589090086
12589095152
12589100340
12589103819
12589109312
12589113157
12589119444
12589127012
12589132383
12589136656
12589141782
12589147581
12589153684
12589159910
12589165647
12589173887
12589178342
12589184873
12589188901
12589193845
12589197568
12589202390
12589207883
12589212522
12589216855
12589221189
12589224973
12589229551
12589234434
12589241392
12589247617
12589252866
12589260740
12589266538
12589274900
12589278806
12589287351
12589296506
12589302366
12589310727
12589319699
12589326230
12589334348
12589340268
12589348630
12589354489
12589363156
12589370053
12589378110
12589386289
12589392819
12589400388
12589407590
12589413693
12589421567
12589427853
12589435788
12589442502
12589448727
12589459042
12589465146
12589474484
12589481747
12589490475
12589496884
12589503781
12589510739
12589519040
12589527768
12589534970
12589539914
12589550595
12589554867
12589566220
12589570981
12589581479
12589587704
12589595578
12589604672
12589612301
12589618710
12589627133
12589634030
12589640927
12589649838
12589655514
12589665707
12589673397
12589682614
12589689511
12589696713
12589704037
12589712521
12589717465
12589729488
12589736507
12589745541
12589751827
12589760128
12589768917
12589774532
12589782955
12589791256
12589800167
12589806820
12589816097
12589825191
12589832271
12589840389
12589849483
12589856258
12589864986
12589870723
12589880611
12589889461
12589900203
12589907222
12589917171
12589925655
12589935237
12589944820
12589953975
12589961238
12589968379
12589976924
12589984065
12589993221
12590001094
12590005916
12590017024
12590025386
12590032405
12590036495
12590047847
12590055049
12590063472
12590069575
12590078120
12590085078
12590094905
12590102046
12590111568
12590118709
12590127315
12590136653
12590144893
12590153621
12590162471
12590169063
12590177241
12590185725
12590193782
12590200618
12590211116
12590219538
12590228144
12590234492
12590243708
12590252558
12590259638
12590268366
12590274409
12590283747
12590290339
12590300410
12590308466
12590315791
12590323908
12590331843
12590340937
12590348139
12590354548
12590363642
12590369990
12590379145
12590385554
12590395136
12590404597
12590416193
12590424860
12590432306
12590440790
12590448603
12590455378
12590466364
12590475580
12590483149
12590492609
12590499933
12590506403
12590514276
12590520624
12590530207
12590539179
12590547724
12590554254
12590562250
12590570551
12590578913
12590585871
12590595209
12590601496
12590610101
12590617304
12590627008
12590634760
12590643182
12590650629
12590657281
12590668329
12590673090
12590684808
12590690240
12590697809
12590703302
12590708368
12590713678
12590721734
12590725946
12590735711
12590744134
12590750482
12590755731
12590761041
12590765924
12590771661
12590776788
12590782403
12590787347
12590793145
12590797174
12590803094
12590808770
12590814996
12590820489
12590826409
12590830987
12590837152
12590843438
12590849725
12590853143
12590859674
12590865594
12590870416
12590876031
12590881036
12590885858
12590892571
12590896905
12590904351
12590909661
12590917046
12590921380
12590927239
12590931939
12590938775
12590944451
12590949273
12590955437
12590961480
12590967156
12590972710
12590979424
12590984551
12590991143
12590995293
12591001824
12591007073
12591012688
12591019219
12591024468
12591030144
12591035210
12591040032
12591046868
12591051507
12591058281
12591064751
12591070488
12591074883
12591081109
12591086785
12591093377
12591098015
12591103630
12591109307
12591113701
12591120049
12591124993
12591131523
12591135979
12591142510
12591148796
12591154473
12591160271
12591165520
12591172234
12591177239
12591181755
12591187432
12591194695
12591200493
12591206291
12591212395
12591219170
12591226250
12591231438
12591236992
12591244682
12591250725
12591257988
12591263542
12591269646
12591273003
12591282463
12591288078
12591294121
12591301628
12591306694
12591313530
12591320000
12591325249
12591332023
12591339348
12591347709
12591353752
12591358146
12591364738
12591369560
12591376823
12591382560
12591386345
12591392936
12591398063
12591403495
12591408928
12591413505
12591418815
12591425346
12591430595
12591436515
12591442619
12591448173
12591454154
12591459281
12591463676
12591470451
12591475212
12591481498
12591486015
12591492973
12591497367
12591503776
12591508231
12591514701
12591520561
12591525993
12591531303
12591536430
12591543266
12591547782
12591555656
12591562919
12591572379
12591579459
12591589896
12591598991
12591606498
12591613334
12591621207
12591627555
12591637565
12591643973
12591654349
12591661368
12591672049
12591678580
12591688285
12591694754
12591704337
12591710868
12591720511
12591727103
12591736869
12591743216
12591752188
12591758658
12591768302
12591774649
12591782096
12591791861
12591801383
12591808463
12591816092
12591825369
12591829825
12591841605
12591845816
12591857718
12591864737
12591874441
12591881766
12591890433
12591899588
12591905936
12591916556
12591924307
12591932242
12591941336
12591949270
12591958120
12591966665
12591973684
12591982718
12591990347
12592001211
12592008474
12592020254
12592027517
12592039236
12592046865
12592055837
12592062979
12592071890
12592081228
12592091299
12592098623
12592109365
12592116689
12592126516
12592134817
12592141348
12592150381
12592157827
12592167287
12592174612
12592181875
12592188528
12592198476
12592203847
12592213979
12592218862
12592230581
12592234792
12592245717
12592251943
12592261586
12592268667
12592276845
12592285390
12592294423
12592300771
12592309682
12592318288
12592326894
12592333486
12592340139
12592349477
12592356374
12592366139
12592373586
12592381093
12592388844
12592398427
12592402760
12592413258
12592425282
12592433461
12592444142
12592452138
12592459584
12592468312
12592474538
12592483754
12592492604
12592502370
12592509511
12592519032
12592525502
12592534413
12592540761
12592549794
12592557484
12592564747
12592574391
12592581654
12592589955
12592597828
12592606373
12592613636
12592620167
12592630360
12592636708
12592646473
12592653248
12592662342
12592668629
12592676869
12592687855
12592696034
12592703114
12592710987
12592719349
12592727467
12592735889
12592742970
12592752003
12592757618
12592767017
12592774769
12592783985
12592789600
12592799549
12592807239
12592814380
12592821277
12592831775
12592842457
12592852710
12592857166
12592871021
12592878833
12592887012
12592897022
12592904163
12592912525
12592919727
12592927906
12592935779
12592943103
12592953296
12592962024
12592970569
12592976489
12592985828
12592993457
12593000964
12593010059
12593017322
12593021838
12593032703
12593039355
12593046802
12593051318
12593057239
12593063525
12593069812
12593074512
12593079883
12593085681
12593091052
12593096911
12593101977
12593109241
12593115039
12593120166
12593126941
12593132007
12593137439
12593143054
12593147571
12593154101
12593158618
12593164660
12593171252
12593177661
12593182055
12593188098
12593193957
12593198535
12593204821
12593208972
12593216357
12593223193
12593227771
12593234362
12593239428
12593244311
12593250537
12593255053
12593261828
12593267809
12593272631
12593277941
12593285265
12593291125
12593296435
12593302660
12593308825
12593313952
12593319811
12593324084
12593331713
12593337023
12593344714
12593350573
12593354723
12593360522
12593365893
12593371630
12593376757
12593382433
12593386950
12593392138
12593397204
12593401171
12593409044
12593415331
12593419665
12593425524
12593429552
12593435900
12593438524
12593445727
12593453661
12593459032
12593463366
12593470629
12593475023
12593480577
12593485094
12593492357
12593498095
12593505968
12593510973
12593517321
12593523973
12593530321
12593535509
12593542467
12593550463
12593556749
12593561571
12593567674
12593573717
12593577196
12593583055
12593587206
12593593675
12593598070
12593603441
12593608629
12593614366
12593619188
12593623644
12593626024
12593633836
12593640306
12593645128
12593649522
12593658067
12593663988
12593669481
12593674913
12593680711
12593686449
12593690965
12593694993
12593701890
12593707261
12593712327
12593717637
12593723009
12593727769
12593734422
12593738206
12593744249
12593749498
12593755113
12593760789
12593765977
12593769639
12593776170
12593779771
12593788316
12593792588
12593798936
12593803514
12593809312
12593814256
12593820359
12593826646
12593833055
12593838059
12593842942
12593850083
12593856736
12593861314
12593867967
12593874070
12593879197
12593884446
12593888108
12593896348
12593903245
12593910630
12593919968
12593929368
12593935349
12593942368
12593950730
12593957383
12593964890
12593971665
12593981309
12593990403
12593994309
12594005356
12594012925
12594019944
12594025742
12594033555
12594042893
12594050400
12594056809
12594066391
12594073166
12594082322
12594090622
12594097824
12594106919
12594116135
12594123093
12594130905
12594139023
12594146225
12594158188
12594164902
12594175095
12594181626
12594189499
12594196457
12594206223
12594213974
12594223007
12594229904
12594239853
12594250168
12594258652
12594265610
12594273849
12594280075
12594288315
12594297348
12594303940
12594313339
12594321884
12594328110
12594336288
12594344589
12594351486
12594360275
12594366684
12594374130
12594383224
12594389511
12594395492
12594405319
12594412155
12594419235
12594425949
12594433883
12594440963
12594449935
12594456405
12594465377
12594473495
12594481551
12594488448
12594497054
12594503707
12594512374
12594519515
12594527938
12594536117
12594541549
12594550704
12594556380
12594566390
12594573592
12594580855
12594589706
12594597213
12594601546
12594612655
12594619246
12594625472
12594634200
12594642196
12594650313
12594656051
12594664840
12594673446
12594680159
12594687972
12594694930
12594703292
12594710311
12594717513
12594724776
12594732100
12594741377
12594746321
12594756697
12594764449
12594771773
12594779585
12594786299
12594792403
12594802046
12594808333
12594815657
12594824934
12594833113
12594839705
12594847090
12594854842
12594862654
12594870344
12594876753
12594885725
12594893049
12594901716
12594908491
12594916304
12594924177
12594931074
12594937666
12594946638
12594960371
12595135358
12595146223
12595157575
12595161848
12595168867
12595181440
12595188215
12595194379
12595201398
12595209821
12595218244
12595226423
12595234235
12595236432
12595247907
12595252118
12595263471
12595269269
12595279096
12595285627
12595294110
12595300580
12595304670
12595315168
12595321454
12595326215
12595335736
12595343183
12595350568
12595354230
12595364667
12595370587
12595377179
12595383344
12595389264
12595396710
12595405804
12595414533
12595419843
12595429120
12595435223
12595443585
12595450360
12595459332
12595466717
12595475751
12595482831
12595490338
12595497601
12595502362
12595511883
12595518902
12595528241
12595536603
12595544842
12595553814
12595562115
12595569256
12595574749
12595582623
12595589703
12595596661
12595605145
12595615704
12595625347
12595633221
12595642498
12595647625
12595661175
12595665020
12595677166
12595688519
12595696575
12595703655
12595711773
12595718853
12595727154
12595734722
12595740398
12595752117
12595758037
12595767925
12595778118
12595785747
12595791546
12595797344
12595805157
12595809063
12595819439
12595824993
12595835979
12595841472
12595849346
12595856487
12595863872
12595871807
12595878460
12595885051
12595890239
12595903362
12595908245
12595917034
12595926738
12595932537
12595940959
12595945171
12595955608
12595963420
12595973552
12595982341
12595988811
12595995036
12596000774
12596008952
12596013042
12596024211
12596031902
12596040324
12596046916
12596054301
12596061137
12596067241
12596074809
12596079631
12596089946
12596097575
12596108867
12596116191
12596124064
12596130717
12596135112
12596145244
12596151530
12596157023
12596166606
12596175639
12596182109
12596189006
12596196818
12596201274
12596211894
12596218119
12596232096
12596238993
12596247355
12596256266
12596263590
12596271159
12596279948
12596285502
12596293437
12596302226
12596309306
12596317606
12596327067
12596334391
12596341349
12596345927
12596356119
12596362101
12596369669
12596376261
12596384684
12596392985
12596399515
12596407145
12596411112
12596423868
12596431803
12596441752
12596450296
12596463114
12596475382
12596481058
12596492655
12596502542
12596511698
12596517374
12596530069
12596542398
12596553201
12596559122
12596575418
12596581583
12596594217
12596602579
12596617838
12596624918
12596638406
12596648355
12596662759
12596673257
12596684732
12596698282
12596708536
12596719095
12596729043
12596739602
12596750467
12596760537
12596773477
12596784036
12596791604
12596804788
12596815347
12596822183
12596835488
12596841043
12596854104
12596863137
12596875100
12596885049
12596893411
12596907204
12596916543
12596925881
12596934792
12596944192
12596954079
12596964272
12596973794
12596987465
12596995827
12597005959
12597014321
12597022622
12597034646
12597043374
12597052468
12597062600
12597075173
12597081032
12597095986
12597101906
12597115151
12597123818
12597133461
12597145973
12597155678
12597166420
12597174965
12597185036
12597194008
12597206886
12597215675
12597226540
12597235878
12597250526
12597259987
12597268776
12597281654
12597287819
12597298683
12597307655
12597320289
12597329628
12597340736
12597351295
12597364174
12597372902
12597384193
12597395545
12597405311
12597419410
12597431861
12597444007
12597452796
12597464210
12597474464
12597482948
12597491004
12597501380
12597513831
12597527747
12597538123
12597549598
12597559852
12597570777
12597580848
12597593299
12597607215
12597621070
12597633277
12597643164
12597652137
12597667395
12597673987
12597686805
12597701331
12597714453
12597728491
12597736121
12597750586
12597764624
12597774512
12597786719
12597793005
12597803931
12597808325
12597818396
12597826941
12597834021
12597840002
12597850134
12597858130
12597865393
12597872839
12597881811
12597888647
12597895483
12597903906
12597911047
12597919104
12597926550
12597934240
12597943945
12597951635
12597960119
12597968481
12597978003
12597984533
12597994299
12597999914
12598009863
12598016516
12598026342
12598032629
12598041723
12598049169
12598058264
12598064306
12598073461
12598079137
12598088842
12598094946
12598104101
12598108984
12598113744
12598117590
12598124975
12598130712
12598137853
12598143224
12598148107
12598154455
12598158849
12598166784
12598169225
12598176488
12598190465
12598197790
12598207250
12598215856
12598222814
12598229039
12598233617
12598239721
12598244237
12598248937
12598253759
12598259191
12598263768
12598267797
12598275243
12598280309
12598284398
12598290258
12598294408
12598298802
12598304662
12598310704
12598315892
12598321324
12598327611
12598332982
12598337560
12598344274
12598348607
12598355382
12598361302
12598366307
12598370274
12598375279
12598381017
12598385350
12598391454
12598397496
12598402196
12598408360
12598415074
12598421300
12598426366
12598431615
12598435765
12598442357
12598446263
12598451329
12598457616
12598462742
12598467381
12598472569
12598476475
12598482762
12598486790
12598491612
12598495396
12598501195
12598505223
12598509861
12598517308
12598522313
12598524876
12598531895
12598538426
12598543675
12598549412
12598555394
12598561985
12598567051
12598571629
12598577427
12598582310
12598588963
12598594944
12598600926
12598606663
12598613560
12598618260
12598626133
12598630894
12598636692
12598641087
12598647923
12598653477
12598660191
12598665196
12598671116
12598676853
12598682102
12598686497
12598692356
12598698765
12598704380
12598710545
12598716343
12598720676
12598726108
12598732029
12598735996
12598744846
12598749851
12598756321
12598760410
12598767551
12598772312
12598779331
12598784946
12598792515
12598798801
12598803989
12598809971
12598815647
12598819675
12598825229
12598830112
12598836094
12598841037
12598847324
12598853366
12598858066
12598864048
12598870151
12598876316
12598881504
12598887851
12598892551
12598899021
12598904331
12598913486
12598920444
12598930026
12598937534
12598946994
12598951022
12598963596
12598969821
12598979648
12598987521
12598995761
12599002841
12599012302
12599019687
12599028293
12599035068
12599043674
12599052035
12599058200
12599066684
12599075717
12599082675
12599091525
12599098422
12599107577
12599114596
12599124118
12599131137
12599140353
12599148837
12599157260
12599164035
12599172396
12599179354
12599188693
12599197360
12599205722
12599214816
12599223055
12599230380
12599238680
12599246615
12599256014
12599264498
12599270785
12599280428
12599288851
12599297701
12599304232
12599312044
12599320406
12599329562
12599337923
12599345553
12599351656
12599360506
12599368807
12599378329
12599384920
12599394564
12599401217
12599410799
12599420137
12599428255
12599437471
12599446321
12599453890
12599463350
12599472628
12599480867
12599490755
12599499056
12599508089
12599516207
12599522127
12599532930
12599538606
12599546846
12599552644
12599561372
12599567110
12599576448
12599582674
12599590852
12599599458
12599607271
12599613435
12599622469
12599629243
12599639375
12599647920
12599657564
12599663789
12599673311
12599681062
12599689485
12599697725
12599711030
12599724397
12599734102
12599744722
12599755586
12599764680
12599774202
12599785127
12599796968
12599810090
12599818696
12599826631
12599834565
12599844209
12599852631
12599861848
12599867585
12599876740
12599885529
12599893647
12599901032
12599907929
12599917695
12599924653
12599933076
12599941682
12599949250
12599958405
12599967255
12599974579
12599983735
12599990510
12600000397
12600006928
12600017853
12600025300
12600038727
12600045197
12600052948
12600061188
12600071686
12600075959
12600086151
12600092804
12600101349
12600107453
12600115509
12600122711
12600132599
12600139801
12600147614
12600153778
12600161224
12600171356
12600178558
12600188019
12600194733
12600203888
12600209930
12600220306
12600227508
12600237762
12600248138
12600256195
12600260834
12600272430
12600280060
12600289886
12600296844
12600306671
12600314422
12600323028
12600332489
12600339141
12600348297
12600355377
12600362884
12600368621
12600373748
12600376800
12600387298
12600390045
12600397247
12600403961
12600407928
12600413604
12600418487
12600426238
12600432952
12600439361
12600445098
12600450042
12600456268
12600463043
12600468658
12600474029
12600480804
12600486846
12600491241
12600498321
12600503143
12600510223
12600515105
12600522674
12600530181
12600535003
12600540496
12600547454
12600552154
12600559173
12600565032
12600572478
12600577605
12600584075
12600590301
12600594817
12600600127
12600606170
12600610503
12600616729
12600623259
12600628692
12600634246
12600638518
12600643889
12600650054
12600654692
12600661040
12600666899
12600672637
12600678069
12600684172
12600688994
12600695037
12600701079
12600707244
12600711272
12600718047
12600724150
12600730315
12600735991
12600741789
12600746184
12600752898
12600758574
12600765410
12600771697
12600776152
12600782378
12600787993
12600792204
12600799162
12600803862
12600810210
12600815214
12600821623
12600826079
12600832609
12600838042
12600843413
12600850249
12600857084
12600860014
12600868864
12600873808
12600878874
12600883818
12600890593
12600893767
12600900969
12600905302
12600912077
12600918791
12600924345
12600927275
12600936125
12600942472
12600949491
12600952482
12600960966
12600963835
12600972746
12600975798
12600984342
12600990141
12600995207
12600999601
12601006132
12601010893
12601017729
12601022489
12601029325
12601035490
12601041166
12601045744
12601052702
12601058805
12601064237
12601070097
12601076200
12601081205
12601088041
12601095731
12601101102
12601107023
12601112577
12601118680
12601125150
12601132352
12601138212
12601145414
12601151823
12601158414
12601165189
12601171110
12601176420
12601183317
12601187528
12601194303
12601201078
12601206876
12601212430
12601218168
12601222806
12601231351
12601239103
12601245450
12601255155
12601263700
12601270475
12601279203
12601286954
12601295560
12601305203
12601311612
12601318814
12601328092
12601336881
12601343228
12601352567
12601361234
12601366910
12601376309
12601385403
12601391690
12601399808
12601409390
12601415250
12601425076
12601432522
12601442105
12601449307
12601459195
12601466397
12601473660
12601482327
12601497036
12601504178
12601512722
12601521878
12601530423
12601537686
12601546414
12601555508
12601564053
12601571743
12601580288
12601586758
12601595791
12601603115
12601611660
12601621121
12601628567
12601638699
12601645352
12601653774
12601662441
12601670986
12601680080
12601688442
12601695095
12601702969
12601712673
12601721523
12601728054
12601737087
12601744350
12601752285
12601761745
12601771694
12601778164
12601787380
12601795681
12601802089
12601811550
12601817104
12601826686
12601833217
12601842556
12601850429
12601859767
12601865505
12601876003
12601883998
12601894069
12601902065
12601911769
12601919643
12601927028
12601936488
12601944057
12601953639
12601961391
12601971400
12601979579
12601987331
12601996791
12602004481
12602011806
12602020900
12602028285
12602036342
12602043544
12602053187
12602060695
12602067958
12602076320
12602086207
12602093715
12602100306
12602110316
12602117457
12602125819
12602132228
12602142970
