14277828927
14277834969
14277840584
14277846566
14277852730
14277858162
14277862923
14277869027
14277876168
14277881295
14277887337
14277893685
14277899178
14277904793
14277911385
14277918465
14277924569
14277930367
14277936531
14277942208
14277947640
14277953438
14277958016
14277966316
14277973641
14277979927
14277985909
14277992745
14277999153
14278006416
14278012337
14278018196
14278024910
14278033638
14278040474
14278049385
14278056587
14278061775
14278072151
14278079231
14278085579
14278093697
14278103279
14278110786
14278116463
14278122322
14278129097
14278135200
14278139595
14278147896
14278154793
14278160530
14278167366
14278173530
14278179023
14278186775
14278193916
14278201606
14278206794
14278214363
14278221809
14278228889
14278235176
14278242134
14278247871
14278253120
14278260444
14278265510
14278272407
14278277778
14278285041
14278289741
14278294685
14278299507
14278302802
14278308112
14278313423
14278317939
14278321601
14278327216
14278332893
14278337165
14278341438
14278345771
14278350105
14278358649
14278363349
14278367805
14278372077
14278377082
14278381110
14278386298
14278389777
14278394965
14278398322
14278404426
14278410102
14278415900
14278420783
14278425056
14278431159
14278435431
14278441657
14278445991
14278450202
14278455024
14278459662
14278466071
14278470954
14278475715
14278482123
14278487250
14278491706
14278496344
14278501593
14278506659
14278510443
14278515998
14278520514
14278524176
14278530524
14278534491
14278538764
14278544074
14278549628
14278554145
14278559760
14278564765
14278568793
14278573737
14278578742
14278582770
14278588385
14278592597
14278597663
14278602118
14278606329
14278611884
14278615790
14278621466
14278626227
14278629645
14278634711
14278640021
14278644598
14278648871
14278653632
14278659552
14278665167
14278669806
14278675604
14278679633
14278685736
14278689398
14278695929
14278701117
14278705267
14278710577
14278720038
14278724737
14278729437
14278733526
14278737555
14278742682
14278746466
14278750677
14278755377
14278759833
14278764532
14278768438
14278772345
14278777227
14278781195
14278785772
14278789679
14278793280
14278798040
14278802740
14278807745
14278812872
14278815802
14278821417
14278826605
14278832708
14278837652
14278842230
14278848455
14278852667
14278856573
14278859625
14278864385
14278867498
14278873907
14278878607
14278882391
14278886236
14278890081
14278894476
14278898382
14278902960
14278907659
14278914068
14278919500
14278922674
14278927862
14278931951
14278936224
14278940008
14278946539
14278952215
14278958440
14278966314
14278972356
14278979009
14278985357
14278991827
14278997747
14279004461
14279012701
14279020208
14279026555
14279033819
14279040349
14279047002
14279054021
14279060430
14279067754
14279074956
14279081792
14279088750
14279096685
14279100774
14279109441
14279117742
14279124578
14279130925
14279137578
14279141179
14279146794
14279152654
14279157659
14279163213
14279169560
14279173589
14279179143
14279183904
14279189580
14279196111
14279200993
14279205815
14279214299
14279219121
14279223760
14279230107
14279236394
14279240300
14279245854
14279252080
14279256963
14279260625
14279265446
14279269902
14279275151
14279281438
14279286504
14279291142
14279297551
14279301945
14279306340
14279311162
14279316716
14279321232
14279325993
14279331914
14279337040
14279340581
14279345097
14279349003
14279354069
14279358037
14279363286
14279367924
14279373173
14279378056
14279381962
14279387639
14279392521
14279397221
14279401371
14279406681
14279412846
14279416752
14279424321
14279427555
14279433354
14279437870
14279443913
14279448490
14279452458
14279456913
14279462712
14279466984
14279472477
14279476567
14279482426
14279486820
14279492436
14279495976
14279501347
14279506413
14279511784
14279515263
14279522038
14279527592
14279532902
14279539799
14279544437
14279549809
14279554447
14279558842
14279564213
14279570805
14279576481
14279581425
14279586430
14279591679
14279596500
14279601078
14279606144
14279613163
14279618412
14279622806
14279628422
14279634464
14279638981
14279645328
14279650089
14279655033
14279660404
14279666935
14279671512
14279676151
14279681644
14279686954
14279692386
14279699527
14279707401
14279714115
14279719303
14279725406
14279730838
14279736515
14279742130
14279747806
14279755374
14279760929
14279766544
14279771793
14279776920
14279783389
14279795413
14279801761
14279806888
14279812747
14279817874
14279822147
14279827396
14279832401
14279837039
14279844302
14279848880
14279853702
14279859012
14279864322
14279869083
14279874698
14279878970
14279883792
14279888797
14279893130
14279899356
14279903873
14279910159
14279917117
14279923892
14279931888
14279938907
14279945682
14279952701
14279960269
14279968142
14279972110
14279980044
14279989261
14279998294
14280004336
14280010501
14280019107
14280025882
14280032656
14280039126
14280048831
14280056765
14280063967
14280071414
14280079165
14280085818
14280093142
14280100710
14280107363
14280112978
14280118716
14280121218
14280128664
14280132632
14280139895
14280145022
14280151553
14280156130
14280163088
14280166079
14280172304
14280176516
14280182070
14280187990
14280192446
14280197451
14280202700
14280209048
14280214236
14280219301
14280223574
14280229922
14280234011
14280239992
14280246889
14280254030
14280259951
14280264956
14280269716
14280275271
14280279970
14280284975
14280292727
14280296694
14280302065
14280307436
14280312197
14280317873
14280322329
14280329958
14280335146
14280341616
14280346743
14280352846
14280358888
14280364809
14280369264
14280375063
14280382692
14280387453
14280391603
14280396913
14280402101
14280409975
14280415529
14280420412
14280426088
14280431276
14280435365
14280440065
14280445009
14280449709
14280453371
14280460146
14280465822
14280471803
14280475893
14280480775
14280487062
14280490907
14280497011
14280500795
14280507265
14280511720
14280517824
14280522157
14280529054
14280532533
14280538148
14280542604
14280548463
14280557130
14280561219
14280566591
14280572328
14280578065
14280582093
14280587526
14280592836
14280600465
14280604310
14280609681
14280615358
14280620240
14280625428
14280630799
14280636476
14280640626
14280646241
14280651795
14280657105
14280662477
14280666688
14280672120
14280678346
14280681703
14280687074
14280692811
14280697816
14280702577
14280708375
14280713380
14280719300
14280724244
14280729981
14280735902
14280742616
14280748536
14280754273
14280759400
14280766114
14280772523
14280776795
14280784547
14280790162
14280795777
14280801148
14280805970
14280812867
14280818970
14280826050
14280830994
14280837159
14280843201
14280849976
14280856141
14280861451
14280866517
14280873963
14280881287
14280886658
14280891785
14280900330
14280908692
14280915833
14280924500
14280931519
14280940186
14280948548
14280957031
14280964295
14280971314
14280977844
14280985108
14280991821
14280999939
14281007080
14281012146
14281021301
14281027100
14281034058
14281040894
14281048584
14281056580
14281065002
14281071289
14281079163
14281084106
14281093262
14281099914
14281107239
14281116455
14281122253
14281131164
14281138061
14281143676
14281149292
14281154175
14281159118
14281165161
14281170837
14281176391
14281181274
14281187011
14281191955
14281197815
14281202270
14281206726
14281212402
14281218505
14281223999
14281229614
14281234802
14281238464
14281244201
14281247009
14281254394
14281261474
14281265380
14281269958
14281277099
14281281982
14281287536
14281292419
14281296813
14281304382
14281309325
14281316345
14281320678
14281326232
14281331115
14281336120
14281341674
14281347778
14281352233
14281357421
14281362121
14281368041
14281374084
14281378173
14281382323
14281388061
14281393859
14281400634
14281405089
14281411803
14281416015
14281420226
14281427184
14281431640
14281437499
14281442870
14281448424
14281453856
14281459288
14281465453
14281471129
14281474181
14281481261
14281487365
14281499083
14281507384
14281516417
14281520812
14281532592
14281543273
14281552428
14281563109
14281571532
14281581481
14281593016
14281601378
14281609496
14281617857
14281625121
14281632811
14281640257
14281648436
14281656493
14281663695
14281669798
14281678526
14281686644
14281694029
14281702818
14281711546
14281719114
14281726805
14281735533
14281742918
14281750364
14281758604
14281767210
14281773802
14281783201
14281792418
14281798643
14281807432
14281813658
14281824949
14281832701
14281840330
14281844236
14281853758
14281862974
14281870847
14281878233
14281885801
14281894285
14281901121
14281908933
14281918089
14281925657
14281934446
14281941892
14281947813
14281958005
14281963865
14281973997
14281981931
14281989622
14281998899
14282006528
14282012998
14282022580
14282028501
14282038144
14282043943
14282053403
14282060727
14282069761
14282075559
14282084592
14282093503
14282102353
14282110044
14282116147
14282124875
14282131650
14282139585
14282150754
14282160031
14282169492
14282180722
14282188901
14282199521
14282209775
14282220822
14282232358
14282241757
14282251096
14282260434
14282269589
14282277768
14282288388
14282297299
14282307431
14282316586
14282328671
14282339108
14282346798
14282355893
14282363095
14282370968
14282381710
14282387997
14282398068
14282404660
14282413937
14282421871
14282428829
14282436642
14282443661
14282452999
14282459225
14282467282
14282473690
14282480587
14282489193
14282497372
14282504879
14282513302
14282519222
14282527279
14282532955
14282542721
14282550716
14282558102
14282564144
14282575436
14282582455
14282589840
14282597225
14282604610
14282611263
14282622982
14282630245
14282637752
14282644039
14282653621
14282660946
14282668331
14282675716
14282683040
14282690609
14282699703
14282706966
14282713985
14282722774
14282729610
14282737728
14282746334
14282754634
14282761409
14282769100
14282777706
14282783748
14282793208
14282802425
14282810176
14282815730
14282824214
14282833186
14282841975
14282848018
14282853572
14282859492
14282864314
14282869563
14282874629
14282878596
14282884578
14282888728
14282894282
14282898738
14282904170
14282908748
14282913997
14282917720
14282923518
14282928584
14282932673
14282939265
14282943416
14282947810
14282952876
14282958003
14282963740
14282967891
14282972651
14282977046
14282982722
14282988765
14282994929
14282999446
14283005854
14283011286
14283016719
14283021113
14283027522
14283032038
14283039057
14283042964
14283049067
14283054621
14283059626
14283064692
14283069575
14283074030
14283078974
14283083796
14283088801
14283094355
14283099299
14283103754
14283109187
14283114985
14283119929
14283126215
14283131098
14283136103
14283140253
14283145014
14283149653
14283154291
14283159724
14283163508
14283169306
14283173334
14283179926
14283185541
14283189570
14283195490
14283201349
14283205744
14283210505
14283215082
14283219599
14283224299
14283229120
14283234064
14283240412
14283245783
14283251215
14283257135
14283262629
14283270929
14283277765
14283286249
14283294733
14283300165
14283307611
14283311518
14283321222
14283327387
14283334345
14283342890
14283348688
14283358026
14283365534
14283371576
14283378595
14283387018
14283395258
14283401117
14283410150
14283415338
14283423395
14283430292
14283435846
14283441644
14283446710
14283451715
14283457513
14283462518
14283468072
14283472650
14283478937
14283484430
14283488641
14283494806
14283499139
14283507074
14283512994
14283520257
14283527215
14283532831
14283540338
14283546991
14283554925
14283561883
14283567559
14283576165
14283581231
14283589776
14283594476
14283600579
14283605340
14283610223
14283615472
14283621209
14283625909
14283631402
14283636468
14283642877
14283648370
14283654595
14283658868
14283663140
14283669244
14283674615
14283681878
14283686883
14283694573
14283698296
14283704766
14283710503
14283716363
14283721246
14283726434
14283731194
14283737359
14283744805
14283751092
14283756768
14283762932
14283769280
14283774285
14283779412
14283786675
14283792290
14283797539
14283803826
14283809563
14283815178
14283819390
14283824029
14283831231
14283834893
14283843682
14283848443
14283855706
14283860283
14283866021
14283872063
14283877800
14283884453
14283891411
14283896660
14283901665
14283908196
14283913994
14283919976
14283924858
14283931328
14283937187
14283943291
14283947930
14283952446
14283960442
14283964836
14283971611
14283977409
14283983452
14283990349
14283996147
14284001701
14284008354
14284012993
14284019341
14284024651
14284030449
14284036980
14284042534
14284049797
14284056023
14284060905
14284066887
14284072563
14284076897
14284085747
14284092583
14284097832
14284105034
14284109733
14284114738
14284122856
14284128410
14284135673
14284142509
14284151970
14284156791
14284163383
14284169914
14284173271
14284181449
14284187248
14284194023
14284198478
14284203422
14284212272
14284229301
14284233207
14284240409
14284245414
14284250907
14284257011
14284262504
14284267814
14284273307
14284278312
14284283622
14284287162
14284294181
14284301688
14284309745
14284316947
14284322501
14284328178
14284336234
14284343314
14284351249
14284360099
14284365592
14284373710
14284379142
14284387565
14284391898
14284400931
14284407218
14284413505
14284421622
14284429496
14284435599
14284443412
14284450980
14284459342
14284468619
14284474540
14284481070
14284489981
14284495658
14284503775
14284510855
14284515311
14284521231
14284528861
14284532279
14284538504
14284543509
14284548941
14284554923
14284560477
14284566824
14284571402
14284578299
14284581900
14284589774
14284594107
14284599539
14284606497
14284612051
14284616690
14284622244
14284628165
14284633108
14284638480
14284642996
14284649222
14284655386
14284660269
14284664664
14284670523
14284674429
14284681265
14284687247
14284693045
14284697439
14284703421
14284708975
14284713553
14284721304
14284727530
14284734793
14284740469
14284746695
14284753408
14284758780
14284764517
14284771597
14284777090
14284782949
14284788076
14284792410
14284797476
14284802114
14284807608
14284812002
14284816946
14284821218
14284825979
14284831961
14284836111
14284843069
14284849233
14284855032
14284859792
14284865957
14284870718
14284876638
14284880727
14284886953
14284892568
14284896597
14284902151
14284906118
14284912038
14284916189
14284922475
14284927908
14284932851
14284938833
14284943777
14284948171
14284955129
14284960622
14284965932
14284971059
14284977102
14284983632
14284988820
14284995412
14284999685
14285006276
14285012197
14285019460
14285025686
14285031423
14285036062
14285041494
14285046010
14285052480
14285059743
14285064443
14285070485
14285076345
14285082570
14285088124
14285092824
14285098622
14285104299
14285109731
14285114675
14285120351
14285126332
14285131948
14285137868
14285143056
14285149465
14285156056
14285159841
14285166127
14285172048
14285177113
14285182057
14285188649
14285193044
14285199269
14285205190
14285211049
14285216115
14285220448
14285225575
14285233937
14285241444
14285245900
14285251515
14285257558
14285264943
14285272328
14285281056
14285289113
14285300221
14285307545
14285319386
14285325428
14285334523
14285343556
14285352223
14285360035
14285367726
14285375233
14285385182
14285393666
14285402455
14285411000
14285420338
14285428028
14285434742
14285443653
14285450367
14285457020
14285465626
14285473255
14285480152
14285486805
14285491993
14285497791
14285504505
14285509144
14285515858
14285520618
14285527943
14285532337
14285539722
14285543873
14285550892
14285556568
14285562610
14285566944
14285573047
14285578968
14285585010
14285591053
14285597645
14285604236
14285611072
14285616688
14285622608
14285630848
14285636951
14285641712
14285648243
14285654712
14285658802
14285664478
14285670887
14285677234
14285683643
14285689380
14285695545
14285702442
14285706653
14285712512
14285718860
14285724842
14285730335
14285733814
14285741138
14285746448
14285752368
14285758472
14285764636
14285770740
14285777271
14285783557
14285789783
14285795093
14285800769
14285807666
14285813770
14285818042
14285825915
14285832202
14285838367
14285845142
14285851306
14285856677
14285862842
14285868274
14285875781
14285880603
14285888110
14285892993
14285900866
14285906238
14285911975
14285919177
14285925952
14285932116
14285941455
14285948474
14285954882
14285958789
14285967944
14285973071
14285980578
14285985949
14285993884
14285998889
14286006152
14286010668
14286017504
14286022387
14286027270
14286034167
14286039233
14286046374
14286051440
14286056506
14286062853
14286068041
14286073779
14286079516
14286085864
14286090929
14286096178
14286101733
14286107592
14286113390
14286119372
14286125292
14286128344
14286135790
14286141100
14286149584
14286155749
14286161120
14286167895
14286175036
14286179308
14286186205
14286191576
14286196764
14286203478
14286207689
14286214403
14286218248
14286225084
14286230639
14286236254
14286241076
14286247057
14286252672
14286258104
14286264391
14286269396
14286274034
14286280382
14286286547
14286292467
14286297106
14286303453
14286309557
14286314745
14286321642
14286326769
14286333238
14286338548
14286343797
14286348375
14286355882
14286363085
14286369371
14286375292
14286383165
14286391405
14286399278
14286407152
14286414964
14286424791
14286431749
14286439867
14286447252
14286454149
14286462999
14286468736
14286475877
14286484971
14286491990
14286499742
14286508836
14286514756
14286522752
14286529954
14286539781
14286547776
14286556565
14286564317
14286571458
14286576951
14286581285
14286590623
14286596238
14286603135
14286612962
14286619859
14286626390
14286631577
14286637376
14286643907
14286650315
14286655991
14286660691
14286665879
14286670823
14286675889
14286682969
14286687974
14286693833
14286699204
14286704514
14286709458
14286715867
14286720017
14286726365
14286731065
14286735398
14286740403
14286745042
14286750901
14286756699
14286761399
14286770310
14286780442
14286785203
14286790696
14286796982
14286801926
14286807786
14286813096
14286817673
14286822617
14286827744
14286833970
14286840683
14286844284
14286850510
14286855332
14286862534
14286867356
14286874192
14286879624
14286885483
14286892197
14286898239
14286902817
14286908554
14286912583
14286920761
14286927170
14286933029
14286936508
14286944199
14286949387
14286955368
14286960373
14286966171
14286971970
14286978134
14286985031
14286989731
14286995163
14287001022
14287008041
14287014572
14287021225
14287026352
14287032089
14287037399
14287043991
14287051742
14287058700
14287064010
14287071457
14287076278
14287082931
14287088302
14287094345
14287101608
14287106613
14287112899
14287120163
14287125717
14287130905
14287138473
14287142807
14287148910
14287156051
14287161056
14287165878
14287174667
14287180465
14287186996
14287193222
14287200485
14287208847
14287214157
14287223373
14287228927
14287236312
14287242294
14287248092
14287252364
14287259811
14287263839
14287271407
14287277450
14287283492
14287288985
14287294723
14287300094
14287305953
14287310775
14287316695
14287323348
14287327071
14287333541
14287340011
14287344894
14287350204
14287356673
14287362044
14287367232
14287373092
14287380416
14287386031
14287391036
14287396529
14287404342
14287412398
14287421492
14287426680
14287433333
14287437423
14287443587
14287447676
14287453109
14287459578
14287466780
14287474837
14287483626
14287490767
14287497725
14287504256
14287512923
14287520125
14287528975
14287537215
14287543440
14287552840
14287558821
14287567000
14287572859
14287581892
14287588972
14287598433
14287604964
14287612898
14287619734
14287627791
14287634260
14287643965
14287651961
14287659163
14287665877
14287671614
14287675093
14287681990
14287685713
14287694380
14287700361
14287705916
14287712202
14287718733
14287722517
14287729597
14287735395
14287740339
14287745344
14287752363
14287756575
14287764082
14287768904
14287774519
14287779768
14287785261
14287791609
14287798078
14287804487
14287811323
14287815351
14287821028
14287828596
14287832685
14287843244
14287848310
14287853437
14287861250
14287867109
14287873518
14287878706
14287887190
14287892622
14287898786
14287904646
14287910322
14287915693
14287920698
14287924848
14287930768
14287937604
14287943464
14287948713
14287955244
14287961591
14287967267
14287972211
14287978193
14287982892
14287988325
14287993512
14287999128
14288004926
14288011823
14288015180
14288023298
14288028241
14288034406
14288039594
14288045942
14288051557
14288057416
14288062787
14288067731
14288074689
14288080365
14288086347
14288092206
14288097638
14288102521
14288109784
14288114606
14288121442
14288126996
14288134259
14288138776
14288144696
14288150067
14288156049
14288162335
14288166974
14288175031
14288179547
14288185651
14288191449
14288198529
14288204388
14288208905
14288213727
14288221051
14288226666
14288233441
14288238141
14288242657
14288251019
14288255597
14288263043
14288268048
14288273785
14288282330
14288286786
14288293500
14288300152
14288305340
14288312237
14288315899
14288324994
14288330059
14288336834
14288343182
14288349224
14288355450
14288362225
14288368267
14288373455
14288380474
14288387432
14288394329
14288400555
14288405010
14288412640
14288417889
14288425274
14288430950
14288437847
14288443768
14288451031
14288459576
14288465862
14288470379
14288480511
14288486492
14288492718
14288501873
14288506695
14288512859
14288519756
14288525433
14288530376
14288538006
14288542095
14288548076
14288553753
14288559002
14288564983
14288570293
14288575542
14288583233
14288590557
14288598125
14288606304
14288615459
14288621441
14288629314
14288637493
14288645427
14288651836
14288662334
14288667583
14288677471
14288682659
14288692485
14288698223
14288706157
14288712749
14288722698
14288728679
14288738811
14288745159
14288755351
14288761699
14288769511
14288776592
14288783977
14288789958
14288795695
14288798442
14288807292
14288812297
14288818950
14288823955
14288830058
14288836894
14288842448
14288848186
14288853313
14288857402
14288863933
14288868815
14288875529
14288883281
14288887797
14288892436
14288899821
14288906047
14288909831
14288916728
14288922953
14288928264
14288935221
14288940165
14288945597
14288951701
14288956706
14288962382
14288968363
14288975016
14288980632
14288986491
14288992106
14288997172
14289002055
14289009440
14289013957
14289019633
14289027323
14289031718
14289039042
14289043253
14289050395
14289055216
14289060954
14289065226
14289071452
14289077433
14289083048
14289088908
14289095621
14289101115
14289104838
14289111063
14289117594
14289125956
14289131388
14289138529
14289144816
14289151713
14289157999
14289164469
14289168863
14289175577
14289181742
14289187845
14289193583
14289199747
14289205362
14289210733
14289215067
14289220987
14289228861
14289234720
14289240091
14289246073
14289251383
14289257364
14289261820
14289266031
14289272745
14289279215
14289284647
14289290018
14289295206
14289301004
14289306192
14289310709
14289317301
14289324075
14289329752
14289334818
14289339761
14289346658
14289352518
14289357584
14289361734
14289369424
14289376260
14289380960
14289386575
14289392496
14289396646
14289402994
14289408243
14289414346
14289421060
14289426675
14289432962
14289440225
14289445230
14289451150
14289456277
14289460672
14289469583
14289476480
14289481119
14289485757
14289492959
14289498575
14289503885
14289509683
14289513894
14289520913
14289527017
14289532754
14289537759
14289542581
14289549844
14289555459
14289561868
14289567056
14289572976
14289579507
14289584390
14289591897
14289597451
14289602761
14289608560
14289615090
14289619424
14289625344
14289630654
14289637002
14289643472
14289647927
14289652566
14289659951
14289664712
14289671548
14289683999
14289692178
14289696633
14289708047
14289714394
14289723061
14289729653
14289740090
14289749123
14289757302
14289765786
14289774575
14289782509
14289791359
14289801796
14289810585
14289818276
14289826882
14289836586
14289844643
14289849099
14289861550
14289869301
14289879677
14289885475
14289895485
14289901100
14289907204
14289913490
14289919960
14289926247
14289932411
14289937966
14289944740
14289949745
14289955177
14289961098
14289966957
14289974159
14289981117
14289986488
14289992714
14289997719
14290003822
14290009499
14290015541
14290022865
14290029152
14290034706
14290040016
14290046364
14290052101
14290058082
14290064613
14290069801
14290077125
14290081764
14290088966
14290094276
14290099891
14290106727
14290112587
14290115883
14290125465
14290129921
14290135902
14290142982
14290148964
14290155067
14290159828
14290164955
14290173378
14290179542
14290186744
14290195167
14290199684
14290207679
14290212074
14290221229
14290225684
14290234779
14290242103
14290249000
14290255653
14290261329
14290266578
14290274818
14290280311
14290286781
14290294837
14290300513
14290307288
14290314063
14290320777
14290324500
14290332435
14290337989
14290344520
14290352942
14290359717
14290364478
14290371375
14290378882
14290384864
14290390662
14290396582
14290403113
14290410132
14290416846
14290422644
14290429541
14290437110
14290442420
14290449988
14290455054
14290460730
14290469702
14290475074
14290483130
14290489783
14290496924
14290502722
14290509863
14290516516
14290522681
14290528967
14290535315
14290541358
14290545996
14290551672
14290557654
14290563574
14290569861
14290576331
14290582373
14290590918
14290599036
14290605383
14290611243
14290617163
14290623816
14290630041
14290635290
14290641089
14290646399
14290654211
14290659033
14290664282
14290671606
14290677160
14290684790
14290689062
14290696264
14290700842
14290707434
14290714453
14290720312
14290725622
14290732397
14290738501
14290743261
14290748388
14290756811
14290761572
14290769079
14290774145
14290780126
14290785864
14290793249
14290798803
14290803869
14290810156
14290816686
14290825536
14290832189
14290838415
14290843786
14290850134
14290855322
14290861974
14290869115
14290878088
14290884618
14290894567
14290900793
14290910375
14290916662
14290924474
14290933996
14290942785
14290949193
14290958471
14290964879
14290974889
14290981359
14290991979
14290998388
14291007055
14291013463
14291025121
14291031408
14291040807
14291046910
14291055211
14291061620
14291071691
14291081822
14291088597
14291094518
14291099217
14291106420
14291112706
14291116185
14291124852
14291131261
14291137731
14291145360
14291151646
14291157811
14291165807
14291172581
14291178075
14291184056
14291191930
14291196751
14291202977
14291210973
14291216283
14291223241
14291228367
14291236729
14291241124
14291248143
14291254246
14291259190
14291264256
14291269383
14291274815
14291281041
14291286961
14291294835
14291300267
14291306065
14291310582
14291316929
14291322728
14291326939
14291333592
14291338902
14291343724
14291350010
14291356114
14291363194
14291368931
14291375279
14291380528
14291388828
14291393711
14291399388
14291405186
14291410069
14291414768
14291421360
14291427708
14291433628
14291440220
14291445347
14291451389
14291456883
14291461338
14291466526
14291472080
14291477756
14291483128
14291489841
14291494602
14291500462
14291504795
14291510288
14291518223
14291521580
14291527622
14291532749
14291538608
14291543430
14291549839
14291553928
14291560703
14291567783
14291573093
14291579563
14291585117
14291591831
14291597507
14291603550
14291609775
14291616733
14291622959
14291628208
14291634739
14291640232
14291646030
14291651157
14291656223
14291663913
14291668979
14291674900
14291680332
14291685642
14291692417
14291698581
14291703769
14291708225
14291714633
14291721225
14291724399
14291731784
14291736850
14291744174
14291749484
14291756198
14291762302
14291770297
14291778171
14291781772
14291789828
14291795322
14291800876
14291807040
14291814853
14291822299
14291825656
14291833896
14291838901
14291844516
14291853000
14291858066
14291865390
14291871371
14291876071
14291882724
14291886874
14291893344
14291897677
14291903415
14291912082
14291918063
14291923007
14291930209
14291934298
14291940951
14291943637
14291953097
14291958773
14291966036
14291969027
14291979098
14291986117
14291992221
14291998385
14292006198
14292013094
14292022982
14292028231
14292035922
14292043917
14292049410
14292057223
14292063204
14292070956
14292076205
14292083773
14292091341
14292097811
14292105257
14292114474
14292120821
14292129122
14292135348
14292143648
14292149935
14292158236
14292165499
14292170321
14292175692
14292182345
14292186983
14292193636
14292198763
14292205416
14292209200
14292216524
14292222811
14292229525
14292234468
14292239962
14292244966
14292251436
14292257601
14292264009
14292270479
14292276644
14292282625
14292289278
14292294100
14292302217
14292307894
14292311861
14292319368
14292325105
14292331880
14292336275
14292343599
14292348909
14292353853
14292359895
14292365816
14292372041
14292377168
14292383821
14292390352
14292396944
14292404085
14292411348
14292417207
14292423433
14292429475
14292435884
14292442659
14292449556
14292455903
14292461274
14292467012
14292474092
14292479829
14292485200
14292491060
14292496003
14292502900
14292507234
14292512727
14292518220
14292523774
14292529817
14292536470
14292541108
14292548127
14292552766
14292557954
14292566133
14292571382
14292577729
14292584626
14292589021
14292595246
14292599641
14292606049
14292610444
14292617036
14292622773
14292629304
14292633820
14292639985
14292646088
14292651948
14292656892
14292663056
14292670197
14292675324
14292682648
14292687958
14292694855
14292700288
14292705720
14292711518
14292716828
14292721467
14292728669
14292733979
14292739045
14292744721
14292750519
14292756562
14292762299
14292768647
14292774750
14292779755
14292785492
14292792023
14292798737
14292805207
14292809662
14292816132
14292821808
14292826447
14292831940
14292838410
14292842804
14292850006
14292855683
14292860932
14292866242
14292872833
14292878205
14292883454
14292888703
14292894623
14292900788
14292908051
14292913239
14292918915
14292923615
14292930695
14292936066
14292941803
14292946808
14292951996
14292957367
14292963043
14292967926
14292975189
14292979401
14292986175
14292992401
14292999298
14293005585
14293012421
14293018707
14293024383
14293030975
14293036712
14293041961
14293049164
14293058319
14293065948
14293073944
14293082061
14293089447
14293096832
14293106231
14293113983
14293121551
14293128875
14293136444
14293143829
14293151886
14293159454
14293167816
14293175323
14293182830
14293190948
14293198028
14293208343
14293215423
14293223541
14293231170
14293239349
14293248443
14293254913
14293259429
14293266509
14293270965
14293277740
14293282561
14293288726
14293293120
14293300567
14293305083
14293310821
14293317657
14293321929
14293328948
14293334502
14293339568
14293345122
14293351836
14293357268
14293362639
14293368804
14293374297
14293380523
14293385650
14293391204
14293397063
14293399932
14293407744
14293413359
14293419219
14293425322
14293430999
14293435454
14293442046
14293446562
14293454070
14293459014
14293464080
14293471831
14293477446
14293483489
14293487029
14293493498
14293498442
14293505217
14293510405
14293517668
14293521819
14293528410
14293535307
14293540434
14293546233
14293551909
14293557097
14293563261
14293570647
14293576994
14293582426
14293588591
14293593596
14293601652
14293606535
14293613493
14293618925
14293625151
14293629790
14293639250
14293644133
14293649138
14293657011
14293661589
14293668669
14293675627
14293680876
14293687590
14293694304
14293699308
14293705900
14293709929
14293716520
14293721586
14293727446
14293732939
14293739653
14293743315
14293749662
14293755094
14293761564
14293767851
14293772184
14293780302
14293783109
14293789762
14293796415
14293801847
14293807768
14293813261
14293818815
14293824186
14293830351
14293835966
14293840421
14293846464
14293851225
14293858244
14293862882
14293868070
14293874784
14293879850
14293886625
14293892057
14293897489
14293903470
14293908536
14293913175
14293920316
14293925931
14293932340
14293936979
14293944364
14293950345
14293957120
14293960965
14293968290
14293973600
14293978666
14293983548
14293989225
14293997525
14294004789
14294011075
14294019986
14294026151
14294033780
14294040982
14294046903
14294051847
14294056729
14294061612
14294066251
14294071561
14294076200
14294081388
14294086514
14294091580
14294096524
14294101285
14294106168
14294113126
14294120145
14294129300
14294136319
14294143887
14294152188
14294158841
14294166531
14294174344
14294181546
14294187955
14294196805
14294204129
14294212430
14294219205
14294225857
14294232815
14294242764
14294249112
14294259305
14294268338
14294275479
14294283963
14294293789
14294302029
14294311367
14294317654
14294322476
14294328518
14294333157
14294338223
14294342861
14294349270
14294354214
14294360623
14294366238
14294371121
14294375393
14294381741
14294386318
14294391567
14294397793
14294403042
14294407986
14294414761
14294419705
14294425076
14294430996
14294436611
14294442043
14294447292
14294452236
14294457363
14294462673
14294467861
14294473171
14294478359
14294483852
14294489040
14294493557
14294500271
14294503322
14294510280
14294514858
14294521633
14294527492
14294535854
14294540371
14294548305
14294553310
14294559047
14294565029
14294570827
14294576320
14294582851
14294589321
14294595302
14294599575
14294606044
14294610683
14294615932
14294622951
14294629787
14294634487
14294640956
14294646877
14294652492
14294657131
14294662319
14294670192
14294674343
14294680507
14294686305
14294690395
14294696254
14294702358
14294707607
14294713527
14294720485
14294725246
14294730678
14294737270
14294741786
14294748317
14294753505
14294759303
14294764613
14294770961
14294776942
14294781154
14294787868
14294793117
14294798793
14294804347
14294809962
14294814906
14294822658
14294827968
14294833827
14294842006
14294847133
14294855006
14294860255
14294867030
14294874232
14294878993
14294885218
14294891200
14294896937
14294902858
14294910670
14294916041
14294921778
14294926844
14294931666
14294938807
14294942652
14294950282
14294955775
14294961573
14294966639
14294972437
14294977809
14294983363
14294989710
14294995387
14295002467
14295007960
14295012354
14295019557
14295024256
14295030848
14295037074
14295042689
14295047388
14295052027
14295058680
14295065272
14295069666
14295075404
14295082117
14295086817
14295093653
14295098048
14295104517
14295109400
14295116053
14295121363
14295126673
14295131739
14295137354
14295143824
14295149561
14295156885
14295165125
14295173182
14295181299
14295189783
14295198206
14295205896
14295214075
14295223291
14295231348
14295237757
14295246973
14295253687
14295263880
14295274378
14295283167
14295292749
14295300806
14295307459
14295317041
14295323572
14295331567
14295341272
14295350305
14295356714
14295364648
14295373071
14295379297
14295383996
14295389551
14295395532
14295402185
14295408777
14295416040
14295420617
14295426965
14295431421
14295438501
14295443445
14295449792
14295455896
14295461755
14295466150
14295472131
14295477258
14295482690
14295489099
14295493921
14295502343
14295508264
14295514001
14295519433
14295527978
14295532189
14295539941
14295544763
14295552026
14295556298
14295561425
14295566796
14295571984
14295577111
14295583947
14295590783
14295595544
14295601342
14295606225
14295610803
14295618005
14295622399
14295627770
14295634179
14295640588
14295644616
14295651513
14295656029
14295664269
14295670495
14295677148
14295682458
14295688195
14295691735
14295698144
14295703454
14295709618
14295713952
14295721337
14295725609
14295731957
14295736474
14295742760
14295748375
14295753258
14295758873
14295763878
14295769371
14295774743
14295780724
14295787133
14295791527
14295797997
14295802697
14295810326
14295815453
14295822411
14295827050
14295833763
14295839073
14295844261
14295850792
14295856285
14295860497
14295867516
14295872948
14295877648
14295884056
14295889916
14295895043
14295900780
14295909020
14295914818
14295920921
14295926476
14295932396
14295938072
14295943321
14295948936
14295954735
14295960472
14295966881
14295972496
14295977013
14295982811
14295989281
14295994102
14296001427
14296007164
14296013267
14296017235
14296024254
14296029686
14296036278
14296041282
14296046470
14296051414
14296058189
14296063438
14296069175
14296075706
14296081260
14296088401
14296097679
14296104271
14296109642
14296115806
14296122093
14296127403
14296134239
14296140708
14296147972
14296152854
14296159690
14296165306
14296170127
14296174278
14296180992
14296185813
14296190940
14296196067
14296202781
14296207298
14296212974
14296218833
14296225059
14296233176
14296241416
14296249473
14296257407
14296263816
14296273948
14296280356
14296290488
14296296653
14296305747
14296312034
14296322104
14296328635
14296335715
14296345115
14296351706
14296361228
14296367820
14296377768
14296384970
14296394614
14296402854
14296410239
14296418906
14296426352
14296434897
14296441489
14296446433
14296452231
14296457663
14296463278
14296467917
14296474997
14296480551
14296486167
14296493308
14296499167
14296504538
14296510275
14296515463
14296521140
14296525595
14296531943
14296539755
14296545676
14296550192
14296555624
14296562277
14296566550
14296573141
14296578879
14296585837
14296590109
14296596762
14296601767
14296607382
14296613852
14296619284
14296625754
14296631674
14296637289
14296642355
14296648825
14296654074
14296659445
14296665243
14296670614
14296678671
14296683737
14296689901
14296696737
14296701498
14296708395
14296714743
14296719686
14296725302
14296733908
14296739767
14296745016
14296751364
14296758261
14296765219
14296769979
14296776449
14296782125
14296787985
14296794759
14296798727
14296804708
14296808981
14296815328
14296820821
14296826315
14296831808
14296838277
14296844137
14296849935
14296855123
14296860189
14296865499
14296871175
14296878927
14296884115
14296890035
14296895711
14296901205
14296906820
14296912252
14296917867
14296924398
14296929952
14296935628
14296940999
14296943990
14296950765
14296955220
14296962301
14296968099
14296975484
14296980001
14296986409
14296990926
14296996541
14297003438
14297008260
14297018575
14297024556
14297030843
14297037068
14297041951
14297049092
14297054830
14297062154
14297067342
14297075948
14297081197
14297089009
14297094136
14297099202
14297104878
14297112874
14297118184
14297125569
14297130696
14297137898
14297142781
14297148457
14297155415
14297161824
14297167622
14297174824
14297180134
14297186055
14297193135
14297197774
14297205281
14297210347
14297216878
14297224507
14297229390
14297236226
14297241658
14297246846
14297253254
14297258992
14297267476
14297272297
14297278889
14297284993
14297290791
14297295979
14297300984
14297308613
14297314106
14297320271
14297329487
14297338276
14297345600
14297355122
14297362507
14297372456
14297379658
14297389668
14297399189
14297407917
14297414997
14297425068
14297432453
14297441425
14297450825
14297459064
14297465595
14297476093
14297484028
14297492023
14297498920
14297506794
14297515461
14297524494
14297533649
14297542072
14297548176
14297554157
14297559467
14297566120
14297569721
14297579792
14297584919
14297590473
14297595111
14297600605
14297606098
14297611408
14297620319
14297624713
14297631916
14297637897
14297642475
14297647663
14297655719
14297660541
14297666278
14297671161
14297677936
14297684711
14297690692
14297695758
14297700763
14297708698
14297713458
14297718341
14297725909
14297731586
14297738239
14297743060
14297748859
14297754718
14297760699
14297766315
14297772479
14297779071
14297785174
14297790607
14297795550
14297802569
14297808002
14297813983
14297820086
14297826007
14297829547
14297838641
14297843524
14297849872
14297856036
14297862445
14297869403
14297876605
14297882891
14297887896
14297895098
14297901446
14297906512
14297911639
14297918475
14297924029
14297932452
14297937518
14297944049
14297950091
14297956133
14297960589
14297967181
14297974139
14297978472
14297987322
14297994463
14297999407
14298006060
14298014361
14298021014
14298025408
14298032793
14298038714
14298048052
14298055437
14298062029
14298068316
14298075762
14298079119
14298086321
14298093218
14298097674
14298103228
14298111529
14298115557
14298121111
14298128679
14298134966
14298139910
14298145586
14298153215
14298158098
14298164690
14298169329
14298176043
14298180681
14298188738
14298194658
14298200212
14298206926
14298211992
14298216326
14298223284
14298229509
14298235124
14298240251
14298246111
14298252214
14298258013
14298263811
14298268083
14298274187
14298280168
14298286577
14298292864
14298297990
14298303606
14298311418
14298316484
14298322160
14298328691
14298335039
14298340471
14298346696
14298352556
14298358537
14298364580
14298371904
14298377763
14298383806
14298388750
14298395463
14298401079
14298407182
14298412858
14298418535
14298425493
14298431657
14298440324
14298445939
14298452348
14298463639
14298469316
14298476518
14298482255
14298490068
14298497209
14298505632
14298515275
14298523393
14298532426
14298539262
14298546647
14298554704
14298564958
14298573625
14298583146
14298589799
14298599259
14298605668
14298615006
14298621781
14298631242
14298638505
14298647843
14298654618
14298663712
14298670426
14298679825
14298686600
14298697220
14298705216
14298710160
14298715836
14298724686
14298729142
14298736832
14298744400
14298750687
14298757950
14298764420
14298771378
14298776932
14298782181
14298788712
14298794754
14298800553
14298807328
14298812882
14298817948
14298824173
14298828446
14298835160
14298839676
14298846634
14298851822
14298858902
14298864029
14298869522
14298875931
14298881607
14298887467
14298892105
14298899307
14298903153
14298910355
14298916458
14298922562
14298929275
14298934952
14298939774
14298947708
14298954727
14298959854
14298965103
14298970901
14298977371
14298983047
14298987564
14298993240
14298999466
14299005508
14299010818
14299016922
14299021255
14299028213
14299033279
14299040664
14299045852
14299051834
14299059463
14299064163
14299069839
14299077285
14299083145
14299088882
14299095108
14299101394
14299106094
14299111160
14299118606
14299123977
14299130264
14299136062
14299142593
14299149001
14299154678
14299162490
14299167312
14299174209
14299179702
14299185867
14299192031
14299198806
14299206130
14299212356
14299215530
14299224258
14299227615
14299236648
14299241714
14299247939
14299253066
14299259109
14299266860
14299272414
14299278091
14299285049
14299290298
14299295424
14299302077
14299310317
14299316848
14299323989
14299330275
14299335891
14299341689
14299347121
14299353286
14299361647
14299368483
14299375441
14299380690
14299386367
14299394606
14299402358
14299406935
14299414443
14299418898
14299426161
14299431533
14299436598
14299441908
14299448927
14299453139
14299460524
14299466628
14299471816
14299477065
14299482680
14299487807
14299493910
14299500868
14299505019
14299512282
14299517897
14299522963
14299529189
14299535841
14299540907
14299547438
14299553786
14299558363
14299564039
14299570814
14299574843
14299582472
14299588637
14299594923
14299598952
14299604933
14299611647
14299618422
14299623304
14299632094
14299636976
14299643507
14299648756
14299654799
14299658155
14299666883
14299672316
14299679457
14299684217
14299688856
14299696669
14299701979
14299708998
14299714979
14299720533
14299726515
14299732008
14299738416
14299744276
14299750562
14299756300
14299760938
14299766920
14299772718
14299779188
14299785658
14299791273
14299796095
14299803053
14299808546
14299815137
14299820692
14299826307
14299831922
14299838392
14299844495
14299848646
14299854688
14299862867
14299869825
14299875135
14299881055
14299884595
14299893079
14299898389
14299903943
14299909803
14299915540
14299922193
14299927625
14299934644
14299938245
14299948438
14299954358
14299959424
14299965955
14299975354
14299980603
14299986158
14299993299
14299999585
14300005017
14300012281
14300019971
14300025281
14300031690
14300037488
14300042981
14300049939
14300055554
14300061170
14300069959
14300074780
14300081983
14300085034
14300091687
14300095898
14300101147
14300108289
14300112134
14300119763
14300124402
14300130749
14300134656
14300140759
14300145703
14300152295
14300157971
14300163769
14300170544
14300175183
14300182812
14300188305
14300194531
14300199719
14300208386
14300214428
14300221325
14300226269
14300233838
14300239331
14300247204
14300252270
14300258496
14300263134
14300269970
14300276074
14300282544
14300288342
14300294873
14300301770
14300308483
14300315136
14300320690
14300326123
14300334484
14300339489
14300345593
14300352123
14300358410
14300361706
14300371777
14300374828
14300382092
14300387219
14300393627
14300398327
14300403759
14300409496
14300417370
14300422802
14300429150
14300432384
14300440258
14300445385
14300452526
14300457592
14300462047
14300468639
14300474315
14300480480
14300484875
14300490856
14300493786
14300503002
14300510875
14300515331
14300521618
14300528270
14300534740
14300539806
14300546642
14300552196
14300560619
14300570629
14300576732
14300585155
14300590831
14300600048
14300606578
14300614086
14300619945
14300632030
14300637950
14300646617
14300656810
14300665599
14300672984
14300683605
14300689769
14300701244
14300710338
14300716685
14300724925
14300733958
14300741222
14300747630
14300754893
14300760509
14300768260
14300775584
14300781016
14300786387
14300795054
14300799510
14300806651
14300811290
14300816417
14300822154
14300828746
14300834605
14300842357
14300848216
14300852488
14300858897
14300864695
14300871165
14300875926
14300882395
14300889720
14300894114
14300900340
14300905345
14300912364
14300916209
14300923106
14300928111
14300934153
14300940623
14300946177
14300952586
14300958689
14300964427
14300970225
14300975535
14300981333
14300988963
14300993906
14300999094
14301006785
14301011912
14301016489
14301023692
14301029124
14301034861
14301041575
14301046824
14301050974
14301057749
14301063853
14301069712
14301075266
14301082041
14301085703
14301094187
14301097849
14301105723
14301110422
14301115732
14301123911
14301131174
14301137583
14301144602
14301149668
14301155405
14301161753
14301167429
14301174143
14301179758
14301187265
14301194345
14301199167
14301204599
14301213083
14301218149
14301223215
14301230905
14301235544
14301244333
14301251474
14301257700
14301262583
14301269602
14301275217
14301281809
14301288156
14301292673
14301299204
14301305490
14301311227
14301317941
14301325510
14301332834
14301338449
14301340219
14301351388
14301361154
14301366525
14301372262
14301380380
14301385934
14301394235
14301399728
14301406381
14301411996
14301417306
14301422494
14301428354
14301433664
14301439828
14301445199
14301451913
14301457956
14301464059
14301467050
14301474862
14301479684
14301487069
14301492257
14301497872
14301505624
14301512033
14301516976
14301523690
14301529794
14301535531
14301541268
14301547128
14301553780
14301561166
14301567330
14301570748
14301578805
14301583627
14301590707
14301595712
14301602364
14301607980
14301613351
14301621102
14301626717
14301632333
14301638009
14301644051
14301649605
14301656075
14301661751
14301669381
14301675789
14301682015
14301687508
14301693490
14301699044
14301704964
14301712594
14301717598
14301723763
14301729256
14301738350
14301745247
14301752205
14301759835
14301767342
14301772591
14301779000
14301784981
14301792061
14301798775
14301807869
14301812996
14301818611
14301826485
14301831124
14301838509
14301844124
14301850411
14301856209
14301862007
14301865181
14301874580
14301879219
14301885872
14301892952
14301897652
14301904366
14301908638
14301915840
14301921455
14301930061
14301934761
14301942634
14301947761
14301953499
14301958443
14301966804
14301971687
14301977974
14301985359
14301991035
14301996040
14302002754
14302008613
14302015754
14302022529
14302028816
14302035652
14302040290
14302045539
14302054451
14302059578
14302066230
14302070747
14302076973
14302081245
14302087898
14302092353
14302099067
14302104927
14302110359
14302117927
14302123603
14302129890
14302135505
14302142463
14302146980
14302153388
14302158027
14302163337
14302169196
14302175544
14302180061
14302187568
14302191413
14302196784
14302201911
14302207954
14302213752
14302220649
14302226997
14302233344
14302237006
14302245612
14302251777
14302258674
14302262214
14302269233
14302277167
14302282050
14302287604
14302296088
14302301764
14302305365
14302311530
14302315864
14302323310
14302329291
14302334662
14302338507
14302346015
14302350287
14302357611
14302362616
14302368476
14302374579
14302381110
14302385932
14302392157
14302398078
14302404303
14302412238
14302417365
14302422186
14302429816
14302434455
14302441413
14302448065
14302452338
14302459418
14302466132
14302472784
14302478034
14302484381
14302490424
14302496466
14302502631
14302509161
14302516119
14302522467
14302529059
14302533758
14302538641
14302547003
14302551947
14302557623
14302564825
14302569891
14302577154
14302583014
14302588629
14302593023
14302601446
14302606817
14302614264
14302617315
14302625799
14302635260
14302643072
14302650824
14302656256
14302661139
14302669012
14302674017
14302679998
14302686163
14302691534
14302695867
14302702215
14302706854
14302714483
14302718756
14302726019
14302730596
14302737127
14302741277
14302747930
14302752447
14302758001
14302765325
14302770086
14302776617
14302781744
14302788274
14302793462
14302798589
14302805181
14302810796
14302816289
14302821905
14302829107
14302835577
14302842351
14302848394
14302851629
14302859441
14302864202
14302870855
14302876714
14302884282
14302889348
14302894964
14302902837
14302908635
14302914312
14302919744
14302926580
14302932683
14302939031
14302944646
14302951543
14302957097
14302963262
14302968145
14302973943
14302981450
14302985417
14302993657
14302999394
14303005071
14303010137
14303018315
14303023503
14303029546
14303036077
14303042241
14303045476
14303054143
14303059026
14303066106
14303071416
14303077458
14303084843
14303089787
14303096867
14303103215
14303108891
14303113469
14303121159
14303126469
14303132634
14303136052
14303144475
14303151311
14303157536
14303163029
14303170415
14303175786
14303182255
14303189274
14303197209
14303203618
14303208745
14303215458
14303222538
14303228276
14303233647
14303240422
14303247136
14303254216
14303260990
14303268010
14303275212
14303280644
14303288761
14303295231
14303302311
14303311283
14303317021
14303325566
14303332768
14303338566
14303344303
14303349186
14303356083
14303360783
14303366154
14303373051
14303379093
14303383610
14303388309
14303395390
14303401371
14303407841
14303414371
14303419865
14303424869
14303430546
14303437260
14303442142
14303448612
14303454899
14303460392
14303466495
14303473758
14303477604
14303485538
14303491520
14303496280
14303502567
14303508915
14303514957
14303521671
14303526493
14303533207
14303537845
14303546390
14303551578
14303558536
14303565311
14303571537
14303576419
14303584659
14303589603
14303596073
14303600955
14303607669
14303616214
14303622867
14303631534
14303635990
14303643192
14303648380
14303654056
14303659732
14303667972
14303673587
14303679752
14303686649
14303691409
14303697635
14303708011
14303715335
14303721744
14303725223
14303732974
14303739444
14303743655
14303752139
14303758182
14303765262
14303773318
14303781497
14303787539
14303793033
14303798282
14303805545
14303810672
14303817813
14303824099
14303830142
14303834842
14303841189
14303847232
14303854007
14303859805
14303865908
14303871218
14303877932
14303883547
14303890567
14303895632
14303901858
14303908938
14303914981
14303921389
14303934023
14303944033
14303949526
14303955081
14303963503
14303968264
14303975405
14303980837
14303988406
14303991274
14303997988
14304002261
14304009341
14304013613
14304019289
14304023928
14304030093
14304035647
14304042910
14304048891
14304053835
14304058840
14304063784
14304068545
14304076540
14304080935
14304087465
14304092470
14304098024
14304104311
14304110598
14304116640
14304123842
14304130495
14304138369
14304142214
14304149233
14304153566
14304158449
14304162966
14304168520
14304173769
14304178957
14304183290
14304187746
14304191957
14304197389
14304202638
14304208986
14304216371
14304221926
14304226137
14304232301
14304238161
14304244142
14304248537
14304252992
14304259706
14304265932
14304271913
14304276308
14304281557
14304286012
14304291811
14304295595
14304303773
14304309694
14304316225
14304322023
14304328004
14304333986
14304338869
14304344484
14304348817
14304355653
14304358888
14304364259
14304369813
14304375062
14304378847
14304386415
14304392457
14304398988
14304406129
14304412782
14304417787
14304424989
14304429567
14304435731
14304442018
14304448243
14304452638
14304459291
14304464479
14304470948
14304474244
14304480714
14304486146
14304493226
14304498292
14304505982
14304513246
14304520692
14304527162
14304534730
14304542909
14304550050
14304557435
14304562623
14304567445
14304571351
14304579346
14304584962
14304589539
14304596680
14304601563
14304606568
14304611329
14304616517
14304620423
14304625001
14304629822
14304636109
14304641114
14304646058
14304650696
14304655640
14304659608
14304665589
14304669617
14304675965
14304681763
14304685730
14304689942
14304695557
14304699280
14304706177
14304710450
14304716614
14304721009
14304725464
14304729859
14304736084
14304741455
14304747254
14304753540
14304759034
14304765015
14304769532
14304773865
14304778260
14304782837
14304788391
14304795655
14304800720
14304804871
14304812195
14304816590
14304823181
14304828919
14304832947
14304840454
14304846130
14304851379
14304856262
14304862183
14304867310
14304872131
14304876648
14304883972
14304888367
14304894958
14304899109
14304904419
14304910278
14304915161
14304919983
14304925720
14304930908
14304936645
14304941894
14304946472
14304952698
14304958069
14304962951
14304966675
14304972534
14304979797
14304984863
14304992187
14304998352
14305006347
14305013672
14305018127
14305023681
14305029419
14305036010
14305040771
14305046447
14305051574
14305057189
14305062011
14305068237
14305077880
14305083984
14305089294
14305095581
14305101684
14305107665
14305112670
14305119018
14305126525
14305132140
14305136230
14305142638
14305146667
14305151916
14305156921
14305162597
14305167907
14305173034
14305175842
14305182800
14305188171
14305193847
14305198241
14305203063
14305207336
14305213012
14305217345
14305222655
14305227172
14305233520
14305237853
14305244140
14305249755
14305256286
14305262816
14305266906
14305273864
14305278747
14305284057
14305289550
14305294860
14305300109
14305305968
14305311644
14305316954
14305321898
14305327330
14305332640
14305337157
14305344481
14305350219
14305355468
14305361327
14305366515
14305369994
14305374999
14305380980
14305387084
14305392821
14305399657
14305404662
14305409606
14305414977
14305420226
14305425963
14305432066
14305438597
14305444518
14305447386
14305454405
14305460143
14305465880
14305468871
14305475890
14305481383
14305487242
14305492186
14305498228
14305503783
14305508910
14305513792
14305519774
14305525816
14305531676
14305537047
14305542479
14305548033
14305553526
14305558409
14305564146
14305570616
14305578489
14305583372
14305589720
14305594786
14305601194
14305604979
14305612242
14305616514
14305622923
14305630003
14305637083
14305643125
14305648313
14305655821
14305662046
14305667601
14305674070
14305681211
14305687864
14305692869
14305700254
14305704588
14305710996
14305715574
14305721372
14305724607
14305733579
14305738950
14305744566
14305750730
14305757078
14305762754
14305772153
14305779417
14305784483
14305789121
14305795591
14305801328
14305806394
14305810056
14305815427
14305822080
14305827329
14305833738
14305838499
14305843809
14305848386
14305853452
14305859922
14305866269
14305872068
14305877317
14305883664
14305889280
14305896299
14305902463
14305909299
14305915220
14305920041
14305925412
14305930051
14305934995
14305941465
14305946164
14305952329
14305961179
14305968320
14305974118
14305978940
14305985227
14305991147
14305996213
14306001828
14306006040
14306014523
14306020627
14306026730
14306031552
14306037167
14306041989
14306048520
14306053830
14306058713
14306065854
14306071652
14306076779
14306082150
14306089291
14306095151
14306099789
14306105527
14306111996
14306118649
14306124142
14306130307
14306135617
14306141171
14306148251
14306155331
14306161007
14306166256
14306172299
14306179074
14306183957
14306189816
14306195675
14306201962
14306208676
14306213742
14306220333
14306227719
14306232296
14306239743
14306244442
14306253475
14306259579
14306267758
14306273434
14306282589
14306288815
14306293881
14306299984
14306306149
14306311398
14306317257
14306322323
14306329586
14306335812
14306341000
14306348324
14306352718
14306358944
14306363522
14306368771
14306373653
14306378536
14306385494
14306390194
14306395931
14306409237
14306415768
14306424435
14306429684
14306435421
14306441707
14306446651
14306453487
14306459102
14306465084
14306470760
14306475277
14306482357
14306483883
14306493465
14306498775
14306511715
14306516658
14306524288
14306528926
14306536556
14306542965
14306548702
14306554256
14306560787
14306565242
14306570308
14306577083
14306583553
14306589168
14306595516
14306601985
14306608272
14306613582
14306619685
14306623592
14306631343
14306636226
14306641719
14306647762
14306655452
14306660396
14306665889
14306671138
14306675960
14306682735
14306688411
14306694514
14306700679
14306706660
14306713008
14306719905
14306723933
14306732051
14306737666
14306742244
14306749446
14306756160
14306762080
14306766231
14306772944
14306777949
14306784297
14306790767
14306796626
14306803462
14306808955
14306813350
14306819819
14306824885
14306830561
14306833857
14306840449
14306846675
14306853938
14306861994
14306868769
14306876094
14306885066
14306891230
14306899592
14306906123
14306914607
14306921137
14306927119
14306932978
14306937556
14306943476
14306949458
14306954707
14306959711
14306965022
14306970637
14306976557
14306981867
14306987482
14306992609
14306998530
14307003229
14307008478
14307014460
14307021052
14307027338
14307033320
14307038996
14307045160
14307050593
14307056757
14307062311
14307067804
14307074396
14307080317
14307085566
14307091059
14307095514
14307101130
14307106562
14307113092
14307119196
14307127130
14307130915
14307138056
14307142633
14307148737
14307153498
14307161371
14307166803
14307172968
14307179315
14307184015
14307189630
14307194330
14307200311
14307205927
14307212396
14307218683
14307225580
14307231867
14307236017
14307241693
14307247980
14307251215
14307256647
14307262994
14307270380
14307275934
14307281061
14307286798
14307291742
14307299249
14307304315
14307310358
14307315973
14307322809
14307328668
14307334100
14307339105
14307344171
14307349420
14307355157
14307362237
14307368829
14307372430
14307380426
14307385919
14307391839
14307398248
14307404412
14307410821
14307416803
14307421685
14307430169
14307435296
14307440301
14307446771
14307452264
14307461480
14307467706
14307472955
14307478265
14307486749
14307492486
14307498162
14307504205
14307510735
14307514642
14307520379
14307526788
14307531487
14307538323
14307542474
14307547723
14307554803
14307559869
14307565301
14307569573
14307575555
14307580315
14307586541
14307591851
14307597649
14307603753
14307607537
14307613946
14307619012
14307624627
14307630425
14307636284
14307642754
14307647454
14307652093
14307658013
14307661004
14307668450
14307674492
14307680657
14307687981
14307692437
14307698967
14307704033
14307708672
14307715935
14307721001
14307727166
14307733147
14307738091
14307745964
14307751702
14307757073
14307762932
14307769280
14307774224
14307780937
14307787224
14307792595
14307797783
14307804253
14307809319
14307815056
14307821037
14307830254
14307838554
14307850761
14307859673
14307865532
14307875847
14307883903
14307892265
14307901543
14307909538
14307919426
14307929436
14307936333
14307944328
14307952263
14307962272
14307969902
14307978141
14307986931
14307994438
14308001823
14308007988
14308016838
14308025077
14308033805
14308041557
14308049736
14308057975
14308066276
14308071281
14308081413
14308090385
14308099662
14308106803
14308114250
14308124809
14308133231
14308142875
14308152518
14308163932
14308173026
14308182670
14308191154
14308198478
14308207206
14308216422
14308222587
14308231559
14308240165
14308246512
14308258780
14308266898
14308273612
14308281730
14308290458
14308298514
14308307914
14308317191
14308323844
14308333365
14308340872
14308349356
14308356375
14308364920
14308374930
14308383231
14308390494
14308398245
14308407706
14308415335
14308423941
14308431937
14308437796
14308447806
14308454520
14308463919
14308468008
14308479666
14308486929
14308497305
14308503836
14308513724
14308521231
14308530691
14308540396
14308548025
14308555227
14308562979
14308571951
14308578909
14308585989
14308596853
14308605703
14308612905
14308620169
14308628836
14308636221
14308644949
14308652456
14308660025
14308668508
14308677297
14308685964
14308693350
14308700796
14308708853
14308716726
