14437844142
14437850185
14437856471
14437862208
14437866908
14437872218
14437878993
14437885035
14437890773
14437896998
14437903651
14437910182
14437917933
14437924525
14437930446
14437937709
14437944667
14437951442
14437956691
14437963221
14437968653
14437974513
14437979640
14437986903
14437992823
14438000392
14438007411
14438013331
14438019923
14438024989
14438033290
14438041834
14438047938
14438054591
14438061732
14438069422
14438075831
14438084315
14438091639
14438097315
14438105189
14438112025
14438118616
14438126490
14438135767
14438141871
14438150721
14438157679
14438164820
14438170191
14438175501
14438181727
14438188807
14438195521
14438200892
14438209253
14438214930
14438222254
14438227869
14438234949
14438240931
14438246424
14438254175
14438260828
14438266565
14438274134
14438279444
14438286646
14438292200
14438299036
14438304712
14438310388
14438317713
14438322229
14438327417
14438332605
14438336694
14438342554
14438347009
14438352136
14438357263
14438362512
14438367090
14438372400
14438377588
14438382349
14438387231
14438392175
14438396387
14438400903
14438406763
14438410974
14438416223
14438420679
14438426355
14438431360
14438437952
14438442773
14438448633
14438453088
14438459314
14438465173
14438470910
14438476159
14438482019
14438487268
14438492822
14438496911
14438503503
14438508020
14438513818
14438518884
14438524926
14438529687
14438533715
14438539453
14438545251
14438550195
14438554040
14438558862
14438563562
14438568872
14438575647
14438581018
14438585778
14438592553
14438597131
14438601708
14438606957
14438613061
14438616845
14438620873
14438624658
14438630029
14438636315
14438641015
14438646081
14438650781
14438656335
14438660790
14438665856
14438670190
14438675073
14438679467
14438683495
14438687585
14438692651
14438697717
14438702172
14438707726
14438713952
14438718713
14438724816
14438728844
14438733178
14438737939
14438743004
14438747094
14438751855
14438757104
14438761559
14438765954
14438770531
14438774499
14438779198
14438784386
14438788903
14438794152
14438799889
14438804039
14438808373
14438813439
14438818505
14438824181
14438830040
14438835411
14438839623
14438844567
14438849083
14438855187
14438861412
14438866539
14438871544
14438876305
14438881066
14438887169
14438892601
14438897057
14438903404
14438911705
14438916893
14438922020
14438927086
14438931542
14438937889
14438943810
14438948082
14438952232
14438956261
14438960716
14438966148
14438970055
14438974876
14438980003
14438984459
14438991966
14438997398
14439002892
14439011558
14439020531
14439026634
14439034752
14439041283
14439047874
14439055260
14439062218
14439068138
14439075828
14439085472
14439092796
14439098778
14439105674
14439112266
14439119163
14439126670
14439133323
14439139793
14439146690
14439154869
14439161827
14439167503
14439174644
14439182762
14439188560
14439194480
14439199302
14439205894
14439209739
14439215965
14439222434
14439228111
14439234092
14439237205
14439245445
14439251426
14439257652
14439261680
14439268089
14439273948
14439281272
14439287070
14439293479
14439298789
14439302695
14439308982
14439316611
14439321250
14439326621
14439332542
14439338767
14439345664
14439351829
14439356467
14439363364
14439368430
14439375632
14439379539
14439386435
14439393638
14439399924
14439405600
14439412986
14439418357
14439425376
14439431784
14439437217
14439442954
14439448752
14439454673
14439461081
14439467856
14439473166
14439478903
14439483725
14439490988
14439496909
14439503684
14439509421
14439516135
14439522055
14439529318
14439536093
14439545737
14439550925
14439557822
14439564108
14439570578
14439577048
14439581198
14439588461
14439594565
14439599265
14439604697
14439609213
14439614828
14439621176
14439625510
14439632345
14439638937
14439644552
14439651022
14439656698
14439662314
14439667807
14439673178
14439678488
14439682089
14439687155
14439691916
14439696982
14439703573
14439707480
14439715170
14439719931
14439726400
14439731344
14439737143
14439742086
14439746542
14439752706
14439757650
14439763021
14439769796
14439776998
14439782370
14439788839
14439793112
14439798300
14439803854
14439807272
14439814901
14439821859
14439826620
14439832357
14439837850
14439842733
14439847799
14439854025
14439858541
14439864217
14439872030
14439878133
14439883016
14439886373
14439892538
14439899068
14439904195
14439909627
14439915304
14439920736
14439926595
14439932638
14439938192
14439943380
14439948446
14439952962
14439960409
14439967183
14439972066
14439977498
14439982381
14439987691
14439992574
14439999349
14440006124
14440011678
14440018331
14440023458
14440030477
14440037313
14440040975
14440055318
14440064839
14440076192
14440087422
14440100057
14440113484
14440121846
14440131551
14440149739
14440162434
14440173177
14440187947
14440199116
14440212239
14440221822
14440234578
14440241109
14440254902
14440265400
14440278584
14440282918
14440292927
14440300984
14440310383
14440317707
14440323567
14440330708
14440334797
14440340290
14440345295
14440352131
14440359333
14440363911
14440369465
14440375080
14440380940
14440387898
14440393818
14440397724
14440404988
14440409138
14440417134
14440422505
14440428364
14440434712
14440440571
14440445149
14440450886
14440456318
14440462849
14440468342
14440475849
14440480549
14440486652
14440492390
14440499287
14440504597
14440508381
14440516621
14440522480
14440529621
14440534870
14440538715
14440547016
14440550861
14440557575
14440564106
14440570698
14440576618
14440581257
14440587726
14440594928
14440599750
14440605243
14440611408
14440618366
14440624408
14440630451
14440634296
14440642170
14440647785
14440651142
14440658588
14440664447
14440670185
14440676166
14440682270
14440687458
14440692768
14440699848
14440705036
14440710956
14440716632
14440723407
14440729877
14440736102
14440741412
14440745075
14440753986
14440761005
14440768024
14440775531
14440780353
14440785846
14440792438
14440797870
14440801532
14440806537
14440812579
14440818072
14440825641
14440830585
14440839129
14440845111
14440850970
14440861773
14440868976
14440878436
14440884601
14440889972
14440894793
14440900836
14440906512
14440911395
14440917254
14440922320
14440927325
14440931475
14440936358
14440942035
14440947589
14440953814
14440959735
14440964495
14440968035
14440973529
14440979327
14440985308
14440991412
14440996295
14441002093
14441006976
14441011981
14441018084
14441023760
14441029254
14441034625
14441040057
14441044878
14441050311
14441056353
14441061358
14441066119
14441071124
14441076434
14441081438
14441086871
14441092364
14441099627
14441105181
14441111895
14441116350
14441123431
14441128252
14441133868
14441139666
14441144549
14441149004
14441154864
14441160296
14441165972
14441174639
14441180742
14441190447
14441197771
14441205523
14441212664
14441220720
14441228289
14441234453
14441242815
14441251360
14441259478
14441267656
14441275652
14441282305
14441290300
14441297808
14441304094
14441312883
14441321123
14441327532
14441335710
14441344011
14441350237
14441360185
14441367082
14441372392
14441379778
14441385210
14441390947
14441396257
14441402971
14441408769
14441413774
14441423418
14441430131
14441434221
14441441911
14441450822
14441457658
14441467363
14441473649
14441481157
14441489579
14441494706
14441499833
14441504472
14441510637
14441515397
14441519548
14441525468
14441530229
14441534745
14441539750
14441544389
14441549211
14441554216
14441558549
14441563676
14441568376
14441573136
14441577836
14441582597
14441586991
14441592668
14441595719
14441605607
14441610185
14441615861
14441621781
14441627458
14441632707
14441638688
14441643632
14441649674
14441653214
14441659257
14441665849
14441671220
14441676286
14441680192
14441686906
14441691605
14441697282
14441702286
14441707413
14441712968
14441719315
14441723588
14441729630
14441736283
14441743241
14441749467
14441754044
14441760026
14441764054
14441770890
14441774613
14441781632
14441787552
14441794449
14441798295
14441805130
14441811234
14441817704
14441821122
14441828385
14441833512
14441837296
14441845169
14441850357
14441854691
14441862198
14441867447
14441872940
14441878006
14441883499
14441889176
14441895035
14441901200
14441905472
14441911087
14441917191
14441922440
14441928543
14441933670
14441939957
14441944656
14441951859
14441957169
14441963882
14441969498
14441975662
14441980606
14441984817
14441991775
14441996902
14442004349
14442009354
14442017410
14442024368
14442030105
14442037308
14442043594
14442051529
14442058731
14442063492
14442068252
14442074539
14442079666
14442085708
14442090713
14442096878
14442101883
14442108230
14442111709
14442118972
14442124710
14442130203
14442135391
14442141494
14442147171
14442153335
14442158401
14442163894
14442169815
14442176345
14442181472
14442185867
14442191848
14442200637
14442208999
14442215957
14442224319
14442232925
14442240981
14442247878
14442255447
14442264053
14442271133
14442276382
14442286513
14442294082
14442305068
14442312270
14442320327
14442327651
14442335219
14442343459
14442351638
14442359633
14442366713
14442374831
14442382949
14442391616
14442399672
14442404677
14442411818
14442418166
14442424392
14442429580
14442435134
14442441848
14442446913
14442452590
14442457961
14442462966
14442470290
14442475356
14442480910
14442486159
14442492385
14442497389
14442503554
14442508925
14442515822
14442521071
14442528517
14442534621
14442540419
14442544508
14442550124
14442555861
14442561964
14442568007
14442574049
14442579054
14442583998
14442589308
14442596205
14442600355
14442610548
14442615858
14442621229
14442627821
14442636427
14442641676
14442648634
14442653334
14442660292
14442670424
14442676039
14442681105
14442689711
14442695631
14442702162
14442708632
14442713697
14442720228
14442727125
14442732130
14442736525
14442741407
14442747633
14442751905
14442758131
14442764173
14442768629
14442773817
14442780714
14442785597
14442790235
14442796522
14442801283
14442805677
14442812757
14442818189
14442823866
14442828626
14442834303
14442840528
14442846327
14442853590
14442860304
14442865491
14442871290
14442876905
14442882520
14442888013
14442893568
14442898633
14442905653
14442913282
14442917432
14442924512
14442929456
14442935010
14442941602
14442946607
14442952344
14442958387
14442963331
14442971021
14442976453
14442982068
14442986951
14442992444
14442998853
14443005262
14443010572
14443016614
14443023206
14443028638
14443033826
14443039258
14443044690
14443050550
14443057447
14443062635
14443067700
14443073377
14443078687
14443084668
14443090528
14443096082
14443103040
14443107129
14443113049
14443119641
14443123853
14443130322
14443136487
14443140637
14443146558
14443152783
14443158215
14443164075
14443170483
14443176038
14443181470
14443189404
14443196301
14443202832
14443208874
14443214307
14443219311
14443225171
14443232129
14443237134
14443243908
14443250866
14443255688
14443261242
14443267834
14443273694
14443278515
14443286999
14443293530
14443301220
14443310559
14443317700
14443326428
14443333691
14443342968
14443349560
14443355664
14443362072
14443370495
14443377209
14443385876
14443390576
14443399914
14443408276
14443416271
14443424206
14443430737
14443437084
14443444103
14443450939
14443460278
14443466686
14443474071
14443478466
14443488964
14443496654
14443503368
14443508983
14443514721
14443519176
14443526134
14443532055
14443538219
14443543590
14443549755
14443554577
14443560009
14443565197
14443571544
14443576610
14443582164
14443587413
14443593883
14443600048
14443605663
14443609569
14443614757
14443621166
14443625011
14443631725
14443637035
14443643749
14443650341
14443657115
14443663951
14443669628
14443676158
14443679820
14443687511
14443692516
14443699352
14443704967
14443710887
14443716991
14443726695
14443733836
14443740245
14443745250
14443748668
14443753551
14443761302
14443766612
14443771434
14443775096
14443779552
14443784251
14443788768
14443796825
14443803050
14443809276
14443814158
14443818248
14443824657
14443829844
14443835399
14443841563
14443847667
14443852183
14443857799
14443862742
14443868297
14443873729
14443879405
14443886668
14443894786
14443902049
14443908458
14443914683
14443920237
14443925364
14443931102
14443936351
14443944712
14443949534
14443954173
14443958750
14443963084
14443968211
14443972178
14443977122
14443981333
14443987193
14443991770
14443995982
14444002757
14444007090
14444011729
14444018321
14444023264
14444029612
14444034495
14444039072
14444044260
14444049021
14444054331
14444059946
14444068858
14444073862
14444079172
14444084727
14444090525
14444095713
14444100962
14444107310
14444112925
14444117197
14444122385
14444128306
14444134470
14444140146
14444145823
14444148813
14444156992
14444161997
14444168955
14444175364
14444180185
14444185312
14444190195
14444197825
14444202219
14444208811
14444215158
14444220713
14444226328
14444231821
14444238413
14444242929
14444249094
14444254892
14444259836
14444266062
14444271738
14444276621
14444281809
14444288217
14444294321
14444300668
14444306955
14444311960
14444318552
14444326852
14444333139
14444339243
14444349252
14444356760
14444364816
14444372018
14444380563
14444388193
14444396371
14444405405
14444413766
14444421945
14444430307
14444438547
14444447214
14444454599
14444462777
14444470285
14444478219
14444487680
14444494088
14444501657
14444509042
14444517099
14444527108
14444535043
14444543710
14444550973
14444557931
14444566354
14444572152
14444575936
14444583322
14444590768
14444596871
14444602853
14444607858
14444612863
14444618234
14444623238
14444628915
14444635140
14444638680
14444645821
14444651192
14444656197
14444661874
14444666878
14444673348
14444678353
14444682931
14444688302
14444693185
14444697701
14444703988
14444708138
14444714425
14444719247
14444724434
14444730111
14444736458
14444741585
14444746773
14444753609
14444759530
14444765999
14444771065
14444776009
14444781929
14444788033
14444793160
14444797432
14444802681
14444809517
14444815071
14444821053
14444826546
14444831795
14444836983
14444841744
14444846871
14444853585
14444859688
14444864205
14444869698
14444875801
14444880989
14444887093
14444893318
14444896309
14444902901
14444908028
14444915108
14444921150
14444928108
14444933174
14444938057
14444945015
14444949532
14444955574
14444962288
14444969368
14444973885
14444979317
14444985420
14444990974
14444996345
14445002327
14445008125
14445012886
14445018013
14445024727
14445031807
14445036751
14445041878
14445046821
14445052986
14445060432
14445066292
14445070625
14445076179
14445082771
14445087410
14445094001
14445100227
14445105842
14445113288
14445120613
14445127571
14445135017
14445142036
14445149665
14445155586
14445175605
14445181465
14445186286
14445193427
14445197639
14445202888
14445209235
14445215644
14445219795
14445225227
14445231025
14445237617
14445242927
14445248786
14445254584
14445258796
14445264472
14445270148
14445276191
14445282233
14445287849
14445293952
14445297126
14445304633
14445310370
14445317878
14445321845
14445327338
14445333381
14445339423
14445345527
14445351447
14445358344
14445363715
14445369697
14445374396
14445380805
14445386664
14445393012
14445397956
14445404181
14445407538
14445415961
14445426459
14445433661
14445441046
14445448615
14445457282
14445466559
14445473944
14445481452
14445489630
14445498541
14445506598
14445515326
14445521979
14445530585
14445538886
14445548163
14445556342
14445563605
14445571295
14445577948
14445585699
14445594977
14445603461
14445611273
14445619208
14445625006
14445630499
14445636725
14445643133
14445649969
14445656317
14445660833
14445667852
14445672247
14445678045
14445683233
14445689398
14445696234
14445703009
14445708075
14445713507
14445718206
14445724798
14445729559
14445734564
14445740484
14445745550
14445756719
14445764166
14445770208
14445778509
14445786199
14445793768
14445801702
14445808843
14445816778
14445823187
14445828741
14445834051
14445840032
14445845098
14445851202
14445855840
14445860235
14445864690
14445869573
14445874212
14445878545
14445883184
14445888128
14445892705
14445898199
14445902959
14445907659
14445913030
14445917119
14445922185
14445928716
14445933660
14445937749
14445942327
14445946599
14445950811
14445956060
14445961248
14445966558
14445970403
14445975042
14445978887
14445984563
14445988836
14445994756
14446000127
14446006047
14446011357
14446016118
14446021062
14446027654
14446032170
14446038213
14446043035
14446048101
14446052739
14446059941
14446063542
14446070134
14446074529
14446080144
14446085210
14446091985
14446096562
14446101567
14446107610
14446113225
14446117803
14446122868
14446129704
14446135136
14446140324
14446147038
14446151250
14446156499
14446161870
14446166936
14446171880
14446179631
14446184453
14446190068
14446196843
14446201848
14446205998
14446214055
14446219121
14446223515
14446231083
14446235966
14446241826
14446248051
14446253544
14446258732
14446265019
14446272099
14446280034
14446288945
14446295109
14446300785
14446307377
14446315495
14446324284
14446331425
14446338017
14446347416
14446357975
14446366642
14446375797
14446384342
14446394230
14446401188
14446408817
14446415531
14446425724
14446434635
14446442692
14446449528
14446455997
14446463261
14446470524
14446479923
14446489750
14446501713
14446511112
14446520145
14446530765
14446541202
14446550541
14446559757
14446572513
14446581669
14446592350
14446601688
14446611148
14446620975
14446630008
14446640933
14446650699
14446661380
14446671268
14446679813
14446691165
14446700137
14446710452
14446719913
14446728397
14446735904
14446744205
14446752139
14446760501
14446770023
14446777286
14446787417
14446795413
14446803470
14446811954
14446819705
14446827945
14446834903
14446844790
14446851565
14446858584
14446867068
14446876590
14446884463
14446891848
14446900210
14446909671
14446917300
14446923953
14446933596
14446940859
14446948428
14446955752
14446963687
14446971438
14446979250
14446989443
14446994570
14447005496
14447013247
14447020083
14447029543
14447037417
14447045290
14447052981
14447061648
14447069949
14447079165
14447087343
14447096255
14447104250
14447112002
14447120241
14447128725
14447137026
14447150820
14447159914
14447168276
14447176394
14447184206
14447193117
14447200991
14447211794
14447218874
14447227968
14447236452
14447245180
14447252382
14447259950
14447268678
14447277590
14447285768
14447293947
14447302248
14447309877
14447318056
14447325990
14447333498
14447342531
14447349184
14447359987
14447367616
14447374940
14447383119
14447392091
14447400758
14447407472
14447416566
14447423646
14447432557
14447440004
14447449159
14447456666
14447463807
14447472596
14447479799
14447488771
14447495485
14447506288
14447513246
14447522340
14447530091
14447537171
14447546327
14447555421
14447561830
14447570741
14447580140
14447588136
14447595521
14447601930
14447610902
14447620667
14447629517
14447636842
14447645448
14447653077
14447662049
14447669984
14447678040
14447685242
14447691468
14447696290
14447702088
14447706971
14447713807
14447717225
14447725159
14447730652
14447736634
14447740967
14447745850
14447751221
14447756104
14447761536
14447766480
14447771912
14447776856
14447783020
14447789551
14447795594
14447802124
14447809510
14447819092
14447825135
14447832032
14447839600
14447846802
14447855103
14447861878
14447870606
14447877442
14447885132
14447891419
14447899963
14447907044
14447912903
14447921265
14447927429
14447934937
14447940979
14447947571
14447953247
14447960632
14447967163
14447973755
14447979736
14447985107
14447990539
14447995666
14448001098
14448005859
14448010437
14448016052
14448021606
14448026489
14448031494
14448035583
14448040344
14448046692
14448052002
14448057190
14448063965
14448069641
14448074768
14448079589
14448084594
14448089294
14448093628
14448099365
14448104492
14448107605
14448114746
14448119873
14448124938
14448130920
14448135803
14448141479
14448148376
14448154601
14448159240
14448165161
14448170287
14448174194
14448180175
14448187377
14448193054
14448198852
14448203796
14448209411
14448213866
14448220580
14448225219
14448230773
14448237792
14448244079
14448249023
14448255553
14448260558
14448266845
14448272338
14448278747
14448285277
14448292846
14448299132
14448303710
14448309691
14448316161
14448321288
14448326415
14448332274
14448338500
14448346190
14448352111
14448356261
14448363646
14448368041
14448373229
14448379210
14448384826
14448390929
14448398192
14448403441
14448407836
14448414855
14448421691
14448427428
14448432860
14448439330
14448444945
14448451537
14448457152
14448463683
14448471495
14448476500
14448481444
14448488829
14448493102
14448497923
14448502196
14448507445
14448513121
14448518797
14448524229
14448529906
14448535460
14448540465
14448546690
14448552306
14448557494
14448562804
14448567931
14448575377
14448580321
14448585570
14448591063
14448596373
14448602354
14448608153
14448614439
14448619749
14448624754
14448631468
14448636473
14448642149
14448647093
14448653257
14448659361
14448665587
14448670286
14448675413
14448681150
14448686766
14448691954
14448698423
14448703672
14448710936
14448716612
14448723081
14448728941
14448734556
14448739500
14448743833
14448750486
14448754515
14448763609
14448768553
14448774229
14448780821
14448785642
14448791685
14448797361
14448802000
14448810178
14448816892
14448824766
14448832151
14448839536
14448846921
14448854429
14448862363
14448871030
14448879270
14448886289
14448893796
14448900449
14448907224
14448915708
14448923032
14448930662
14448939267
14448947202
14448955259
14448963498
14448970945
14448977109
14448985349
14448992368
14449000425
14449009702
14449015500
14449022519
14449026181
14449032468
14449037717
14449043820
14449050595
14449057065
14449063046
14449070493
14449074582
14449082700
14449086484
14449094418
14449101254
14449106992
14449113156
14449118771
14449124448
14449129269
14449134213
14449136899
14449146115
14449151486
14449154721
14449161252
14449166135
14449169491
14449175900
14449179440
14449188473
14449195004
14449199032
14449206051
14449211300
14449216122
14449220700
14449226559
14449232541
14449238339
14449243344
14449248776
14449253842
14449259579
14449264157
14449269833
14449274716
14449282162
14449288266
14449294308
14449299252
14449302731
14449309017
14449314572
14449319638
14449326840
14449330380
14449336666
14449341549
14449347714
14449353329
14449357968
14449363400
14449368282
14449376217
14449381222
14449387325
14449392086
14449398129
14449403133
14449408505
14449413387
14449420284
14449425716
14449432125
14449437984
14449443294
14449449825
14449455990
14449459957
14449465755
14449473507
14449478878
14449484798
14449490475
14449496395
14449500973
14449507747
14449511898
14449517757
14449525142
14449530452
14449536251
14449542232
14449548092
14449552852
14449559200
14449564937
14449571102
14449576412
14449582210
14449588008
14449594173
14449599483
14449605892
14449609127
14449619930
14449625179
14449630794
14449636714
14449642513
14449648250
14449654415
14449661189
14449667720
14449674129
14449680538
14449686763
14449692561
14449698970
14449703853
14449710750
14449715877
14449724117
14449729366
14449734859
14449739558
14449744807
14449749934
14449756221
14449760554
14449766963
14449772883
14449776973
14449784602
14449789912
14449794917
14449800471
14449805659
14449813960
14449818110
14449824214
14449831111
14449836238
14449841853
14449847651
14449852961
14449858210
14449863032
14449868708
14449874385
14449879878
14449886103
14449892512
14449900447
14449904719
14449915950
14449925715
14449932734
14449941035
14449948237
14449955439
14449964289
14449971247
14449978022
14449985774
14449994624
14450002436
14450011225
14450016901
14450024287
14450033137
14450042963
14450050776
14450059199
14450066645
14450075190
14450083307
14450087214
14450095942
14450101923
14450111811
14450116205
14450126154
14450129267
14450138788
14450143793
14450149653
14450152826
14450161005
14450168024
14450172907
14450179255
14450185053
14450191034
14450197687
14450202875
14450210871
14450217096
14450223383
14450228205
14450231623
14450238703
14450242914
14450248590
14450254389
14450259699
14450266412
14450272516
14450278070
14450282098
14450289423
14450296930
14450307855
14450316400
14450324457
14450330316
14450336420
14450343072
14450349664
14450356988
14450365167
14450369684
14450375116
14450381341
14450387323
14450393670
14450398614
14450403680
14450408563
14450413690
14450420038
14450424798
14450430902
14450437738
14450443536
14450449029
14450454583
14450459039
14450464166
14450470269
14450475335
14450481988
14450487542
14450492120
14450497796
14450502496
14450508355
14450514947
14450520379
14450525750
14450532281
14450538812
14450543633
14450551812
14450556939
14450562737
14450567742
14450574029
14450580865
14450584771
14450591119
14450597344
14450603204
14450609490
14450614983
14450620293
14450626519
14450633782
14450639336
14450645867
14450651543
14450657220
14450664117
14450670891
14450677239
14450682305
14450688470
14450695489
14450700615
14450708489
14450712884
14450720147
14450726433
14450729973
14450737664
14450743157
14450751336
14450756829
14450762444
14450768486
14450774590
14450782463
14450787041
14450793145
14450799492
14450805962
14450812676
14450819329
14450824700
14450830864
14450836174
14450842522
14450848076
14450854180
14450859368
14450864433
14450871208
14450877434
14450883537
14450889031
14450895866
14450903008
14450908379
14450913811
14450919426
14450925896
14450932915
14450939140
14450943474
14450951652
14450960686
14450967460
14450972832
14450980339
14450985710
14450991874
14451000053
14451008110
14451016166
14451022392
14451031608
14451037101
14451044792
14451052116
14451057914
14451065055
14451072258
14451078910
14451087089
14451094291
14451100029
14451106864
14451114616
14451122184
14451130607
14451137809
14451146110
14451152091
14451159538
14451168388
14451176261
14451184806
14451197013
14451204154
14451210746
14451218131
14451224174
14451230033
14451235221
14451240104
14451246513
14451252006
14451256583
14451262076
14451266532
14451272880
14451276969
14451285148
14451292045
14451296622
14451302909
14451307853
14451312247
14451319022
14451323661
14451329398
14451333365
14451338614
14451344169
14451350821
14451356376
14451361869
14451367545
14451374869
14451381034
14451386588
14451391959
14451399100
14451404471
14451410880
14451415885
14451421012
14451426261
14451431815
14451439688
14451444754
14451451407
14451459036
14451462760
14451470206
14451475333
14451481863
14451486929
14451491995
14451498404
14451504202
14451509940
14451515250
14451520560
14451527151
14451533133
14451540152
14451546866
14451552481
14451558890
14451565481
14451571463
14451576590
14451583731
14451589224
14451597281
14451602896
14451608816
14451613394
14451619497
14451624563
14451630117
14451634634
14451639273
14451645193
14451651419
14451655630
14451662344
14451667227
14451671926
14451678213
14451684133
14451689871
14451695059
14451699575
14451704214
14451710562
14451715628
14451720999
14451726370
14451731069
14451735586
14451741873
14451747061
14451752859
14451758108
14451762624
14451770559
14451774709
14451780996
14451785940
14451791372
14451797475
14451803213
14451808157
14451814626
14451820791
14451826467
14451831167
14451837148
14451842702
14451847829
14451854482
14451861257
14451867605
14451873220
14451878896
14451884389
14451887624
14451893789
14451900625
14451906911
14451913076
14451918142
14451923391
14451929860
14451935231
14451941518
14451946645
14451953298
14451958547
14451964406
14451970143
14451975576
14451981374
14451986684
14451993764
14451998952
14452004933
14452009877
14452015492
14452021291
14452026906
14452033010
14452039906
14452047414
14452055470
14452063710
14452071767
14452078725
14452086842
14452094411
14452101796
14452113332
14452123097
14452127309
14452136586
14452144032
14452153981
14452166554
14452172658
14452182179
14452191151
14452202138
14452211781
14452218739
14452227833
14452236988
14452246632
14452256215
14452264515
14452269520
14452274830
14452278859
14452286488
14452292408
14452298756
14452304310
14452311146
14452316822
14452321400
14452327076
14452332142
14452338123
14452343556
14452349354
14452355580
14452362599
14452368946
14452373463
14452379627
14452384022
14452392017
14452397022
14452402576
14452409412
14452416798
14452420582
14452427479
14452433643
14452439991
14452444813
14452450489
14452456348
14452462025
14452467335
14452474354
14452479969
14452485828
14452490833
14452497791
14452503467
14452511524
14452516834
14452521290
14452526966
14452532520
14452539234
14452544544
14452550525
14452556385
14452562854
14452568897
14452574573
14452579883
14452584278
14452591236
14452595996
14452602283
14452607959
14452613819
14452619007
14452625842
14452631824
14452637378
14452642383
14452649707
14452657092
14452663501
14452669238
14452675586
14452681323
14452688281
14452695483
14452701953
14452706897
14452713977
14452721606
14452726977
14452733020
14452740588
14452746997
14452753650
14452760974
14452768603
14452776599
14452784289
14452789294
14452795764
14452802478
14452807727
14452813220
14452817187
14452827929
14452831897
14452840014
14452849536
14452856494
14452862902
14452871081
14452877673
14452884997
14452892321
14452897814
14452905200
14452911059
14452915637
14452922900
14452926989
14452932849
14452938342
14452945422
14452949511
14452957263
14452961291
14452969714
14452975024
14452981738
14452987536
14452995409
14453000536
14453006823
14453011279
14453016711
14453022936
14453028857
14453034655
14453040880
14453046252
14453051623
14453056811
14453061877
14453068102
14453076403
14453081835
14453087023
14453091784
14453097948
14453104723
14453110033
14453115160
14453121325
14453128099
14453133349
14453139025
14453144396
14453149096
14453155199
14453161547
14453167589
14453172777
14453180406
14453187059
14453195604
14453205980
14453212023
14453222093
14453229845
14453236498
14453245287
14453252123
14453261400
14453266527
14453277757
14453286119
14453293687
14453302293
14453309862
14453317003
14453323473
14453331224
14453339464
14453347887
14453357408
14453363267
14453371934
14453378526
14453383775
14453389757
14453396776
14453400621
14453407274
14453413133
14453420823
14453427476
14453431749
14453437730
14453444871
14453451097
14453457566
14453462999
14453469102
14453477159
14453482713
14453491502
14453495225
14453503831
14453513963
14453521165
14453525559
14453531846
14453538621
14453544785
14453549607
14453555222
14453560655
14453564744
14453570054
14453576157
14453579514
14453585862
14453590928
14453596299
14453603074
14453607896
14453612717
14453620164
14453626206
14453632615
14453639756
14453645981
14453650559
14453656541
14453661606
14453669419
14453675339
14453681748
14453687546
14453691392
14453698350
14453703965
14453710557
14453717087
14453723618
14453727646
14453733323
14453739792
14453746079
14453751938
14453758103
14453763474
14453769516
14453775498
14453782334
14453787277
14453793015
14453799240
14453804795
14453811569
14453817551
14453822067
14453827133
14453833603
14453839401
14453846420
14453852768
14453858383
14453862839
14453869858
14453875229
14453881516
14453887985
14453892563
14453898666
14453905075
14453910141
14453917221
14453922531
14453929001
14453935593
14453943100
14453946640
14453955307
14453962570
14453969589
14453978439
14453986618
14453993026
14453997482
14454007248
14454015182
14454022628
14454031967
14454040390
14454048141
14454059005
14454063949
14454073288
14454082992
14454091171
14454099105
14454104171
14454112594
14454123763
14454132491
14454140060
14454146163
14454154464
14454164596
14454171737
14454181075
14454187179
14454197738
14454206100
14454213790
14454222274
14454227157
14454233687
14454239730
14454244979
14454252120
14454257613
14454262801
14454268294
14454273604
14454276473
14454283675
14454289351
14454295089
14454300216
14454306685
14454312240
14454316756
14454321578
14454327193
14454334945
14454341964
14454350936
14454360091
14454367354
14454375106
14454379744
14454391951
14454400862
14454408980
14454417159
14454425643
14454433516
14454443892
14454450423
14454458846
14454468184
14454476668
14454485152
14454491316
14454499617
14454508040
14454516157
14454524458
14454528731
14454539473
14454546431
14454552901
14454558272
14454564375
14454570784
14454575911
14454582136
14454588423
14454593672
14454599470
14454605940
14454611860
14454617903
14454621260
14454630415
14454635786
14454641829
14454648664
14454653547
14454659712
14454664778
14454668989
14454675520
14454680891
14454688825
14454695600
14454701643
14454707868
14454713911
14454721296
14454725630
14454731306
14454740339
14454745527
14454750288
14454753889
14454760908
14454767133
14454772749
14454778974
14454784773
14454792097
14454798261
14454804731
14454812177
14454819257
14454825666
14454833417
14454842634
14454849897
14454854841
14454860944
14454867292
14454875287
14454881391
14454888410
14454894452
14454898725
14454904584
14454910383
14454915082
14454921674
14454926801
14454932538
14454937421
14454943097
14454948957
14454954145
14454959638
14454965192
14454970624
14454976117
14454982160
14454987592
14454992108
14454997418
14455002851
14455009198
14455015485
14455021649
14455025067
14455032880
14455037152
14455044782
14455051495
14455057416
14455062787
14455067365
14455074017
14455079999
14455087384
14455093060
14455099652
14455106366
14455111005
14455117047
14455121991
14455128705
14455136639
14455141827
14455147015
14455152997
14455159344
14455165143
14455170025
14455176068
14455181866
14455190472
14455197003
14455202801
14455207745
14455213971
14455221173
14455226971
14455233746
14455239788
14455246441
14455252850
14455258404
14455264508
14455272564
14455279583
14455288189
14455292889
14455298382
14455304180
14455309490
14455314678
14455319988
14455326153
14455332562
14455337566
14455343243
14455349407
14455355328
14455360760
14455365948
14455371502
14455380840
14455385235
14455393230
14455399151
14455405743
14455412884
14455418743
14455422588
14455435589
14455443462
14455453045
14455465435
14455481426
14455490886
14455504497
14455515728
14455528911
14455540203
14455552043
14455567119
14455575664
14455586528
14455598369
14455609844
14455620403
14455629985
14455637737
14455648906
14455659465
14455664958
14455677104
14455685771
14455697795
14455706279
14455716106
14455722880
14455730266
14455735637
14455740397
14455747661
14455754008
14455759257
14455764140
14455769999
14455775676
14455781108
14455786479
14455791728
14455796428
14455804667
14455811381
14455817424
14455823466
14455828898
14455833537
14455838786
14455844340
14455852397
14455857463
14455862895
14455868876
14455874186
14455879801
14455884379
14455890666
14455896586
14455902384
14455908244
14455914164
14455919901
14455927043
14455932658
14455938517
14455944621
14455950541
14455956889
14455962504
14455968058
14455973612
14455979288
14455985514
14455991801
14455998698
14456004557
14456009989
14456015482
14456020548
14456027689
14456033060
14456042277
14456047587
14456051859
14456058634
14456063456
14456070597
14456076090
14456081156
14456090067
14456095255
14456101481
14456107523
14456113871
14456120462
14456126200
14456131388
14456140299
14456146402
14456153055
14456159220
14456165567
14456170511
14456177164
14456182474
14456190042
14456197794
14456204630
14456210550
14456216104
14456222025
14456227030
14456234964
14456240701
14456245767
14456251077
14456256509
14456261881
14456267191
14456272867
14456278970
14456284891
14456289590
14456294839
14456299600
14456303812
14456309122
14456314920
14456321878
14456327249
14456332864
14456338357
14456343545
14456349100
14456354471
14456358865
14456366433
14456372293
14456378213
14456383706
14456389200
14456394265
14456399575
14456404825
14456410440
14456416604
14456422158
14456426492
14456432901
14456435769
14456441690
14456448159
14456454019
14456459573
14456465249
14456471353
14456475259
14456483499
14456487466
14456496133
14456502786
14456510354
14456516396
14456523232
14456528726
14456533303
14456538552
14456543740
14456552468
14456556130
14456562722
14456570107
14456575478
14456581643
14456588601
14456596719
14456606850
14456614052
14456621682
14456629067
14456636696
14456644692
14456652505
14456660012
14456667885
14456676125
14456684243
14456691567
14456699746
14456707314
14456717873
14456727028
14456734475
14456741616
14456749794
14456757241
14456765785
14456773110
14456781594
14456787697
14456793312
14456799416
14456806252
14456812538
14456818764
14456823952
14456829384
14456834999
14456840614
14456847145
14456853066
14456858498
14456864662
14456868813
14456874184
14456879738
14456886208
14456890236
14456896828
14456902077
14456906776
14456911903
14456917519
14456926308
14456931129
14456936622
14456941200
14456946144
14456951454
14456956459
14456962013
14456968361
14456973915
14456979042
14456984108
14456989479
14456995155
14457000099
14457004615
14457012367
14457016700
14457021949
14457027626
14457032997
14457038429
14457044044
14457050575
14457056556
14457061622
14457067848
14457073097
14457078529
14457083778
14457088600
14457095497
14457102027
14457106971
14457112037
14457117225
14457123695
14457129371
14457134986
14457140846
14457147193
14457153236
14457158729
14457164710
14457170570
14457176795
14457182655
14457186866
14457192481
14457198585
14457205115
14457210975
14457216041
14457221046
14457226234
14457232459
14457237586
14457243384
14457249732
14457256385
14457262366
14457267554
14457273047
14457279151
14457283423
14457289954
14457296485
14457301917
14457308204
14457313941
14457319434
14457324500
14457329749
14457335486
14457341101
14457348487
14457354041
14457357398
14457363745
14457369544
14457378760
14457384314
14457390967
14457400244
14457406653
14457414038
14457420874
14457427161
14457432959
14457438941
14457444190
14457450720
14457456030
14457461340
14457467078
14457471594
14457478064
14457483008
14457490210
14457496008
14457501990
14457506506
14457511938
14457516089
14457522009
14457527136
14457532385
14457538672
14457542456
14457549597
14457556067
14457561011
14457567785
14457573095
14457578650
14457584570
14457588415
14457596167
14457599768
14457605993
14457611609
14457618200
14457625769
14457632177
14457641394
14457645483
14457654272
14457664770
14457673071
14457681677
14457687292
14457699926
14457708044
14457715795
14457724218
14457731909
14457740637
14457749975
14457754797
14457764928
14457772741
14457780004
14457786718
14457791723
14457804540
14457813207
14457818395
14457826086
14457830541
14457833898
14457841344
14457847265
14457854406
14457861303
14457865087
14457871618
14457876500
14457881994
14457886632
14457891698
14457896825
14457905065
14457909520
14457916906
14457921422
14457926488
14457931554
14457938634
14457942662
14457949681
14457954564
14457959752
14457964879
14457969945
14457975987
14457982152
14457987889
14457993993
14458001195
14458006688
14458013951
14458019872
14458026647
14458035130
14458043370
14458048741
14458056554
14458062352
14458068517
14458073338
14458078587
14458083531
14458089879
14458095982
14458100743
14458105931
14458111851
14458116673
14458123875
14458128575
14458134617
14458139378
14458146580
14458152073
14458157567
14458162877
14458170323
14458176732
14458182103
14458187718
14458193150
14458198216
14458204930
14458210606
14458216099
14458220738
14458225682
14458231175
14458236241
14458241917
14458247349
14458252110
14458260472
14458265415
14458270542
14458276646
14458281712
14458286106
14458291599
14458296360
14458303196
14458308201
14458313450
14458318699
14458323826
14458329441
14458335484
14458342442
14458348362
14458353550
14458358616
14458363926
14458369053
14458374058
14458380161
14458385899
14458391209
14458396274
14458402683
14458407261
14458412632
14458417209
14458423618
14458428013
14458435886
14458441929
14458446567
14458451206
14458457615
14458462131
14458467502
14458473179
14458478794
14458485080
14458489902
14458496006
14458500766
14458505771
14458510654
14458517734
14458522922
14458527988
14458533664
14458539279
14458544895
14458551303
14458557834
14458567050
14458572971
14458579074
14458585910
14458595798
14458601474
14458609287
14458614963
14458621249
14458625888
14458631381
14458637302
14458643344
14458653537
14458660556
14458668430
14458679111
14458687106
14458694247
14458701938
14458709689
14458717074
14458724460
14458734897
14458741366
14458748385
14458756381
14458763400
14458770419
14458777743
14458786471
14458794528
14458804110
14458811068
14458817843
14458825473
14458832919
14458840853
14458846896
14458852267
14458857638
14458862887
14458868136
14458873629
14458878390
14458884860
14458890231
14458895724
14458901217
14458906222
14458912692
14458917391
14458923495
14458928500
14458934908
14458939730
14458945712
14458950594
14458956820
14458961703
14458966097
14458971468
14458977389
14458983797
14458990755
14458995577
14458999789
14459006563
14459010775
14459015963
14459025301
14459030123
14459035921
14459040804
14459050875
14459056612
14459065157
14459071749
14459078402
14459083651
14459088961
14459093599
14459099215
14459104097
14459108187
14459115145
14459120516
14459125338
14459129610
14459135652
14459140413
14459145784
14459151216
14459157076
14459163057
14459170320
14459176058
14459182405
14459190767
14459198702
14459205904
14459210542
14459219515
14459225374
14459231477
14459238313
14459245454
14459250276
14459256990
14459262239
14459267854
14459273042
14459278841
14459283784
14459289583
14459294405
14459300630
14459306917
14459311494
14459318086
14459323213
14459329072
14459334382
14459337129
14459346589
14459351228
14459355806
14459360994
14459365571
14459371309
14459376375
14459381318
14459386262
14459392488
14459397004
14459402497
14459406953
14459411836
14459418428
14459424470
14459430635
14459435762
14459440950
14459445527
14459451081
14459457795
14459462922
14459468904
14459475312
14459480439
14459485871
14459490876
14459496064
14459499604
14459507905
14459515839
14459521699
14459526887
14459531709
14459536897
14459541657
14459547944
14459551850
14459559785
14459565217
14459570466
14459575288
14459580353
14459585725
14459590607
14459595856
14459602570
14459608185
14459613251
14459618928
14459623994
14459630036
14459635346
14459640717
14459646210
14459653534
14459658722
14459663178
14459668366
14459673981
14459678986
14459684174
14459689667
14459695771
14459703339
14459708588
14459714020
14459718720
14459726715
14459737091
14459743134
14459749726
14459757477
14459764374
14459770478
14459779206
14459785309
14459790741
14459796845
14459802094
14459808258
14459813324
14459817902
14459822662
14459832123
14459838226
14459843781
14459848602
14459854950
14459860199
14459866241
14459872772
14459878509
14459884491
14459890472
14459895660
14459902435
14459906341
14459910797
14459918304
14459923309
14459928192
14459935394
14459938812
14459943634
14459950287
14459956024
14459961517
14459967498
14459973053
14459978302
14459983917
14459988922
14459993927
14460000274
14460005523
14460011200
14460016632
14460022003
14460027923
14460032379
14460038787
14460044830
14460051177
14460056488
14460062164
14460067596
14460074188
14460078887
14460083770
14460090240
14460096588
14460101775
14460107086
14460112274
14460119842
14460127532
14460134368
14460142303
14460148040
14460154144
14460159942
14460167327
14460172454
14460178802
14460184051
14460189483
14460195464
14460200652
14460206451
14460213531
14460219756
14460225188
14460231658
14460239409
14460243499
14460250518
14460256804
14460261565
14460267913
14460274321
14460280303
14460286223
14460291167
14460297759
14460304717
14460310393
14460316619
14460322905
14460330657
14460338042
14460342986
14460350371
14460356047
14460363005
14460368987
14460374297
14460379424
14460384490
14460391753
14460398039
14460401396
14460407988
14460413847
14460419768
14460425383
14460430510
14460436003
14460441191
14460446379
14460452422
14460456938
14460464812
14460469572
14460475066
14460480986
14460486845
14460491606
14460496916
14460501677
14460507597
14460513884
14460519682
14460523955
14460530913
14460536284
14460541960
14460547270
14460553740
14460560209
14460564543
14460571623
14460579802
14460584440
14460590117
14460595732
14460599760
14460606169
14460612822
14460619230
14460624296
14460631315
14460637907
14460643095
14460650114
14460656217
14460661650
14460669157
14460675321
14460678617
14460684843
14460690153
14460697416
14460703520
14460708646
14460714750
14460722074
14460730192
14460735563
14460740690
14460745878
14460751554
14460756742
14460761808
14460767545
14460774198
14460779447
14460785917
14460791288
14460798978
14460803739
14460810026
14460817106
14460822965
14460829679
14460835294
14460840360
14460845853
14460850553
14460858182
14460863675
14460869108
14460874173
14460879361
14460884366
14460889981
14460897123
14460905790
14460915006
14460921781
14460928372
14460933499
14460939786
14460946378
14460953885
14460960050
14460965177
14460969998
14460975492
14460981412
14460987027
14460991849
14460999051
14461004422
14461009854
14461015592
14461022244
14461027432
14461032620
14461035306
14461043607
14461048734
14461053799
14461059537
14461064603
14461069302
14461073941
14461080228
14461085965
14461091702
14461096890
14461102627
14461107754
14461112027
14461117642
14461123807
14461130704
14461137723
14461143460
14461148282
14461153286
14461158352
14461164090
14461171597
14461176907
14461182644
14461189785
14461195523
14461200100
14461205777
14461211819
14461217617
14461224819
14461231533
14461238735
14461242459
14461249600
14461254666
14461260952
14461264553
14461273586
14461279202
14461284817
14461290188
14461295437
14461299954
14461305081
14461309902
14461318508
14461323208
14461328518
14461334133
14461339443
14461344387
14461349697
14461356228
14461361599
14461367641
14461372341
14461377529
14461383816
14461388515
14461394436
14461401089
14461406460
14461411892
14461417141
14461422268
14461426906
14461432155
14461439113
14461445339
14461452053
14461456752
14461464809
14461471950
14461476589
14461482692
14461489040
14461496975
14461502834
14461509731
14461515041
14461522609
14461527614
14461533412
14461540309
14461546169
14461551906
14461557460
14461562709
14461568324
14461574855
14461579189
14461585658
14461591457
14461596401
14461601344
14461608852
14461614772
14461617763
14461624171
14461630824
14461636012
14461640712
14461646022
14461651088
14461657741
14461663295
14461668300
14461675624
14461682155
14461688014
14461693996
14461699000
14461704127
14461710414
14461715419
14461720973
14461727687
14461733241
14461740382
14461743983
14461751857
14461758143
14461764003
14461769557
14461775050
14461784816
14461790126
14461795741
14461800685
14461805629
14461810755
14461816981
14461822291
14461829066
14461834864
14461841151
14461847560
14461852626
14461859767
14461864955
14461872157
14461877467
14461883997
14461889369
14461894801
14461900111
14461904994
14461910243
14461916224
14461921839
14461926722
14461931971
14461937220
14461942286
14461948023
14461953089
14461958582
14461966944
14461972620
14461978480
14461986414
14461991785
14461996912
14462002161
14462008387
14462015528
14462020655
14462025904
14462032740
14462038843
14462044642
14462051111
14462063562
14462068567
14462075586
14462082727
14462089869
14462097620
14462104578
14462110620
14462117701
14462124231
14462129908
14462134607
14462139246
14462143885
14462150171
14462155359
14462161768
14462168299
14462173242
14462178064
14462183862
14462189050
14462195459
14462201990
14462206812
14462211450
14462217554
14462222620
14462227075
14462232568
14462238977
14462243860
14462249719
14462255762
14462260461
14462267602
14462273096
14462278955
14462284265
14462290002
14462297265
14462303613
14462309289
14462314966
14462321802
14462327600
14462332483
14462337915
14462343347
14462350244
14462356469
14462362512
14462369043
14462374902
14462380395
14462386316
14462393701
14462400415
14462407006
14462412683
14462418786
14462426110
14462431481
14462436791
14462441796
14462448083
14462453210
14462457726
14462463891
14462468225
14462472619
14462477868
14462483422
14462488976
14462494286
14462501183
14462505761
14462510827
14462515466
14462520593
14462526208
14462531762
14462537560
14462544946
14462549645
14462555260
14462559838
14462564965
14462570641
14462578515
14462584679
14462590478
14462594384
14462599389
14462604882
14462610558
14462615258
14462621422
14462627892
14462633568
14462639489
14462646874
14462654809
14462661156
14462665917
14462675072
14462680870
14462687157
14462694176
14462699730
14462705284
14462711693
14462717308
14462722069
14462727318
14462732140
14462738060
14462744042
14462750511
14462755272
14462762047
14462767296
14462772850
14462778221
14462783653
14462789757
14462793541
14462799278
14462806358
14462813438
14462819359
14462825340
14462830284
14462835350
14462841026
14462846397
14462853294
14462858726
14462864769
14462871178
14462876305
14462881981
14462887596
14462894493
14462900047
14462906151
14462911094
14462918541
14462923485
14462929344
14462936851
14462940880
14462946251
14462952781
14462959312
14462965721
14462971580
14462976768
14462983970
14462990928
14462997154
14463002220
14463008384
14463014183
14463018577
14463024681
14463030540
14463035423
14463040550
14463043540
14463054038
14463060203
14463063743
14463069724
14463075034
14463078697
14463084617
14463090049
14463098228
14463105613
14463108970
14463115073
14463120872
14463127097
14463131309
14463138145
14463146140
14463152488
14463158347
14463163596
14463168662
14463175742
14463180625
14463186484
14463192161
14463199363
14463204978
14463208091
14463215598
14463219687
14463225608
14463231406
14463240745
14463246787
14463255271
14463260398
14463266074
14463272300
14463277182
14463282920
14463291098
14463299399
14463304831
14463311911
14463316611
14463323264
14463328086
14463336203
14463340476
14463346213
14463351279
14463356772
14463361777
14463367087
14463372885
14463378256
14463383383
14463390219
14463394919
14463400046
14463406088
14463411154
14463416159
14463422873
14463428671
14463433615
14463438193
14463444662
14463449179
14463454733
14463461935
14463466940
14463473471
14463478354
14463482931
14463488180
14463495077
14463500021
14463506003
14463513205
14463518454
14463523703
14463530356
14463535849
14463541403
14463546530
14463552755
14463560995
14463566366
14463571493
14463578390
14463583639
14463588522
14463595602
14463600546
14463608114
14463613241
14463619894
14463625387
14463630697
14463636251
14463641683
14463649435
14463654806
14463660360
14463665365
14463670797
14463675985
14463681417
14463687887
14463695516
14463701009
14463706930
14463712728
14463717184
14463722311
14463728292
14463735311
14463742086
14463747152
14463753744
14463759359
14463764303
14463769674
14463777181
14463785726
14463791463
14463798482
14463804891
14463814779
14463824178
14463831014
14463839925
14463848409
14463854268
14463859517
14463865316
14463870748
14463875997
14463881185
14463886007
14463890584
14463894857
14463900716
14463904866
14463911092
14463914754
14463921285
14463924886
14463931478
14463936666
14463942281
14463948445
14463954427
14463959798
14463964986
14463969075
14463974935
14463980489
14463985616
14463992329
14463998067
14464003255
14464008260
14464013448
14464018575
14464024068
14464029683
14464033833
14464040730
14464047383
14464052571
14464056905
14464062459
14464067464
14464072346
14464077473
14464084981
14464091878
14464096882
14464100789
14464109517
14464113972
14464120625
14464126179
14464133992
14464139851
14464145527
14464151265
14464158528
14464167378
14464173603
14464176777
14464185749
14464190632
14464199116
14464206379
14464212178
14464218281
14464224262
14464231037
14464238056
14464243061
14464249348
14464252766
14464260212
14464264301
14464271259
14464277241
14464285664
14464291584
14464296528
14464302326
14464309223
14464315327
14464320698
14464325764
14464334125
14464339497
14464345661
14464350178
14464356098
14464362080
14464369038
14464374897
14464378071
14464389118
14464396686
14464402668
14464406879
14464415119
14464420917
14464426716
14464432026
14464437824
14464443439
14464448505
14464453693
14464458149
14464462421
14464467487
14464472980
14464478412
14464483905
14464489887
14464495136
14464501667
14464508075
14464513080
14464518146
14464524005
14464529193
14464535114
14464540485
14464546466
14464551837
14464557941
14464564227
14464570331
14464575885
14464581378
14464586627
14464591876
14464596088
14464601337
14464608661
14464615741
14464621600
14464625446
14464632648
14464636859
14464642718
14464649799
14464655414
14464661639
14464667071
14464673968
14464679523
14464683551
14464689960
14464696857
14464701312
14464707416
14464713031
14464719684
14464724200
14464730060
14464736102
14464743609
14464749896
14464755938
14464762408
14464768573
14464774005
14464781207
14464785601
14464791705
14464795550
14464802691
14464809405
14464816058
14464820147
14464825518
14464832659
14464837603
14464843585
14464849200
14464857684
14464862933
14464869036
14464873919
14464878680
14464884356
14464889422
14464894793
14464899493
14464906939
14464912676
14464917315
14464922137
14464928057
14464933123
14464937823
14464941607
14464950884
14464957171
14464963885
14464969134
14464975786
14464982500
14464992022
14464999407
14465006365
14465011858
14465019915
14465027788
14465034014
14465040178
14465046465
14465052202
14465059404
14465066362
14465072710
14465077593
14465083269
14465089739
14465094194
14465100115
14465105608
14465110857
14465117021
14465121904
14465127580
14465133013
14465137346
14465143572
14465149797
14465155535
14465160845
14465165788
14465171709
14465178484
14465186235
14465190996
14465196062
14465201921
14465208757
14465214311
14465220232
14465225786
14465231279
14465238725
14465244768
14465249467
14465254900
14465261919
14465268632
14465272539
14465278825
14465285600
14465291154
14465295061
14465301164
14465308549
14465313859
14465319963
14465326249
14465332170
14465339494
14465345109
14465351457
14465356828
14465364763
14465370744
14465377458
14465384050
14465390336
14465395402
14465402604
14465407975
14465413529
14465419267
14465423783
14465429582
14465434770
14465441606
14465447343
14465452104
14465458207
14465463456
14465468583
14465476762
14465483354
14465489152
14465493913
14465499040
14465503739
14465508866
14465515153
14465520829
14465526078
14465531571
14465538712
14465542496
14465549271
14465554398
14465560441
14465567948
14465578385
14465585038
14465592240
14465598343
14465602982
14465611649
14465618485
14465626908
14465631608
14465638077
14465643937
14465648514
14465653275
14465660660
14465666520
14465671830
14465676590
14465681229
14465687760
14465692276
14465697098
14465703446
14465710587
14465715653
14465721878
14465727066
14465732193
14465738053
14465741348
14465748367
14465753189
14465758621
14465763931
14465770828
14465775711
14465781204
14465786209
14465792679
14465799393
14465804581
14465809708
14465814346
14465820328
14465825821
14465831619
14465837357
14465844742
14465849625
14465855179
14465861709
14465867935
14465874161
14465879410
14465884842
14465891372
14465897659
14465903702
14465908890
14465914871
14465921035
14465926712
14465932144
14465938614
14465944900
14465950821
14465956314
14465962173
14465967788
14465973648
14465981765
14465987258
14465992507
14465997451
14466003189
14466009597
14466014297
14466020217
14466028091
14466035842
14466040115
14466045669
14466051101
14466056899
14466062148
14466067581
14466073074
14466079849
14466085708
14466093276
14466099685
14466104079
14466109939
14466116958
14466123794
14466129775
14466135818
14466141372
14466148086
14466154494
14466161086
14466167068
14466173781
14466183181
14466189101
14466195144
14466200942
14466206130
14466211501
14466218093
14466224135
14466230300
14466235000
14466241774
14466247207
14466252150
14466257399
14466264540
14466269667
14466274062
14466279311
14466286574
14466291640
14466297438
14466303603
14466308425
14466317153
14466322341
14466327956
14466333327
14466339797
14466345351
14466350783
14466355605
14466361830
14466368239
14466374526
14466380751
14466384230
14466391249
14466396803
14466402907
14466409193
14466415907
14466419997
14466425429
14466432265
14466439833
14466445204
14466451002
14466457411
14466463087
14466468031
14466474074
14466481154
14466487074
14466491224
14466498305
14466503615
14466509657
14466515394
14466520949
14466526625
14466532972
14466538649
14466544325
14466551466
14466558607
14466564466
14466571547
14466576002
14466580702
14466585279
14466590589
14466597486
14466603651
14466609144
14466615187
14466620130
14466626417
14466631788
14466637159
14466643202
14466649793
14466655287
14466661512
14466665846
14466671217
14466676405
14466681165
14466688001
14466693861
14466699537
14466705579
14466710950
14466717359
14466722547
14466732618
14466739576
14466746107
14466751661
14466758985
14466765211
14466769361
14466777906
14466784864
14466792188
14466798169
14466804517
14466810071
14466815687
14466821241
14466827710
14466834668
14466840284
14466845899
14466850660
14466858777
14466863599
14466869947
14466876050
14466882886
14466889295
14466894849
14466900098
14466906324
14466910413
14466915052
14466922376
14466927869
14466932752
14466937940
14466943189
14466948438
14466953870
14466959119
14466965833
14466972302
14466978406
14466984021
14466989880
14466995435
14467000501
14467006055
14467011243
14467018933
14467024609
14467030408
14467036694
14467041699
14467048352
14467054516
14467060925
14467067578
14467074414
14467080090
14467086926
14467092541
14467097119
14467102307
14467107922
14467113598
14467121777
14467126294
14467131665
14467137036
14467143322
14467149243
14467155957
14467160962
14467167370
14467173046
14467179638
14467185376
14467190869
14467196057
14467201611
14467207897
14467214489
14467219616
14467227001
14467232372
14467238110
14467243664
14467249951
14467257641
14467282116
14467287304
14467292492
14467299145
14467304516
14467310375
14467315563
14467320263
14467328319
14467336437
14467342358
14467350231
14467357677
14467363109
14467370006
14467377270
14467383495
14467390636
14467396679
14467401073
14467407360
14467413097
14467419018
14467425121
14467430553
14467435924
14467442516
14467448558
14467453930
14467460277
14467465831
14467470775
14467476940
14467483104
14467488658
14467494091
14467500255
14467506725
14467512706
14467518627
14467524364
14467530101
14467535594
14467541881
14467548412
14467554332
14467561351
14467567943
14467572704
14467579051
14467585216
14467590892
14467596812
14467602123
14467607799
14467613048
14467619151
14467625804
14467631602
14467637157
14467644908
14467650279
14467655101
14467660594
14467665843
14467673839
14467678843
14467683970
14467690318
14467696788
14467703380
14467708690
14467713939
14467718577
14467723277
14467729380
14467736583
14467743846
14467750132
14467756236
14467762339
14467768748
14467774119
14467780101
14467786143
14467792491
14467797312
14467802989
14467809458
14467815684
14467820994
14467828013
14467833018
14467839243
14467844431
14467850718
14467856944
14467862925
14467869517
14467876658
14467882578
14467889964
14467895091
14467900156
14467907481
14467911692
14467919382
14467924448
14467931223
14467938608
14467945139
14467952830
14467958201
14467963938
14467968943
14467974436
14467983408
14467988047
14467995127
14467999766
14468005686
14468011667
14468016855
14468022043
14468027231
14468032969
14468038218
14468043161
14468049143
14468055063
14468060495
14468065195
14468071238
14468074961
14468081125
14468085337
14468090586
14468096689
14468103769
14468109995
14468115976
14468121164
14468126840
14468132944
14468138559
14468143747
14468149484
14468155710
14468163034
14468167856
14468174143
14468179697
14468185556
14468191660
14468197275
14468203012
14468207651
14468212534
14468220041
14468226205
14468231393
14468236581
14468242929
14468249582
14468254770
14468264718
14468270029
14468274057
14468281198
14468287851
14468293710
14468298532
14468306222
14468311715
14468318307
14468323800
14468329538
14468333688
14468338937
14468346383
14468351449
14468358407
14468363473
14468368234
14468372872
14468379281
14468384164
14468389840
14468396859
14468403451
14468409432
14468414742
14468421517
14468427255
14468432748
14468437997
14468442635
14468450692
14468456002
14468462411
14468469552
14468473641
14468479501
14468485116
14468491097
14468498666
14468505135
14468510934
14468516610
14468522286
14468528817
14468536019
14468539071
14468550728
14468556893
14468563058
14468569161
14468574410
14468582894
14468590523
14468595894
14468601571
14468606759
14468610543
14468617928
14468624398
14468627449
14468634591
