14245788970
14245796477
14245801848
14245806975
14245812224
14245817412
14245822905
14245828642
14245835112
14245840666
14245845122
14245851958
14245858611
14245866057
14245872588
14245879118
14245885832
14245893767
14245899809
14245906218
14245911955
14245917448
14245924589
14245932585
14245937956
14245944731
14245953093
14245959746
14245965422
14245972929
14245976103
14245984831
14245992643
14245997770
14246005339
14246013884
14246020170
14246027067
14246035368
14246043730
14246050444
14246056730
14246066801
14246075956
14246082365
14246089323
14246094816
14246102934
14246106657
14246114103
14246117460
14246125334
14246131986
14246136808
14246144193
14246150480
14246156034
14246162931
14246170255
14246176542
14246181425
14246186246
14246192655
14246198942
14246205656
14246209379
14246218412
14246224149
14246229703
14246235441
14246240018
14246247587
14246251859
14246256742
14246262296
14246267179
14246272428
14246275663
14246280423
14246285917
14246290860
14246294645
14246298856
14246303128
14246309354
14246311918
14246317777
14246322843
14246326871
14246333402
14246337125
14246341336
14246345365
14246351407
14246357450
14246361600
14246366483
14246371732
14246377408
14246381925
14246388639
14246393277
14246398465
14246404874
14246410855
14246417996
14246423428
14246428555
14246434110
14246438199
14246443204
14246449002
14246454678
14246460477
14246465909
14246470792
14246475735
14246480313
14246486783
14246492215
14246498013
14246504300
14246507291
14246515774
14246521207
14246525418
14246530484
14246535184
14246540127
14246544217
14246550137
14246555386
14246560574
14246565579
14246570035
14246574368
14246579617
14246583951
14246588345
14246592923
14246599148
14246603909
14246608242
14246613797
14246618496
14246623806
14246628384
14246633389
14246638516
14246645291
14246648403
14246654934
14246657620
14246663723
14246668362
14246673306
14246678433
14246683682
14246688809
14246694607
14246699917
14246704678
14246710659
14246716885
14246721951
14246726223
14246731655
14246736416
14246741055
14246745876
14246751003
14246757046
14246761990
14246765224
14246769863
14246775356
14246781582
14246786098
14246792019
14246796535
14246802151
14246807278
14246812954
14246816799
14246821560
14246826382
14246832912
14246838283
14246844570
14246846828
14246855251
14246860378
14246867031
14246873134
14246881069
14246887600
14246891140
14246898220
14246901638
14246907619
14246913845
14246917995
14246923427
14246928493
14246931911
14246938259
14246943813
14246950466
14246956813
14246964321
14246972255
14246978420
14246986659
14246991969
14246999599
14247005092
14247012843
14247018642
14247026820
14247035060
14247042445
14247048122
14247056117
14247064174
14247070155
14247076808
14247082484
14247089137
14247096400
14247102077
14247109645
14247115626
14247123134
14247128993
14247136806
14247140712
14247146266
14247150538
14247156032
14247161464
14247169276
14247173366
14247180324
14247184352
14247192469
14247196498
14247202601
14247211329
14247217189
14247223841
14247230555
14247236171
14247242823
14247248927
14247256007
14247263270
14247268519
14247274134
14247281397
14247286524
14247291163
14247298182
14247304774
14247310511
14247315333
14247320582
14247325343
14247330348
14247335047
14247340174
14247345179
14247350489
14247355128
14247360804
14247365443
14247370325
14247375147
14247382410
14247389613
14247395899
14247400843
14247407069
14247412928
14247419703
14247424708
14247430323
14247439722
14247445154
14247452418
14247456507
14247464258
14247470850
14247477869
14247484400
14247492151
14247497950
14247502344
14247508081
14247512720
14247516199
14247523706
14247528650
14247534021
14247539514
14247544458
14247551172
14247556299
14247562219
14247567957
14247571863
14247579676
14247583216
14247590112
14247593591
14247600000
14247603357
14247611231
14247615076
14247622766
14247626123
14247633264
14247637964
14247645776
14247649622
14247655725
14247661218
14247667444
14247672815
14247679285
14247684106
14247690271
14247696863
14247702600
14247709985
14247715478
14247721460
14247726770
14247733850
14247739770
14247745080
14247751428
14247758325
14247763696
14247769922
14247775049
14247781213
14247786889
14247793054
14247799463
14247805871
14247811120
14247817163
14247822595
14247827905
14247834008
14247840966
14247846032
14247853723
14247858605
14247864343
14247870935
14247873254
14247882348
14247889123
14247894555
14247898217
14247906579
14247910973
14247919518
14247923303
14247931664
14247935021
14247941796
14247946618
14247952966
14247958703
14247965356
14247971093
14247975304
14247981774
14247987817
14247993737
14248002038
14248008629
14248018334
14248026879
14248033593
14248041527
14248048668
14248055077
14248065026
14248071801
14248083458
14248092492
14248100487
14248107201
14248115929
14248122033
14248128807
14248138207
14248143578
14248154442
14248161034
14248169762
14248176964
14248184960
14248191551
14248198143
14248204308
14248211022
14248216271
14248222008
14248227135
14248234459
14248238121
14248246788
14248252708
14248258934
14248264000
14248270042
14248275047
14248281456
14248283226
14248292076
14248297935
14248304344
14248309532
14248315208
14248320701
14248325462
14248331199
14248338341
14248345115
14248351341
14248358543
14248364647
14248370872
14248375450
14248380394
14248386802
14248394432
14248399986
14248407493
14248410972
14248417503
14248422508
14248428367
14248435264
14248442222
14248447471
14248453392
14248459312
14248463829
14248467369
14248475608
14248483055
14248489097
14248494285
14248500266
14248502525
14248511375
14248513511
14248520774
14248529197
14248534385
14248540244
14248544883
14248551048
14248555137
14248562095
14248568870
14248575645
14248580955
14248587852
14248595481
14248600181
14248607078
14248609153
14248619651
14248626487
14248631370
14248638389
14248643455
14248649314
14248655112
14248659812
14248666404
14248671714
14248681235
14248686301
14248694785
14248702720
14248707724
14248714194
14248718467
14248724936
14248732505
14248737754
14248745200
14248748252
14248756186
14248759787
14248767539
14248772605
14248780722
14248784140
14248791648
14248794638
14248802084
14248805625
14248812766
14248819296
14248823569
14248829428
14248834799
14248837973
14248845663
14248851828
14248856406
14248862570
14248869223
14248873373
14248881125
14248885886
14248890585
14248897055
14248903219
14248908346
14248914145
14248918905
14248925436
14248929831
14248936056
14248942587
14248948691
14248953329
14248960470
14248966635
14248972494
14248977499
14248983542
14248989950
14248993856
14249000265
14249008932
14249013876
14249017233
14249024923
14249029928
14249036215
14249041586
14249047445
14249052999
14249060507
14249067221
14249076620
14249083273
14249090353
14249099447
14249105673
14249112081
14249121908
14249128866
14249137106
14249144918
14249152425
14249160665
14249168050
14249176656
14249185567
14249192342
14249196859
14249207479
14249212240
14249222738
14249227559
14249236715
14249244405
14249252767
14249259481
14249266866
14249272420
14249277303
14249282613
14249289632
14249296407
14249301961
14249306783
14249310750
14249314412
14249323384
14249329610
14249337484
14249344686
14249350484
14249357198
14249363668
14249367574
14249375569
14249379354
14249386861
14249390950
14249398091
14249401265
14249408345
14249413716
14249417745
14249422810
14249430135
14249436910
14249442647
14249446309
14249454732
14249460286
14249465413
14249470296
14249476338
14249481404
14249489155
14249495259
14249502034
14249506856
14249512959
14249517354
14249523884
14249530415
14249536519
14249543232
14249548970
14249555867
14249563191
14249568989
14249576374
14249581257
14249587361
14249592549
14249600239
14249605854
14249612812
14249619892
14249624836
14249630574
14249637654
14249642842
14249649922
14249653950
14249661762
14249667500
14249673054
14249680744
14249686665
14249691487
14249699116
14249704548
14249710285
14249716633
14249722797
14249729755
14249736469
14249741169
14249747517
14249751850
14249756977
14249762165
14249767536
14249775165
14249781879
14249788105
14249793903
14249800617
14249806476
14249813007
14249817524
14249822346
14249829548
14249836445
14249843158
14249845051
14249853351
14249857563
14249863666
14249869648
14249876117
14249881183
14249888874
14249892841
14249900714
14249906208
14249911762
14249916645
14249922382
14249928669
14249936786
14249943012
14249948627
14249954059
14249961749
14249969684
14249975116
14249983905
14249991229
14249996906
14250002948
14250007343
14250012897
14250018695
14250023639
14250029010
14250036273
14250042560
14250047382
14250053119
14250058490
14250062640
14250069049
14250073444
14250079852
14250085712
14250090106
14250096149
14250102069
14250107379
14250112079
14250118243
14250123553
14250130206
14250135089
14250140826
14250144549
14250153705
14250160174
14250167071
14250173846
14250184710
14250189837
14250201678
14250206927
14250219073
14250224505
14250236895
14250245440
14250253680
14250261553
14250270465
14250278460
14250287554
14250295550
14250304522
14250308001
14250320330
14250327410
14250336443
14250341509
14250352801
14250357928
14250366656
14250371966
14250377154
14250383135
14250389361
14250395037
14250400896
14250405901
14250413347
14250420428
14250425371
14250431475
14250436175
14250441912
14250446550
14250452654
14250458635
14250464678
14250467974
14250474932
14250480913
14250485064
14250490679
14250496721
14250501787
14250508806
14250514788
14250518999
14250524675
14250528887
14250534868
14250539568
14250545977
14250551348
14250557573
14250562273
14250568987
14250575273
14250581133
14250586687
14250595598
14250601274
14250609270
14250615190
14250622331
14250627275
14250633806
14250638689
14250646623
14250651201
14250657182
14250663225
14250668901
14250674333
14250679765
14250684221
14250691484
14250696306
14250702348
14250708452
14250713518
14250717790
14250723649
14250727922
14250735124
14250740068
14250746415
14250752275
14250757036
14250763383
14250767411
14250773698
14250780595
14250785417
14250788896
14250797197
14250803727
14250808244
14250813188
14250819352
14250825517
14250832536
14250838029
14250844010
14250848832
14250854386
14250860612
14250866715
14250871476
14250878068
14250882951
14250889115
14250895402
14250901566
14250905961
14250911515
14250917680
14250925553
14250930314
14250935563
14250941911
14250948380
14250953934
14250960404
14250965104
14250972489
14250977616
14250982865
14250988969
14250994340
14251001359
14251006302
14251011551
14251016923
14251023636
14251028946
14251035111
14251040299
14251046891
14251051285
14251058060
14251064713
14251072037
14251077835
14251082718
14251089005
14251094132
14251098526
14251104630
14251110733
14251116837
14251121720
14251128311
14251133377
14251140152
14251145706
14251150040
14251154068
14251161331
14251168350
14251175369
14251180130
14251184769
14251194534
14251199600
14251206436
14251215347
14251223709
14251230484
14251237686
14251243790
14251252212
14251256973
14251265945
14251274490
14251284073
14251288772
14251298904
14251304092
14251314346
14251320877
14251328628
14251335953
14251345779
14251353042
14251360489
14251366470
14251376175
14251382156
14251389602
14251398025
14251406570
14251413040
14251420913
14251425064
14251430618
14251436172
14251441604
14251446548
14251453750
14251459182
14251465530
14251470779
14251474868
14251479690
14251485671
14251492812
14251499160
14251502334
14251509719
14251515334
14251519790
14251525893
14251531265
14251538345
14251545119
14251550735
14251557082
14251562331
14251566482
14251573012
14251578689
14251583999
14251589492
14251596328
14251600966
14251607131
14251612441
14251617873
14251625380
14251630629
14251634963
14251642104
14251647658
14251653579
14251659743
14251664626
14251671157
14251677077
14251682448
14251688369
14251693984
14251698867
14251703505
14251710829
14251717299
14251722975
14251728469
14251732619
14251738051
14251744033
14251748427
14251754592
14251761122
14251766615
14251771010
14251777113
14251783705
14251789931
14251798110
14251806166
14251813307
14251820204
14251824782
14251831374
14251837782
14251843825
14251847914
14251856337
14251860792
14251866896
14251870924
14251876723
14251882704
14251886854
14251892836
14251898756
14251904188
14251907423
14251914076
14251919691
14251924330
14251929091
14251935988
14251941542
14251947584
14251952772
14251958021
14251961744
14251969130
14251974562
14251980970
14251987440
14251993055
14251997877
14252004652
14252009596
14252015638
14252021009
14252027113
14252032850
14252039015
14252043836
14252049757
14252056898
14252061903
14252067884
14252073560
14252079603
14252085706
14252090223
14252096143
14252102003
14252104017
14252113233
14252119337
14252123731
14252129896
14252137464
14252141004
14252148145
14252153150
14252158643
14252164930
14252170240
14252175916
14252183179
14252187879
14252194227
14252198926
14252206617
14252211316
14252217542
14252222364
14252229261
14252235486
14252240308
14252246595
14252251233
14252259046
14252267041
14252275647
14252284192
14252290662
14252295179
14252306165
14252310742
14252321607
14252329602
14252335645
14252343030
14252351331
14252357984
14252367261
14252374219
14252381665
14252390088
14252396130
14252402661
14252412610
14252422253
14252428845
14252438184
14252446362
14252452649
14252461011
14252466687
14252475049
14252483472
14252490857
14252498303
14252504590
14252509839
14252518323
14252524670
14252530835
14252537121
14252542553
14252545666
14252554638
14252558667
14252565136
14252572033
14252576306
14252582287
14252588452
14252593518
14252599499
14252605175
14252611584
14252617749
14252624279
14252629284
14252633862
14252640454
14252645886
14252651135
14252657421
14252663464
14252669567
14252675549
14252680126
14252686230
14252691418
14252697826
14252704968
14252708508
14252716076
14252722302
14252726635
14252732494
14252738659
14252746288
14252750988
14252757580
14252761730
14252768993
14252773571
14252778759
14252783764
14252791210
14252797069
14252803417
14252808422
14252814220
14252820263
14252825329
14252834057
14252839367
14252845287
14252850353
14252856640
14252861400
14252868541
14252875682
14252882030
14252886791
14252892833
14252899181
14252903636
14252910167
14252914623
14252922618
14252929454
14252935192
14252940196
14252946727
14252951732
14252957897
14252963085
14252972911
14252977184
14252984569
14252990856
14252998058
14253003490
14253010387
14253018138
14253025462
14253031566
14253037852
14253044749
14253051158
14253057140
14253062389
14253069713
14253075755
14253081431
14253085521
14253090953
14253096995
14253102183
14253106639
14253114634
14253119517
14253125560
14253130076
14253135325
14253139903
14253145701
14253151133
14253158152
14253163401
14253169444
14253172984
14253180674
14253186473
14253191966
14253197337
14253205577
14253211619
14253216380
14253221385
14253228404
14253233470
14253239329
14253245494
14253252390
14253257395
14253263865
14253268870
14253276743
14253281931
14253287852
14253293406
14253302500
14253310862
14253318797
14253323679
14253333018
14253339548
14253347300
14253359080
14253367441
14253374888
14253382883
14253387705
14253396555
14253401133
14253411875
14253421396
14253429880
14253436533
14253444529
14253453257
14253459482
14253467905
14253476084
14253481516
14253492685
14253497202
14253504404
14253509775
14253515573
14253521128
14253528452
14253535288
14253540903
14253548227
14253555429
14253560678
14253566660
14253571726
14253577402
14253583383
14253589792
14253594797
14253600961
14253605966
14253612863
14253619089
14253624643
14253632639
14253636911
14253643991
14253649118
14253656320
14253662241
14253667856
14253675424
14253681039
14253685190
14253690195
14253695016
14253699716
14253705453
14253712350
14253717050
14253720163
14253727609
14253732126
14253736764
14253741525
14253746530
14253751962
14253756051
14253765695
14253769967
14253779428
14253788339
14253796029
14253802499
14253811227
14253818124
14253824166
14253834420
14253843881
14253852303
14253858712
14253865365
14253873055
14253880258
14253887582
14253894601
14253904977
14253912911
14253920663
14253928292
14253936715
14253943368
14253951913
14253960213
14253969674
14253978768
14253985726
14253994820
14254003731
14254009896
14254018136
14254026742
14254034615
14254041512
14254053048
14254058297
14254068489
14254077645
14254085579
14254093514
14254103157
14254111092
14254117684
14254127083
14254133797
14254142952
14254151253
14254159310
14254168831
14254174812
14254183601
14254192207
14254202156
14254210274
14254218513
14254226814
14254232857
14254241829
14254250557
14254258491
14254265266
14254275581
14254283943
14254291633
14254299995
14254306587
14254315742
14254325508
14254333137
14254340950
14254354072
14254362434
14254371955
14254380195
14254390449
14254400215
14254407539
14254415290
14254424140
14254429817
14254440681
14254447273
14254456062
14254464424
14254472175
14254481208
14254490913
14254501167
14254510505
14254519843
14254526740
14254538581
14254547309
14254558234
14254566291
14254580085
14254591926
14254600287
14254608710
14254619941
14254630317
14254639106
14254649787
14254659491
14254667182
14254678595
14254686530
14254698981
14254709052
14254720160
14254731940
14254740363
14254750006
14254758246
14254766486
14254774054
14254781256
14254791632
14254800238
14254807990
14254816595
14254824347
14254833197
14254840521
14254851385
14254858099
14254865179
14254873419
14254880682
14254889349
14254897772
14254906988
14254913641
14254920965
14254929205
14254937018
14254946112
14254955389
14254960882
14254970831
14254976812
14254984991
14254993719
14255000921
14255009405
14255016546
14255026861
14255032781
14255042059
14255050298
14255058111
14255066900
14255075445
14255084234
14255090826
14255100042
14255110906
14255120672
14255129278
14255136907
14255140874
14255148443
14255151922
14255159673
14255164861
14255170171
14255175664
14255180120
14255185613
14255189641
14255194646
14255200017
14255204412
14255209173
14255213506
14255217595
14255224126
14255228032
14255233465
14255238286
14255243718
14255248784
14255253667
14255259038
14255263799
14255269475
14255273748
14255278997
14255283879
14255288579
14255294133
14255298284
14255303716
14255307744
14255312932
14255317510
14255323003
14255327153
14255334172
14255340642
14255346379
14255351628
14255356267
14255362065
14255367436
14255372746
14255375859
14255382695
14255388005
14255393132
14255397466
14255402592
14255408635
14255414250
14255421208
14255426823
14255432378
14255437749
14255442143
14255447331
14255452214
14255459477
14255462956
14255470524
14255473881
14255481572
14255485783
14255492009
14255497014
14255502507
14255508610
14255513737
14255519597
14255524357
14255529728
14255536503
14255542668
14255549382
14255555851
14255564396
14255571598
14255580021
14255587956
14255599980
14255607426
14255614506
14255622013
14255632450
14255640690
14255648441
14255657169
14255666996
14255672428
14255680302
14255687565
14255697514
14255704533
14255711735
14255718571
14255728580
14255733463
14255742802
14255749943
14255757145
14255764225
14255770389
14255777164
14255781742
14255785404
14255794132
14255799991
14255806644
14255812931
14255818668
14255825748
14255831058
14255837345
14255841922
14255847965
14255852909
14255859134
14255864322
14255871952
14255876590
14255882144
14255887271
14255894168
14255901126
14255906497
14255913272
14255919254
14255924381
14255930118
14255934940
14255940616
14255944278
14255951297
14255956546
14255965091
14255971317
14255976566
14255983157
14255989871
14255991946
14256000735
14256007816
14256012393
14256017581
14256023196
14256028201
14256033939
14256038699
14256043582
14256050601
14256057742
14256062747
14256069522
14256074405
14256081607
14256085757
14256093875
14256100772
14256105655
14256110293
14256115359
14256121097
14256125918
14256131900
14256137027
14256143740
14256147769
14256156253
14256162844
14256168704
14256175845
14256183169
14256189028
14256197207
14256204165
14256210269
14256214907
14256224124
14256228335
14256237979
14256244082
14256255618
14256261477
14256267397
14256274233
14256279604
14256285159
14256291445
14256297915
14256303347
14256310244
14256315310
14256320986
14256325686
14256330386
14256335146
14256340761
14256347353
14256352602
14256357424
14256362429
14256366457
14256373049
14256378420
14256385805
14256392214
14256396670
14256402773
14256408083
14256414736
14256421023
14256427126
14256433596
14256439516
14256445009
14256449953
14256456240
14256461061
14256467287
14256471804
14256477663
14256482607
14256486574
14256494326
14256499575
14256505983
14256512087
14256518007
14256523805
14256531801
14256537294
14256542970
14256549989
14256555605
14256560304
14256566713
14256572511
14256576296
14256585085
14256589479
14256597902
14256602174
14256611391
14256617189
14256624269
14256632997
14256639589
14256648256
14256654664
14256663515
14256671693
14256674501
14256687074
14256696046
14256702272
14256710817
14256717103
14256726747
14256733217
14256741517
14256748231
14256754701
14256762941
14256770570
14256777711
14256785462
14256792665
14256801759
14256810060
14256817445
14256822389
14256828492
14256833375
14256841493
14256848695
14256857728
14256864869
14256871949
14256876038
14256885011
14256891236
14256898560
14256904298
14256912354
14256916810
14256922791
14256928590
14256932740
14256938782
14256944825
14256949341
14256955750
14256960694
14256966797
14256972108
14256978089
14256982545
14256988221
14256993897
14256998902
14257003968
14257009766
14257014893
14257019349
14257029480
14257034119
14257041016
14257046814
14257051453
14257057129
14257063416
14257068970
14257075013
14257078492
14257086365
14257094116
14257100220
14257103760
14257111572
14257115174
14257122803
14257126282
14257134216
14257138855
14257146485
14257151550
14257157837
14257162781
14257169434
14257174561
14257179993
14257185486
14257192383
14257197388
14257204041
14257208923
14257214294
14257220825
14257226379
14257232849
14257238159
14257244385
14257249817
14257254394
14257261658
14257266540
14257272705
14257279236
14257284668
14257291443
14257296325
14257302795
14257308288
14257312744
14257320007
14257324951
14257331176
14257339233
14257343750
14257350158
14257355835
14257361938
14257366333
14257373046
14257377990
14257383117
14257389221
14257395019
14257400756
14257406433
14257410644
14257418823
14257424743
14257432372
14257437377
14257444457
14257452636
14257458740
14257466796
14257474242
14257480407
14257486144
14257489989
14257497253
14257502563
14257507934
14257512389
14257520080
14257523254
14257530822
14257537047
14257543822
14257550292
14257556090
14257561889
14257566100
14257572997
14257577331
14257582702
14257588256
14257593749
14257599364
14257605895
14257610900
14257616820
14257621215
14257628478
14257633300
14257638793
14257645812
14257651610
14257656554
14257663268
14257670226
14257677550
14257681884
14257691222
14257699950
14257708129
14257712889
14257722533
14257727110
14257738646
14257743712
14257753050
14257762022
14257771422
14257776244
14257786314
14257793944
14257801878
14257806517
14257817320
14257826048
14257832518
14257837096
14257848936
14257853697
14257863035
14257866453
14257873961
14257880919
14257887755
14257893126
14257899717
14257905089
14257910765
14257917173
14257924009
14257930906
14257936583
14257942015
14257947935
14257954039
14257958921
14257963865
14257971128
14257976255
14257981993
14257986509
14257993589
14258000120
14258005796
14258012632
14258019041
14258023191
14258029173
14258034055
14258040525
14258046690
14258053587
14258062620
14258067503
14258075254
14258080625
14258087705
14258094114
14258101011
14258109312
14258114378
14258119382
14258124326
14258129026
14258133909
14258139280
14258143613
14258150510
14258157102
14258162595
14258166807
14258174131
14258178647
14258184080
14258188413
14258196164
14258201047
14258205808
14258211606
14258216733
14258221372
14258228025
14258233701
14258240293
14258246640
14258252500
14258257444
14258262815
14258267575
14258273984
14258281430
14258285825
14258291440
14258296811
14258303037
14258307187
14258313169
14258320676
14258327512
14258332517
14258337705
14258342221
14258348691
14258353818
14258359799
14258366574
14258372250
14258377744
14258384396
14258389401
14258394772
14258401303
14258406674
14258412411
14258420590
14258430112
14258449338
14258459958
14258469052
14258477536
14258486264
14258491513
14258496518
14258501156
14258506833
14258512387
14258518368
14258524411
14258530514
14258536984
14258542355
14258548275
14258554806
14258560665
14258565731
14258571591
14258576718
14258581539
14258587277
14258591427
14258597286
14258602841
14258609127
14258611019
14258621090
14258628170
14258632748
14258636044
14258645931
14258653500
14258657955
14258664303
14258669857
14258678646
14258688168
14258694088
14258699520
14258703304
14258708675
14258716427
14258725399
14258731502
14258738094
14258744015
14258751888
14258755855
14258763912
14258771969
14258778316
14258785091
14258792354
14258798763
14258805843
14258812862
14258820003
14258826290
14258831478
14258839290
14258846126
14258853633
14258862178
14258869808
14258878231
14258885494
14258891597
14258900569
14258905025
14258911434
14258915767
14258921138
14258928035
14258934078
14258938533
14258944331
14258949519
14258953365
14258957759
14258963191
14258967281
14258976070
14258979610
14258987971
14258993648
14258999812
14259004329
14259011104
14259017329
14259022945
14259028926
14259035152
14259042110
14259047114
14259053035
14259060481
14259066829
14259072017
14259076777
14259082026
14259088679
14259092341
14259098689
14259104365
14259110835
14259114497
14259122798
14259128291
14259132808
14259136409
14259143916
14259147883
14259155329
14259161494
14259166072
14259172053
14259177058
14259183100
14259188227
14259195979
14259201411
14259208369
14259213191
14259219966
14259226985
14259233088
14259238337
14259246027
14259254939
14259263483
14259269770
14259275141
14259279108
14259287714
14259294611
14259299799
14259306879
14259311884
14259315485
14259323115
14259326594
14259334223
14259339777
14259344111
14259350031
14259354304
14259357660
14259365229
14259368769
14259376581
14259383234
14259389460
14259391352
14259401178
14259404718
14259410822
14259416803
14259421686
14259425715
14259434870
14259439447
14259445856
14259450922
14259456903
14259463251
14259468744
14259475580
14259481012
14259487665
14259492609
14259497248
14259504389
14259510187
14259515558
14259521906
14259530023
14259534784
14259540094
14259546442
14259548456
14259559198
14259563104
14259570062
14259574030
14259581171
14259587091
14259593439
14259599847
14259606073
14259611261
14259620538
14259626398
14259635309
14259640375
14259647760
14259651971
14259659540
14259665399
14259670160
14259675409
14259682367
14259687982
14259694207
14259699151
14259705072
14259709771
14259716913
14259722528
14259728692
14259735101
14259741693
14259748101
14259753900
14259761529
14259769342
14259777520
14259785516
14259791863
14259800530
14259808221
14259817132
14259822930
14259832147
14259839471
14259849481
14259856133
14259863274
14259873101
14259880791
14259887749
14259897515
14259906670
14259918999
14259927056
14259935174
14259941643
14259948907
14259957390
14259962273
14259968560
14259973076
14259979485
14259984246
14259990532
14259996026
14260001824
14260008049
14260017022
14260021843
14260027459
14260032463
14260038872
14260043450
14260049858
14260054741
14260061516
14260066338
14260072197
14260078667
14260084709
14260089226
14260092705
14260101738
14260108513
14260115166
14260119621
14260126274
14260130364
14260137383
14260143059
14260148369
14260154045
14260161614
14260165337
14260171989
14260177666
14260184624
14260189507
14260195000
14260200493
14260208427
14260215446
14260221550
14260226189
14260231071
14260237602
14260243767
14260248161
14260257194
14260261955
14260267814
14260274345
14260277885
14260286979
14260290825
14260299064
14260303337
14260312187
14260318657
14260324333
14260330619
14260336845
14260342399
14260349296
14260355827
14260360099
14260366142
14260372428
14260377616
14260383415
14260386955
14260393241
14260401237
14260406059
14260412162
14260418449
14260421867
14260431510
14260437858
14260445060
14260453666
14260461540
14260466117
14260472038
14260475394
14260483268
14260486686
14260494498
14260501212
14260509879
14260516349
14260522513
14260524772
14260533683
14260541007
14260548820
14260554374
14260559684
14260563651
14260569266
14260575675
14260580375
14260585380
14260592582
14260599662
14260604056
14260610160
14260615775
14260620169
14260626517
14260631461
14260636710
14260643546
14260647086
14260653067
14260658560
14260663382
14260670462
14260675772
14260680960
14260686820
14260691702
14260695914
14260701468
14260706839
14260712821
14260719595
14260725760
14260731131
14260736319
14260740530
14260746512
14260754324
14260760001
14260766165
14260771536
14260777090
14260781668
14260788382
14260796255
14260802786
14260810538
14260817068
14260823416
14260831717
14260838186
14260846060
14260853811
14260863150
14260870901
14260878714
14260887442
14260893850
14260902762
14260907705
14260917837
14260926199
14260933584
14260939932
14260947805
14260955374
14260964529
14260973562
14260980398
14260990774
14260998464
14261004934
14261009939
14261016226
14261021475
14261028616
14261033132
14261039541
14261044912
14261050100
14261054128
14261060354
14261064993
14261072073
14261077749
14261084219
14261089834
14261096181
14261100454
14261106802
14261115591
14261121816
14261127737
14261136831
14261143117
14261149160
14261152395
14261162038
14261168020
14261173635
14261175710
14261184011
14261186025
14261193654
14261197011
14261204641
14261210683
14261214956
14261220571
14261225209
14261231008
14261237661
14261242910
14261248769
14261253652
14261259694
14261264333
14261269765
14261275624
14261282094
14261286550
14261293691
14261299550
14261305226
14261310048
14261317311
14261322194
14261329152
14261335011
14261340688
14261347401
14261350148
14261358388
14261362782
14261370717
14261377126
14261384389
14261388295
14261394826
14261401234
14261407887
14261413563
14261419728
14261425404
14261432728
14261437794
14261443715
14261448781
14261455189
14261461232
14261467396
14261472462
14261476735
14261482533
14261489247
14261496022
14261501759
14261506947
14261512074
14261517079
14261524952
14261533070
14261538197
14261544300
14261551380
14261556935
14261562977
14261569691
14261575428
14261581532
14261587635
14261593556
14261599232
14261606800
14261612538
14261619373
14261624989
14261630543
14261637745
14261644642
14261651173
14261655933
14261661915
14261668201
14261673939
14261681019
14261692554
14261698658
14261707569
14261713795
14261720447
14261726002
14261731434
14261737476
14261745594
14261750538
14261756824
14261761707
14261766468
14261770923
14261777637
14261784839
14261791126
14261796497
14261801868
14261806873
14261814624
14261819873
14261826160
14261830860
14261838794
14261843555
14261849720
14261854114
14261860095
14261864429
14261870960
14261879383
14261886402
14261892688
14261900562
14261909046
14261916431
14261923023
14261932056
14261939563
14261948535
14261955249
14261965564
14261973132
14261981433
14261988452
14261997302
14262005359
14262015307
14262022082
14262032031
14262040637
14262047534
14262057361
14262064258
14262073840
14262079516
14262085376
14262088855
14262096179
14262099963
14262107898
14262113147
14262118213
14262123339
14262128039
14262133288
14262138110
14262143969
14262151355
14262158374
14262163806
14262169055
14262176867
14262183764
14262189440
14262196398
14262202075
14262209460
14262213549
14262220812
14262226122
14262233141
14262238635
14262244860
14262251574
14262257067
14262262499
14262269457
14262274035
14262279345
14262285143
14262293749
14262298266
14262304003
14262310778
14262318041
14262324572
14262331957
14262340624
14262346544
14262352587
14262360521
14262367724
14262373949
14262380602
14262386034
14262392382
14262397814
14262403917
14262409044
14262414110
14262420031
14262426683
14262432482
14262437731
14262442675
14262449999
14262454149
14262462145
14262466417
14262473192
14262479051
14262484484
14262490526
14262495165
14262500719
14262504869
14262510484
14262517442
14262521898
14262528551
14262534349
14262539781
14262545702
14262550340
14262556932
14262562852
14262571092
14262575853
14262582445
14262587083
14262590807
14262599718
14262603502
14262611009
14262615221
14262622545
14262626329
14262632799
14262638353
14262645006
14262650865
14262655382
14262664720
14262670152
14262673570
14262682664
14262686326
14262694566
14262702440
14262707994
14262714647
14262721238
14262727342
14262733140
14262739061
14262745103
14262750535
14262755845
14262763413
14262769029
14262776414
14262782273
14262791184
14262797532
14262805161
14262811509
14262817246
14262824693
14262831468
14262836717
14262845567
14262852097
14262858262
14262865647
14262878098
14262885056
14262892747
14262900193
14262906052
14262917344
14262926682
14262934861
14262940903
14262952866
14262962082
14262969346
14262982773
14262993943
14263005906
14263015122
14263028366
14263038071
14263052414
14263062058
14263066147
14263083481
14263090256
14263101669
14263110703
14263119675
14263128159
14263139206
14263146835
14263154648
14263161850
14263171371
14263178513
14263189316
14263196274
14263206222
14263210983
14263221359
14263229172
14263234543
14263240036
14263246689
14263253402
14263259445
14263265304
14263273117
14263278854
14263286178
14263291916
14263298202
14263305404
14263311325
14263316269
14263323654
14263328659
14263335678
14263342147
14263348251
14263353317
14263357894
14263366989
14263373702
14263378890
14263382675
14263391464
14263395370
14263403365
14263409042
14263416244
14263422225
14263429549
14263435653
14263441756
14263447372
14263455428
14263460433
14263467147
14263473678
14263478744
14263485702
14263491256
14263497726
14263501693
14263509933
14263517135
14263521956
14263527450
14263533919
14263542159
14263547896
14263553878
14263560653
14263571761
14263578109
14263583053
14263589766
14263596236
14263602645
14263609114
14263615340
14263620955
14263627913
14263634627
14263640547
14263645125
14263651839
14263657881
14263663497
14263668135
14263675643
14263680220
14263686629
14263692549
14263699873
14263704878
14263711104
14263720992
14263729964
14263734358
14263742598
14263748824
14263755049
14263759810
14263765242
14263770247
14263776350
14263781660
14263787886
14263792891
14263799177
14263804182
14263811079
14263816206
14263824019
14263829390
14263836714
14263841719
14263847639
14263854048
14263858748
14263864607
14263869673
14263875715
14263882551
14263887739
14263893965
14263900007
14263905439
14263911360
14263917341
14263924543
14263930281
14263936689
14263938948
14263948042
14263952009
14263960920
14263966413
14263973554
14263978987
14263985517
14263992597
14263997846
14264002729
14264009992
14264015424
14264023542
14264028547
14264034712
14264042036
14264047102
14264054426
14264058454
14264066755
14264073347
14264078352
14264084272
14264092206
14264097455
14264103559
14264109540
14264116620
14264122236
14264128522
14264133527
14264139753
14264146833
14264152082
14264158613
14264164533
14264172712
14264178571
14264190717
14264199445
14264208112
14264216535
14264225202
14264233441
14264242292
14264250226
14264258710
14264268415
14264274579
14264282697
14264291486
14264298444
14264307782
14264316632
14264324017
14264332745
14264339825
14264349469
14264356854
14264365399
14264377606
14264385724
14264391705
14264398480
14264405316
14264413434
14264419415
14264426556
14264432416
14264439190
14264444745
14264450848
14264456280
14264461773
14264468426
14264474102
14264478741
14264485089
14264490460
14264496624
14264501202
14264508282
14264512677
14264519268
14264525677
14264531353
14264537884
14264543072
14264548870
14264555157
14264559674
14264565594
14264572369
14264578594
14264584515
14264588177
14264599713
14264606121
14264610577
14264617657
14264623577
14264629070
14264634808
14264639446
14264645794
14264649395
14264659161
14264662884
14264670452
14264676678
14264682842
14264688763
14264695904
14264701275
14264708050
14264713421
14264720135
14264725261
14264730938
14264738018
14264743572
14264750042
14264755352
14264762493
14264769390
14264775860
14264782146
14264788494
14264793865
14264800823
14264805034
14264813823
14264819988
14264825176
14264830730
14264837200
14264844402
14264850505
14264855998
14264861797
14264866741
14264873577
14264878642
14264885417
14264890972
14264896770
14264903240
14264909099
14264914775
14264921367
14264926860
14264931926
14264939189
14264943095
14264949992
14264955852
14264961650
14264968364
14264972942
14264978068
14264983989
14264988811
14264997356
14265003764
14265010600
14265018168
14265024821
14265031474
14265040385
14265049296
14265057170
14265063273
14265073771
14265079142
14265084269
14265090129
14265094340
14265100627
14265104777
14265111186
14265114848
14265121684
14265128581
14265134379
14265139384
14265145304
14265150431
14265156474
14265160258
14265166606
14265171122
14265177897
14265181742
14265189005
14265195414
14265201334
14265206950
14265213419
14265219035
14265224467
14265230753
14265235697
14265243937
14265249369
14265255839
14265263712
14265269266
14265273966
14265278971
14265286478
14265293009
14265299296
14265309305
14265314310
14265323954
14265328348
14265338358
14265343363
14265354593
14265362467
14265371073
14265379129
14265387491
14265395243
14265403543
14265411600
14265417948
14265427774
14265434366
14265446390
14265454019
14265462015
14265467508
14265478617
14265486551
14265491434
14265496256
14265505594
14265511453
14265517801
14265522134
14265528238
14265533914
14265539590
14265545084
14265552286
14265557291
14265562784
14265569315
14265574747
14265582437
14265587869
14265595682
14265599649
14265607217
14265610940
14265617166
14265622598
14265629800
14265634622
14265646585
14265651956
14265657876
14265665445
14265671914
14265676980
14265684182
14265692666
14265699014
14265705239
14265711038
14265716470
14265721841
14265726785
14265732949
14265738992
14265743814
14265750527
14265755471
14265761819
14265767007
14265773843
14265779702
14265784951
14265791238
14265796609
14265801064
14265807839
14265812722
14265820046
14265824807
14265831521
14265836037
14265839639
14265847817
14265853005
14265858926
14265863076
14265869607
14265876076
14265881936
14265886513
14265893655
14265897133
14265904397
14265909951
14265916237
14265922280
14265929360
14265934792
14265941323
14265948159
14265954628
14265959511
14265966530
14265971962
14265979287
14265984353
14265988198
14265997963
14266002724
14266009499
14266015725
14266021096
14266027077
14266035134
14266041176
14266049233
14266052956
14266060768
14266066261
14266073525
14266079445
14266087074
14266092812
14266098183
14266105263
14266110878
14266117653
14266122536
14266130165
14266139259
14266144691
14266153175
14266157570
14266165871
14266169350
14266176063
14266182716
14266190163
14266193825
14266200416
14266206093
14266211220
14266215980
14266222938
14266229164
14266234901
14266238380
14266245521
14266248878
14266256813
14266262672
14266268837
14266275612
14266283302
14266291786
14266297035
14266302040
14266308631
14266314064
14266318824
14266324867
14266328041
14266334938
14266338111
14266344520
14266349220
14266354408
14266360389
14266368080
14266376075
14266383460
14266390968
14266396278
14266403968
14266412696
14266419471
14266427833
14266435157
14266441505
14266451392
14266457679
14266466041
14266473914
14266480506
14266488563
14266496985
14266505042
14266512366
14266520057
14266522742
14266533729
14266541663
14266549415
14266556495
14266562659
14266567725
14266573523
14266579688
14266586219
14266588294
14266596900
14266602210
14266607215
14266611548
14266618689
14266622412
14266627783
14266635718
14266639868
14266644873
14266651343
14266656287
14266665869
14266672522
14266677954
14266685584
14266691565
14266696265
14266700964
14266707312
14266712195
14266718420
14266724707
14266729712
14266733984
14266738867
14266742773
14266749487
14266751135
14266757971
14266764197
14266769446
14266773901
14266779211
14266784216
14266790015
14266795141
14266799170
14266806738
14266812475
14266815527
14266822729
14266825781
14266833288
14266836523
14266843359
14266849096
14266857397
14266863806
14266869665
14266876196
14266882422
14266887976
14266893713
14266900549
14266906042
14266912146
14266916967
14266922216
14266925268
14266932348
14266936865
14266945104
14266950476
14266956213
14266961584
14266966100
14266971594
14266977514
14266983862
14266988317
14266992895
14266998449
14267003210
14267009008
14267014501
14267021154
14267027624
14267031225
14267039404
14267042944
14267049779
14267053075
14267060766
14267065771
14267073949
14267079137
14267085058
14267091039
14267095861
14267099523
14267107397
14267115209
14267120214
14267125829
14267131811
14267137426
14267141820
14267148900
14267153600
14267162328
14267166967
14267173009
14267179113
14267184118
14267189855
14267195653
14267200780
14267208043
14267213170
14267219457
14267225926
14267231420
14267237340
14267242711
14267247838
14267255895
14267260777
14267264134
14267272313
14267275792
14267283482
14267287084
14267293797
14267299291
14267306981
14267313023
14267317601
14267322545
14267328587
14267335118
14267339513
14267347325
14267352757
14267357701
14267364964
14267369908
14267376744
14267381077
14267387059
14267394078
14267400914
14267406102
14267411229
14267417149
14267422337
14267430150
14267438267
14267443516
14267453038
14267458592
14267464146
14267470189
14267475560
14267482518
14267487217
14267491612
14267498936
14267503941
14267508457
14267514134
14267518956
14267524449
14267530064
14267534642
14267540379
14267546299
14267550877
14267557041
14267562779
14267568455
14267573582
14267578037
14267585056
14267589451
14267595615
14267599766
14267605625
14267610996
14267615513
14267621128
14267627293
14267632847
14267637547
14267643467
14267648716
14267655247
14267658665
14267665623
14267675083
14267681858
14267686680
14267692600
14267696262
14267703403
14267708530
14267714512
14267719761
14267726963
14267730930
14267736912
14267743320
14267748752
14267753757
14267759617
14267764438
14267771579
14267776767
14267782505
14267788974
14267793613
14267799533
14267803134
14267810825
14267817661
14267823947
14267829318
14267834323
14267840366
14267846530
14267850070
14267856967
14267863437
14267868625
14267873508
14267879367
14267884494
14267890842
14267897250
14267902194
14267907199
14267914890
14267920261
14267926181
14267931125
14267937961
14267942355
14267948032
14267954196
14267961093
14267967685
14267973605
14267978610
14267985812
14267992465
14267996127
14268006747
14268013827
14268021396
14268025912
14268033786
14268039279
14268046847
14268054599
14268063022
14268069369
14268075595
14268082125
14268088290
14268092562
14268097811
14268102328
14268109591
14268114047
14268120150
14268125582
14268130221
14268136935
14268141146
14268146639
14268152804
14268157809
14268162203
14268169283
14268173434
14268178683
14268184603
14268190768
14268195773
14268202181
14268207797
14268212191
14268217867
14268224703
14268229159
14268234896
14268239046
14268245272
14268250704
14268256197
14268262118
14268267916
14268272494
14268278109
14268283724
14268290316
14268295138
14268298678
14268306368
14268312472
14268317354
14268322176
14268329256
14268335482
14268341951
14268347200
14268353060
14268358126
14268364595
14268370211
14268375643
14268382051
14268388521
14268394197
14268398897
14268406038
14268411287
14268416048
14268421724
14268427950
14268434419
14268440645
14268444979
14268450899
14268454561
14268461580
14268465425
14268473238
14268479463
14268486055
14268491792
14268496370
14268501375
14268508455
14268513887
14268519014
14268524141
14268532442
14268537813
14268542818
14268547578
14268554903
14268559846
14268566499
14268571748
14268578645
14268584749
14268589815
14268595552
14268601228
14268608674
14268615816
14268622468
14268631685
14268637483
14268644258
14268652009
14268656282
14268663362
14268669343
14268675874
14268681794
14268690461
14268697480
14268706941
14268713533
14268719270
14268724641
14268729463
14268734223
14268739289
14268744843
14268749299
14268754792
14268760041
14268765962
14268770661
14268774873
14268779756
14268784211
14268788056
14268792939
14268798310
14268803132
14268806062
14268812836
14268818513
14268822480
14268825288
14268833161
14268839875
14268845185
14268850129
14268855073
14268860322
14268864045
14268869477
14268873505
14268880524
14268885102
14268890046
14268895173
14268899567
14268903412
14268909516
14268914582
14268921906
14268928193
14268934296
14268939423
14268945527
14268949616
14268954621
14268961029
14268965973
14268970124
14268975678
14268981598
14268987152
14268992646
14268997895
14269003937
14269009369
14269013459
14269019013
14269024384
14269027680
14269034882
14269040619
14269045746
14269052338
14269058136
14269061493
14269068390
14269071625
14269079193
14269084564
14269089142
14269096100
14269100739
14269105316
14269112213
14269117218
14269124786
14269130829
14269134369
14269142914
14269150909
14269156830
14269165314
14269170257
14269177032
14269183990
14269190033
14269197052
14269202789
14269208282
14269213959
14269218658
14269221771
14269230194
14269235382
14269239715
14269245147
14269251007
14269255645
14269262054
14269266693
14269272064
14269276764
14269282867
14269288055
14269294281
14269298980
14269304657
14269309234
14269314849
14269319549
14269325286
14269331451
14269337799
14269343231
14269348907
14269354339
14269359466
14269363921
14269367584
14269376312
14269380767
14269387725
14269391387
14269398956
14269405120
14269410003
14269414947
14269420440
14269425750
14269432586
14269438934
14269443816
14269449676
14269451568
14269460662
14269465423
14269472869
14269481475
14269486297
14269492827
14269497161
14269503142
14269507781
14269513091
14269519072
14269525725
14269531890
14269537017
14269542937
14269548919
14269555755
14269561614
14269567839
14269573394
14269580657
14269588591
14269594146
14269598601
14269605437
14269610320
14269616973
14269622954
14269628874
14269635405
14269639983
14269645415
14269651091
14269655303
14269658293
14269666838
14269672392
14269680998
14269686064
14269691863
14269697783
14269701689
14269704985
14269713042
14269717924
14269725920
14269731718
14269736723
14269740019
14269752714
14269758086
14269763823
14269773283
14269780058
14269785368
14269794035
14269799223
14269808073
14269812102
14269819426
14269825712
14269830107
14269837126
14269842680
14269850615
14269855375
14269860197
14269865019
14269870695
14269876554
14269882780
14269888029
14269895231
14269901396
14269907377
14269912138
14269918913
14269923124
14269927702
14269933683
14269937834
14269944364
14269950163
14269954984
14269959989
14269964201
14269968534
14269974271
14269979154
14269983854
14269991056
14269996977
14270001188
14270007414
14270011869
14270018827
14270023954
14270028715
14270034452
14270039152
14270045255
14270050382
14270055570
14270060941
14270066129
14270072660
14270078885
14270084806
14270089811
14270096219
14270102262
14270106473
14270111722
14270118314
14270125211
14270130460
14270137845
14270143216
14270149503
14270156644
14270161954
14270168363
14270175321
14270181363
14270186795
14270191495
14270198026
14270203336
14270209867
14270214933
14270221585
14270227750
14270233609
14270239163
14270243009
14270251187
14270257474
14270263455
14270270474
14270276456
14270282498
14270288663
14270293362
14270299710
14270304776
14270310635
14270318021
14270323514
14270331082
14270337064
14270342862
14270349454
14270353787
14270363187
14270370328
14270376797
14270382168
14270388211
14270392666
14270397183
14270402066
14270406399
14270414151
14270419156
14270424649
14270430691
14270435147
14270439114
14270444851
14270449490
14270454983
14270461270
14270466275
14270470120
14270475613
14270479458
14270485562
14270491482
14270497952
14270503323
14270509976
14270514858
14270520596
14270525234
14270530422
14270539028
14270544522
14270549343
14270555691
14270560391
14270565884
14270571926
14270576016
14270581143
14270588528
14270593288
14270600002
14270604946
14270610317
14270616970
14270623135
14270628323
14270636806
14270642727
14270648037
14270654934
14270660732
14270665066
14270670681
14270675381
14270682766
14270687832
14270693935
14270700344
14270705044
14270710903
14270715236
14270721523
14270729763
14270735622
14270739772
14270746425
14270749904
14270756923
14270761867
14270768947
14270774746
14270781093
14270786281
14270790798
14270797145
14270802577
14270807582
14270813564
14270819911
14270826930
14270833278
14270838100
14270844570
14270849880
14270856838
14270860744
14270867458
14270874294
14270881618
14270885219
14270892604
14270898036
14270903712
14270909328
14270916896
14270923549
14270931544
14270940395
14270947475
14270953273
14270963588
14270967860
14270976649
14270984218
14270989833
14270991664
14270999232
14271002528
14271009486
14271012843
14271020656
14271024562
14271032557
14271035792
14271043849
14271047511
14271054957
14271059779
14271066859
14271073329
14271079554
14271084620
14271090663
14271097438
14271103358
14271105982
14271114588
14271120997
14271126307
14271128260
14271136805
14271139918
14271146876
14271150172
14271157313
14271161097
14271169093
14271174403
14271180079
14271184535
14271189967
14271194483
14271200831
14271206141
14271210780
14271215296
14271222926
14271227808
14271233790
14271238245
14271244349
14271250941
14271256922
14271261378
14271267603
14271272364
14271278467
14271284327
14271288904
14271295374
14271301356
14271308008
14271313501
14271319300
14271324305
14271330042
14271334559
14271340418
14271345667
14271352747
14271359339
14271361231
14271370508
14271376184
14271380701
14271387171
14271393640
14271402124
14271407068
14271410852
14271418299
14271423303
14271430261
14271435694
14271441736
14271447107
14271453211
14271458948
14271464868
14271469934
14271474878
14271480005
14271486292
14271493494
14271499841
14271505090
14271513513
14271519983
14271526208
14271531518
14271537195
14271543725
14271549951
14271556604
14271561365
14271567590
14271573388
14271579126
14271584924
14271589502
14271595117
14271601281
14271606592
14271610681
14271616113
14271621423
14271624902
14271632531
14271636316
14271644006
14271650293
14271654382
14271659448
14271664392
14271668969
14271675500
14271681359
14271687585
14271690881
14271698449
14271701867
14271708642
14271714257
14271720239
14271727014
14271733911
14271739282
14271745202
14271749536
14271755761
14271762780
14271767846
14271774682
14271780236
14271784753
14271790002
14271796532
14271801659
14271808129
14271812524
14271818749
14271826195
14271830895
14271836571
14271842187
14271847558
14271854394
14271859276
14271864953
14271870751
14271877953
14271883324
14271889977
14271896020
14271901879
14271907555
14271914330
14271919335
14271925927
14271931786
14271938317
14271943810
14271949669
14271956444
14271962609
14271968834
14271974572
14271981407
14271986229
14271991417
14271998619
14272003685
14272009667
14272018090
14272024132
14272029015
14272036400
14272041222
14272047447
14272052757
14272057274
14272065209
14272071068
14272076866
14272083031
14272089989
14272095055
14272099815
14272107628
14272115379
14272123009
14272129051
14272136925
14272142052
14272149071
14272153343
14272159019
14272164207
14272172020
14272177208
14272182335
14272187156
14272193260
14272197899
14272203819
14272208763
14272215294
14272218773
14272226097
14272229393
14272236045
14272242027
14272247947
14272255210
14272260887
14272266258
14272271446
14272277732
14272283592
14272288536
14272293174
14272301719
14272306785
14272313621
14272318015
14272323081
14272329673
14272335105
14272342552
14272348533
14272354881
14272360191
14272365684
14272370872
14272376792
14272383567
14272388938
14272394798
14272402000
14272408714
14272413291
14272419212
14272425132
14272430259
14272436240
14272442466
14272448325
14272454429
14272456443
14272465903
14272470115
14272477927
14272481284
14272488425
14272494773
14272500510
14272505454
14272512839
14272517844
14272522239
14272529136
14272533835
14272538718
14272546042
14272550925
14272557334
14272562033
14272568747
14272573386
14272580039
14272587058
14272594687
14272599814
14272605429
14272611411
14272616660
14272622946
14272627951
14272634299
14272641257
14272646262
14272653037
14272657553
14272663168
14272669272
14272673056
14272680380
14272686972
14272693381
14272698508
14272707846
14272714316
14272721579
14272727377
14272732321
14272740439
14272746542
14272752524
14272758993
14272765219
14272770529
14272775656
14272781515
14272786215
14272792502
14272797873
14272803915
14272808127
14272813803
14272819662
14272823935
14272830709
14272836142
14272842550
14272847616
14272852316
14272858602
14272864035
14272868429
14272875204
14272881369
14272887655
14272892904
14272897970
14272904074
14272909567
14272914511
14272921041
14272926412
14272934835
14272938192
14272944662
14272951864
14272959188
14272962728
14272969259
14272974569
14272982259
14272987142
14272993429
14272998739
14273004232
14273009237
14273015096
14273022176
14273028646
14273033956
14273039144
14273046041
14273050313
14273056234
14273061483
14273068197
14273075033
14273080221
14273086568
14273090963
14273098409
14273102804
14273106099
14273114583
14273121846
14273126668
14273130208
14273138143
14273141866
14273154988
14273158467
14273165853
14273170919
14273179097
14273182637
14273190694
14273197225
14273204244
14273208089
14273216268
14273223165
14273228719
14273233907
14273241292
14273246785
14273252644
14273257649
14273263081
14273268575
14273277119
14273282796
14273288045
14273293843
14273298848
14273304768
14273311787
14273317525
14273324666
14273332905
14273339802
14273345235
14273349324
14273358967
14273365071
14273372883
14273379048
14273383687
14273386921
14273394795
14273397908
14273405415
14273408711
14273415730
14273421711
14273427998
14273432698
14273438679
14273445332
14273450093
14273456501
14273460713
14273468769
14273473652
14273479939
14273484455
14273490742
14273496601
14273500141
14273506672
14273513203
14273520161
14273525776
14273532124
14273537007
14273542378
14273546833
14273553730
14273558613
14273565632
14273572773
14273578083
14273582661
14273589069
14273594685
14273601215
14273608662
14273616230
14273620930
14273626911
14273632648
14273637531
14273643818
14273649555
14273654072
14273661701
14273666584
14273670063
14273678180
14273681659
14273688556
14273693561
14273699421
14273705646
14273712726
14273718708
14273724567
14273731464
14273735920
14273742206
14273747821
14273752948
14273760334
14273765338
14273772113
14273777057
14273782917
14273788837
14273790851
14273799518
14273807697
14273814105
14273819476
14273825946
14273830463
14273837299
14273840839
14273848041
14273855365
14273860065
14273865070
14273871173
14273876727
14273882831
14273887592
14273893573
14273899432
14273907489
14273913348
14273922320
14273929584
14273935931
14273941485
14273947833
14273955279
14273962848
14273968707
14273975177
14273980121
14273987384
14273991778
14273998309
14274003314
14274010699
14274015826
14274019854
14274027118
14274031756
14274038165
14274041583
14274049090
14274056536
14274061236
14274066302
14274072406
14274077899
14274084429
14274089434
14274096453
14274101519
14274107806
14274112933
14274118121
14274122698
14274131426
14274136553
14274142657
14274147540
14274155657
14274163348
14274168047
14274174029
14274179034
14274185137
14274191363
14274195696
14274202410
14274208636
14274210772
14274219256
14274222674
14274229510
14274234881
14274242510
14274248247
14274256121
14274259722
14274266497
14274271380
14274278155
14274283526
14274288530
14274295183
14274300493
14274307329
14274312090
14274316668
14274323015
14274329180
14274334978
14274340410
14274347002
14274353716
14274359148
14274363665
14274367205
14274375749
14274381914
14274386370
14274396074
14274401445
14274407610
14274413347
14274418962
14274423479
14274429033
14274434892
14274440325
14274447588
14274453691
14274459673
14274464494
14274470598
14274475481
14274481218
14274489641
14274496294
14274501421
14274507829
14274514238
14274518877
14274524797
14274530595
14274538957
14274545000
14274552690
14274559160
14274565568
14274571489
14274576799
14274581132
14274591386
14274596330
14274604203
14274607805
14274615434
14274619218
14274627458
14274630876
14274637345
14274642778
14274649797
14274655534
14274662126
14274667192
14274673051
14274677507
14274683610
14274691300
14274699235
14274704850
14274710710
14274715287
14274721208
14274727616
14274732499
14274738786
14274746171
14274750993
14274757279
14274762162
14274768815
14274773393
14274779069
14274784989
14274792008
14274798295
14274802018
14274808671
14274813493
14274819413
14274824479
14274830704
14274836747
14274843094
14274848466
14274853898
14274858964
14274864884
14274870865
14274876908
14274882279
14274888871
14274895340
14274901688
14274906327
14274912735
14274917313
14274923233
14274929642
14274934281
14274942276
14274948075
14274953324
14274958573
14274965164
14274970047
14274975724
14274981583
14274989273
14274994766
14275001114
14275005997
14275011917
14275017044
14275023697
14275030533
14275037308
14275044266
14275050491
14275055924
14275059708
14275068008
14275072037
14275079422
14275087784
14275095108
14275101150
14275106583
14275113602
14275119705
14275124466
14275130752
14275137832
14275145096
14275150955
14275155533
14275164200
14275171463
14275176834
14275183182
14275192642
14275197159
14275206070
14275209915
14275218704
14275222610
14275231521
14275236160
14275242446
14275249649
14275254592
14275258194
14275279129
14275283523
14275290359
14275297195
14275304153
14275307937
14275313980
14275319900
14275325332
14275330886
14275335952
14275341995
14275349563
14275355544
14275361099
14275366592
14275372024
14275377273
14275384109
14275389419
14275395950
14275402114
14275407302
14275413955
14275419448
14275424148
14275430678
14275435988
14275440017
14275448684
14275454787
14275460891
14275464980
14275471633
14275476821
14275482192
14275487685
14275494826
14275499770
14275505996
14275511306
14275518447
14275523635
14275527785
14275536879
14275541823
14275549697
14275553359
14275560378
14275565444
14275572585
14275578810
14275585158
14275592238
14275599501
14275605788
14275611586
14275615859
14275622267
14275626479
14275632948
14275638747
14275645277
14275650465
14275656447
14275662306
14275668288
14275673232
14275679579
14275685072
14275691603
14275704420
14275706923
14275715346
14275719008
14275726393
14275730116
14275736952
14275745802
14275753676
14275757765
14275764235
14275767958
14275775282
14275779860
14275787062
14275792311
14275801588
14275808912
14275814161
14275822523
14275828199
14275836195
14275841017
14275848097
14275854750
14275859449
14275865553
14275871412
14275876234
14275881605
14275886732
14275892652
14275897779
14275903639
14275908705
14275914198
14275919874
14275924391
14275930128
14275935621
14275940260
14275946424
14275951490
14275956800
14275961256
14275967298
14275973096
14275979322
14275985059
14275989698
14275995740
14276000257
14276005018
14276011426
14276017957
14276024183
14276029432
14276034559
14276039014
14276045972
14276050123
14276055311
14276060010
14276068067
14276073499
14276079236
14276083448
14276090528
14276095472
14276101819
14276106092
14276113843
14276119031
14276125074
14276129407
14276134656
14276139234
14276145459
14276151990
14276158704
14276164807
14276170667
14276175000
14276178662
14276186536
14276190625
14276197339
14276201489
14276207776
14276212598
14276218274
14276223462
14276229993
14276234815
14276239758
14276245374
14276251721
14276257031
14276262036
14276267896
14276272351
14276279187
14276283459
14276289075
14276296765
14276302380
14276308240
14276313245
14276318677
14276324231
14276329541
14276334851
14276342358
14276347546
14276354748
14276362622
14276369153
14276375561
14276383862
14276387951
14276398449
14276404980
14276411572
14276418042
14276424328
14276429699
14276435131
14276441479
14276447033
14276453625
14276458935
14276463391
14276469982
14276476452
14276481762
14276488781
14276493420
14276499401
14276504040
14276507641
14276515148
14276518688
14276526928
14276532177
14276538952
14276542126
14276549572
14276555004
14276559094
14276563610
14276570690
14276575817
14276584301
14276588512
14276595165
14276599071
