14501641159
14501648849
14501657089
14501664413
14501671432
14501678207
14501685104
14501694137
14501703354
14501711715
14501719833
14501727096
14501735519
14501743759
14501751022
14501759323
14501767318
14501774765
14501781295
14501788253
14501798141
14501806808
14501818344
14501828903
14501838119
14501847945
14501859359
14501870040
14501878402
14501889327
14501898849
14501908736
14501918990
14501929671
14501939925
14501949630
14501959701
14501970260
14501980208
14501986617
14502001021
14502010421
14502020247
14502030440
14502040755
14502050093
14502060164
14502071639
14502082259
14502091353
14502102400
14502109175
14502121199
14502128401
14502139632
14502149519
14502158553
14502167097
14502174544
14502186079
14502195906
14502204329
14502214400
14502223738
14502232039
14502239302
14502251570
14502260969
14502270796
14502280073
14502290266
14502301619
14502307295
14502318708
14502326826
14502336775
14502344404
14502351484
14502358564
14502366011
14502376997
14502385481
14502393232
14502400373
14502408857
14502416120
14502423750
14502431684
14502440656
14502448042
14502455915
14502467085
14502474897
14502482771
14502492292
14502501447
14502509504
14502518903
14502527692
14502536176
14502544599
14502552167
14502561200
14502569135
14502578718
14502585737
14502594281
14502603009
14502612104
14502616986
14502626752
14502633466
14502647016
14502656476
14502664289
14502675153
14502683820
14502692548
14502699079
14502710309
14502714948
14502726666
14502734784
14502742597
14502750043
14502757855
14502765790
14502772015
14502780560
14502789044
14502797467
14502807416
14502818036
14502824628
14502835614
14502840375
14502851544
14502855939
14502866620
14502876202
14502883709
14502888714
14502893658
14502898602
14502903546
14502908856
14502913433
14502918744
14502922100
14502927533
14502932476
14502937603
14502942425
14502947125
14502950848
14502955365
14502960858
14502965130
14502969403
14502975689
14502980511
14502985577
14502988568
14502994610
14502999188
14503004009
14503008953
14503013836
14503019085
14503024090
14503028484
14503033856
14503038738
14503045208
14503050640
14503055157
14503060650
14503065044
14503069195
14503072735
14503078106
14503083050
14503088055
14503092327
14503097088
14503101299
14503107525
14503112774
14503117962
14503125347
14503128704
14503138164
14503144329
14503149883
14503158184
14503165020
14503166668
14503173382
14503177654
14503182415
14503186504
14503191570
14503196697
14503201091
14503206585
14503210918
14503216411
14503219341
14503226848
14503231792
14503237163
14503245586
14503251140
14503258525
14503262493
14503272197
14503278789
14503285930
14503292644
14503297771
14503304790
14503309978
14503317851
14503325908
14503330852
14503337383
14503344280
14503350139
14503355632
14503363567
14503369487
14503379619
14503387309
14503392985
14503400249
14503405315
14503409953
14503415996
14503421916
14503427043
14503430644
14503436625
14503440532
14503447917
14503454936
14503461650
14503465495
14503470744
14503475505
14503481242
14503487040
14503492106
14503497294
14503501689
14503507731
14503514750
14503521098
14503525798
14503530070
14503537760
14503543986
14503549174
14503553813
14503558146
14503564494
14503569316
14503574015
14503579630
14503584818
14503589884
14503597209
14503601908
14503609416
14503617655
14503624613
14503630229
14503634684
14503646220
14503652018
14503657267
14503662394
14503667155
14503672587
14503678324
14503683451
14503688212
14503693461
14503697855
14503704447
14503708781
14503716959
14503725626
14503729716
14503735758
14503743998
14503749674
14503755106
14503762064
14503767740
14503774393
14503779337
14503785318
14503790323
14503794535
14503800699
14503803995
14503811319
14503814188
14503821451
14503828165
14503832376
14503838663
14503843546
14503850382
14503856180
14503862467
14503868082
14503874491
14503879740
14503884256
14503891947
14503897318
14503903238
14503909525
14503914713
14503920145
14503926553
14503933450
14503937662
14503944070
14503950906
14503955911
14503962930
14503969156
14503975687
14503981119
14503986551
14503992715
14503996744
14504007059
14504012491
14504019082
14504025369
14504032327
14504039224
14504044900
14504051248
14504057840
14504062661
14504068033
14504073282
14504080179
14504085061
14504091287
14504094766
14504102884
14504107217
14504117410
14504122964
14504134072
14504139871
14504150674
14504159463
14504165811
14504172586
14504182717
14504187722
14504198525
14504203103
14504213906
14504222939
14504228799
14504237161
14504244973
14504253030
14504261025
14504268960
14504277566
14504286172
14504294106
14504301797
14504308144
14504316994
14504323708
14504329812
14504334633
14504340066
14504344948
14504352578
14504359353
14504364357
14504371621
14504377541
14504383461
14504388222
14504394753
14504401772
14504407570
14504414406
14504420143
14504426674
14504432473
14504439064
14504445107
14504452187
14504458107
14504463051
14504469765
14504474404
14504483010
14504487892
14504496926
14504500893
14504509010
14504515541
14504521889
14504528481
14504533302
14504539101
14504545082
14504551613
14504557838
14504564125
14504569374
14504575172
14504580360
14504587807
14504591591
14504597999
14504603187
14504608986
14504614235
14504620766
14504628273
14504634559
14504639931
14504644874
14504650123
14504657753
14504662452
14504668068
14504673683
14504680275
14504685218
14504691566
14504696876
14504701881
14504708961
14504714393
14504722694
14504726234
14504734108
14504740333
14504745033
14504748939
14504758399
14504763099
14504771461
14504775794
14504784645
14504789161
14504796546
14504800636
14504808997
14504814430
14504820594
14504825843
14504830238
14504837318
14504841651
14504847327
14504852821
14504858314
14504863990
14504870277
14504874732
14504881446
14504887000
14504893836
14504899085
14504905006
14504910193
14504917213
14504922584
14504929358
14504936011
14504940650
14504945533
14504953284
14504957068
14504964820
14504968604
14504975684
14504979407
14504986914
14504992652
14504998877
14505004004
14505011267
14505015418
14505023047
14505028846
14505034644
14505038184
14505046668
14505053137
14505059241
14505062720
14505070716
14505074195
14505081641
14505087073
14505093604
14505099158
14505105567
14505109046
14505116736
14505120581
14505129126
14505135535
14505142310
14505149634
14505154028
14505159888
14505167700
14505174658
14505180456
14505188818
14505197790
14505205725
14505212256
14505219824
14505228064
14505235144
14505241003
14505248999
14505258581
14505267248
14505274023
14505281225
14505289526
14505296667
14505302526
14505311132
14505321203
14505330236
14505337377
14505344458
14505353979
14505359838
14505365820
14505371740
14505380895
14505391577
14505397192
14505402990
14505411047
14505414831
14505423315
14505430578
14505435583
14505441137
14505446569
14505451879
14505456457
14505463110
14505469701
14505475805
14505478918
14505488073
14505496618
14505502782
14505507848
14505513952
14505520605
14505523595
14505529699
14505532567
14505538915
14505541967
14505549413
14505552404
14505560949
14505562780
14505570043
14505575963
14505580114
14505582860
14505592077
14505597875
14505603368
14505608983
14505614904
14505621129
14505625646
14505631627
14505636571
14505642369
14505646520
14505651219
14505655553
14505661412
14505666905
14505676732
14505681249
14505688146
14505692723
14505699742
14505705724
14505711949
14505718297
14505723058
14505726537
14505733128
14505737645
14505743504
14505748265
14505754185
14505758153
14505764683
14505769933
14505775487
14505779576
14505785008
14505790684
14505795323
14505800633
14505806309
14505811253
14505816868
14505822056
14505827489
14505833287
14505837987
14505842503
14505848362
14505852879
14505858799
14505864293
14505869786
14505873753
14505878758
14505885228
14505890294
14505895665
14505901402
14505906468
14505912754
14505918187
14505923558
14505931309
14505937352
14505943882
14505950413
14505958836
14505964024
14505976109
14505981480
14505986912
14505994236
14505999607
14506004124
14506010777
14506016392
14506021458
14506026096
14506031834
14506036655
14506040867
14506046543
14506049229
14506055027
14506060215
14506064243
14506069248
14506074192
14506079563
14506084507
14506088413
14506092502
14506097935
14506103001
14506110020
14506113254
14506120273
14506123447
14506129978
14506135105
14506143162
14506150913
14506158176
14506165134
14506170566
14506178806
14506184177
14506191867
14506198215
14506207614
14506213352
14506220859
14506229038
14506234470
14506242221
14506250522
14506257175
14506265354
14506274387
14506278659
14506288608
14506295993
14506304050
14506308749
14506317661
14506325290
14506333347
14506338596
14506344516
14506349887
14506356296
14506361606
14506368808
14506372775
14506380893
14506384982
14506392856
14506399631
14506406650
14506410312
14506417514
14506424594
14506430331
14506433688
14506440341
14506446261
14506451144
14506456820
14506461825
14506468539
14506472873
14506478854
14506483249
14506488986
14506494784
14506500094
14506506808
14506515902
14506520968
14506527438
14506531771
14506537936
14506543429
14506547640
14506554049
14506558200
14506564486
14506569491
14506574008
14506578036
14506583773
14506588900
14506592684
14506597689
14506602633
14506607516
14506611361
14506616854
14506621493
14506626864
14506631808
14506636935
14506641756
14506647921
14506651949
14506658236
14506664400
14506668612
14506674776
14506680697
14506685213
14506691073
14506695772
14506702364
14506709627
14506713289
14506719637
14506728182
14506734102
14506737581
14506744967
14506748812
14506756136
14506759066
14506766573
14506772127
14506778109
14506781710
14506788851
14506794954
14506800692
14506806063
14506811556
14506814974
14506821016
14506825777
14506833528
14506837313
14506845980
14506851290
14506857393
14506862276
14506868257
14506873812
14506878877
14506886995
14506893099
14506898348
14506904878
14506909395
14506914522
14506920992
14506926485
14506933992
14506941743
14506946687
14506953950
14506958711
14506964998
14506969514
14506975557
14506980806
14506985933
14506993989
14506997529
14507004793
14507008455
14507015901
14507021089
14507026460
14507033723
14507039949
14507045991
14507054292
14507057649
14507066926
14507070894
14507080415
14507088838
14507092866
14507098787
14507105195
14507110322
14507117524
14507122407
14507129670
14507134980
14507139192
14507144990
14507150117
14507158479
14507164338
14507173249
14507179658
14507188691
14507197297
14507204377
14507211091
14507218049
14507225007
14507233796
14507241730
14507247529
14507255952
14507261811
14507269685
14507275788
14507283723
14507292206
14507299103
14507306489
14507313264
14507320344
14507328034
14507333893
14507339203
14507344636
14507350129
14507356476
14507360444
14507369172
14507376130
14507381989
14507389679
14507394196
14507401093
14507408173
14507414704
14507420685
14507428131
14507434357
14507439850
14507445099
14507450958
14507456696
14507463043
14507467865
14507474579
14507480011
14507486359
14507490692
14507497040
14507502045
14507509064
14507514313
14507520660
14507527496
14507533600
14507538300
14507544952
14507550629
14507554535
14507561981
14507567169
14507574005
14507581085
14507587433
14507592682
14507598236
14507603912
14507609283
14507615570
14507620575
14507627655
14507633941
14507638763
14507642608
14507650848
14507654693
14507660675
14507666107
14507674286
14507680755
14507686859
14507695892
14507705658
14507712738
14507718170
14507726470
14507737640
14507744659
14507749114
14507756805
14507761932
14507767669
14507774322
14507778777
14507783965
14507790435
14507795013
14507799896
14507806915
14507811492
14507818572
14507823821
14507829070
14507833709
14507838165
14507843902
14507849334
14507854156
14507860076
14507864898
14507870879
14507876433
14507881744
14507886748
14507891570
14507895843
14507900237
14507907195
14507912688
14507916717
14507922698
14507928191
14507933379
14507938140
14507945098
14507950530
14507955291
14507960723
14507966948
14507971221
14507974273
14507984526
14507990081
14507995879
14508000273
14508005584
14508011077
14508016509
14508021208
14508028899
14508035796
14508040251
14508046538
14508053313
14508059111
14508063994
14508070830
14508076567
14508082121
14508085356
14508091826
14508096220
14508101653
14508106108
14508114775
14508127776
14508135710
14508142485
14508148772
14508154570
14508159514
14508165312
14508172087
14508178557
14508185332
14508195891
14508205168
14508214079
14508221464
14508230681
14508238493
14508250944
14508261747
14508270597
14508279020
14508288054
14508297819
14508307768
14508318937
14508325346
14508336576
14508346586
14508356840
14508365385
14508375150
14508383207
14508389127
14508395658
14508401884
14508407865
14508412199
14508418546
14508429350
14508435148
14508440214
14508448942
14508454252
14508460783
14508466215
14508470853
14508477567
14508483182
14508488431
14508493741
14508500333
14508504667
14508508817
14508516080
14508521818
14508527616
14508532560
14508540372
14508546903
14508555753
14508561124
14508568448
14508572110
14508578214
14508584500
14508589933
14508593900
14508598416
14508602445
14508608976
14508613065
14508618436
14508624112
14508630094
14508636869
14508640653
14508648892
14508655484
14508663785
14508670194
14508678922
14508686246
14508690762
14508696500
14508703092
14508709561
14508714871
14508718533
14508723050
14508730618
14508734586
14508741605
14508746670
14508753384
14508758328
14508763516
14508767361
14508772427
14508776761
14508782620
14508787869
14508793851
14508796963
14508803677
14508809537
14508815213
14508819851
14508824551
14508831875
14508836209
14508840786
14508848355
14508852810
14508858181
14508862698
14508868435
14508874966
14508881802
14508891323
14508896145
14508902859
14508909695
14508917019
14508925259
14508928921
14508935635
14508941555
14508946377
14508951565
14508955960
14508960659
14508966335
14508970730
14508975491
14508979397
14508985378
14508992458
14509000820
14509006069
14509012478
14509018215
14509023220
14509028652
14509035732
14509039516
14509047390
14509052944
14509058376
14509061855
14509067104
14509072536
14509079433
14509084804
14509089016
14509094692
14509098781
14509104763
14509108547
14509114345
14509119594
14509125759
14509131069
14509136379
14509142421
14509147793
14509153103
14509159328
14509166774
14509172817
14509176479
14509183010
14509186611
14509199245
14509202114
14509215053
14509220058
14509229763
14509235256
14509245082
14509250026
14509259120
14509266078
14509275966
14509284145
14509290553
14509299464
14509305019
14509314418
14509321681
14509328029
14509336635
14509346889
14509353175
14509362514
14509369227
14509377040
14509383632
14509390956
14509397609
14509404872
14509411830
14509415980
14509421718
14509427211
14509432277
14509436793
14509440089
14509448878
14509453456
14509459498
14509463832
14509470851
14509480189
14509483729
14509492640
14509498988
14509504786
14509511683
14509514979
14509522914
14509529322
14509535914
14509537623
14509546229
14509552088
14509556849
14509562831
14509567957
14509574549
14509578272
14509586512
14509590052
14509597804
14509601771
14509607752
14509612452
14509618617
14509622218
14509628260
14509631983
14509639796
14509643824
14509650355
14509654444
14509662501
14509668726
14509673426
14509676905
14509684412
14509688196
14509695093
14509701075
14509707483
14509712916
14509717066
14509723475
14509730616
14509736414
14509741114
14509747583
14509753199
14509758081
14509763086
14509769434
14509773523
14509779139
14509785425
14509791895
14509795679
14509804285
14509808069
14509815088
14509821741
14509826868
14509831446
14509837976
14509841638
14509847986
14509852869
14509859583
14509864832
14509869714
14509874414
14509880457
14509886926
14509892725
14509897974
14509903711
14509907983
14509913477
14509920068
14509924341
14509930200
14509934228
14509941248
14509944604
14509951257
14509956995
14509962305
14509967004
14509973657
14509980981
14509987268
14509991784
14509999292
14510006006
14510012231
14510019006
14510028405
14510034631
14510041040
14510046716
14510054590
14510060144
14510068811
14510075036
14510080896
14510087243
14510094384
14510099084
14510105004
14510110070
14510116296
14510121423
14510127526
14510133386
14510138268
14510143151
14510147851
14510151269
14510159020
14510164819
14510170251
14510176415
14510180871
14510185693
14510191369
14510196801
14510204858
14510209252
14510217919
14510224694
14510234216
14510241174
14510250634
14510255456
14510265588
14510270226
14510280541
14510288109
14510296166
14510300744
14510310265
14510317650
14510326745
14510334923
14510344262
14510351708
14510359459
14510366112
14510374535
14510383690
14510390404
14510399193
14510406517
14510415123
14510424095
14510430321
14510434166
14510441246
14510445397
14510453636
14510460106
14510465599
14510472191
14510478172
14510482994
14510489525
14510494469
14510500572
14510508690
14510514366
14510519127
14510522911
14510533165
14510538292
14510543114
14510548546
14510558128
14510562279
14510570518
14510574547
14510581932
14510587242
14510593956
14510600181
14510606529
14510614525
14510618980
14510625267
14510630394
14510637840
14510644371
14510649315
14510653160
14510661216
14510667320
14510671959
14510675743
14510685752
14510689964
14510696922
14510701805
14510711936
14510716514
14510723777
14510730247
14510737327
14510744712
14510748191
14510755943
14510759239
14510766685
14510769737
14510776267
14510781028
14510785789
14510790794
14510797141
14510802818
14510807212
14510813438
14510818137
14510824973
14510830772
14510837058
14510842124
14510847495
14510852927
14510857871
14510863120
14510867820
14510872092
14510879355
14510885459
14510891318
14510896689
14510901206
14510907004
14510911216
14510915061
14510921042
14510926352
14510931662
14510936301
14510941977
14510948142
14510953818
14510959433
14510964377
14510969687
14510975791
14510981040
14510984519
14510991843
14510996176
14511003134
14511008017
14511013266
14511018393
14511024192
14511029135
14511035483
14511040976
14511045859
14511050131
14511056479
14511062949
14511069846
14511074667
14511081503
14511087607
14511092429
14511098349
14511103659
14511110007
14511115744
14511120627
14511126364
14511131186
14511135886
14511140585
14511145895
14511152365
14511159140
14511163412
14511169943
14511173422
14511181479
14511185202
14511192892
14511199667
14511205221
14511211691
14511219076
14511224447
14511231955
14511235678
14511244589
14511252768
14511264791
14511272421
14511278524
14511287008
14511294149
14511303305
14511315084
14511323690
14511331014
14511340231
14511346823
14511355734
14511362325
14511370748
14511377828
14511385275
14511394064
14511401266
14511407247
14511416647
14511423299
14511431539
14511441122
14511448751
14511457235
14511465658
14511472372
14511481832
14511488607
14511498800
14511504476
14511511861
14511517537
14511521383
14511529073
14511533345
14511541585
14511545369
14511551473
14511556661
14511563314
14511569661
14511576009
14511581319
14511586019
14511591085
14511598043
14511604817
14511610066
14511616170
14511622151
14511627095
14511631429
14511639119
14511642964
14511651143
14511654927
14511662007
14511668172
14511674886
14511680013
14511685506
14511691365
14511696858
14511703938
14511710469
14511715718
14511723042
14511728596
14511734883
14511739888
14511746358
14511752888
14511758992
14511763631
14511767842
14511776509
14511781941
14511786885
14511791829
14511800496
14511806721
14511812642
14511818379
14511825520
14511830708
14511836262
14511841389
14511848530
14511852253
14511859883
14511863484
14511870869
14511876606
14511882588
14511886189
14511893879
14511899922
14511905781
14511909443
14511916645
14511923847
14511929951
14511936970
14511943257
14511949787
14511955586
14511961262
14511968525
14511973896
14511980061
14511986469
14511991657
14511997395
14512002949
14512007404
14512013142
14512018818
14512023945
14512030659
14512036213
14512042072
14512048603
14512054340
14512058613
14512064228
14512068012
14512076313
14512080158
14512087482
14512092670
14512099262
14512102863
14512108417
14512113422
14512119648
14512125446
14512131366
14512136921
14512143268
14512147907
14512154804
14512161884
14512166889
14512172870
14512178058
14512185260
14512189960
14512196064
14512200031
14512206928
14512212543
14512218952
14512224079
14512231464
14512237934
14512243549
14512248737
14512254413
14512259967
14512267536
14512273700
14512276080
14512286029
14512292743
14512298541
14512303302
14512311420
14512315143
14512324054
14512328387
14512335712
14512341205
14512347797
14512353595
14512360736
14512366046
14512372211
14512377399
14512384418
14512392047
14512397845
14512406756
14512416278
14512424212
14512432574
14512440020
14512450946
14512457476
14512467913
14512475299
14512484027
14512490740
14512500262
14512510028
14512516558
14512526690
14512535845
14512542925
14512552325
14512558978
14512566546
14512575274
14512580462
14512591631
14512597002
14512611102
14512619952
14512626238
14512633684
14512638995
14512645525
14512654314
14512662005
14512667864
14512674151
14512678911
14512685808
14512691424
14512697100
14512703142
14512709063
14512713945
14512719744
14512724566
14512730242
14512737383
14512742754
14512750261
14512756670
14512761858
14512766436
14512770769
14512777239
14512781938
14512787554
14512794512
14512800371
14512806291
14512810747
14512816789
14512821184
14512826738
14512832842
14512839311
14512845232
14512850542
14512854631
14512863054
14512866716
14512873857
14512878008
14512887590
14512892046
14512900896
14512904680
14512912065
14512917131
14512923235
14512928300
14512935869
14512944475
14512951005
14512955888
14512962846
14512967729
14512972734
14512979814
14512986711
14512994218
14513001054
14513006059
14513012346
14513017289
14513021013
14513028703
14513035051
14513040117
14513045366
14513051530
14513057695
14513064836
14513071305
14513076371
14513081132
14513087480
14513093278
14513100358
14513106828
14513112016
14513118363
14513124406
14513129533
14513133500
14513142350
14513145951
14513153031
14513156754
14513164140
14513168107
14513176164
14513179337
14513188493
14513194779
14513200455
14513207902
14513213334
14513217973
14513225785
14513230851
14513240494
14513246049
14513253190
14513259171
14513265580
14513272233
14513277299
14513282425
14513289567
14513296036
14513300431
14513306351
14513311661
14513315873
14513320939
14513326615
14513331253
14513337967
14513343216
14513349686
14513355057
14513359940
14513364701
14513369034
14513375199
14513381546
14513386795
14513391556
14513396744
14513401688
14513408463
14513413285
14513420365
14513426041
14513432694
14513438126
14513443802
14513450150
14513455826
14513461136
14513465225
14513475113
14513481949
14513488968
14513494339
14513498978
14513502640
14513511734
14513518997
14513527786
14513535171
14513543167
14513550857
14513560745
14513568069
14513576065
14513582779
14513592300
14513599136
14513607925
14513616104
14513625747
14513632644
14513642044
14513651382
14513657913
14513667129
14513675552
14513682388
14513692276
14513698623
14513708450
14513716873
14513724502
14513733169
14513738845
14513744094
14513749954
14513756973
14513762161
14513769485
14513775954
14513781326
14513788100
14513793777
14513798904
14513804275
14513811843
14513817214
14513822646
14513830093
14513835952
14513841018
14513846450
14513851577
14513857680
14513863174
14513870742
14513876418
14513885879
14513894057
14513901809
14513909255
14513916457
14513922683
14513930739
14513934890
14513942702
14513947768
14513952651
14513958510
14513963393
14513968337
14513974745
14513979750
14513984145
14513989638
14513993972
14514000197
14514006728
14514011733
14514018447
14514024855
14514030287
14514036452
14514041945
14514049086
14514055556
14514060927
14514066725
14514072890
14514077956
14514082167
14514088087
14514092787
14514096327
14514103712
14514107802
14514114516
14514119765
14514127028
14514132155
14514137404
14514145582
14514152724
14514159193
14514163649
14514170363
14514175245
14514183058
14514187758
14514194655
14514196791
14514206801
14514209120
14514218702
14514224073
14514231459
14514233717
14514242689
14514248243
14514253859
14514261183
14514267103
14514270765
14514277540
14514283461
14514291212
14514296583
14514301710
14514306593
14514314405
14514319654
14514325025
14514331190
14514337660
14514342420
14514348829
14514353712
14514359510
14514366285
14514372083
14514378675
14514384351
14514390821
14514397535
14514404981
14514409986
14514415662
14514420728
14514425184
14514428846
14514437452
14514444776
14514451307
14514456251
14514460950
14514467603
14514472364
14514479322
14514485975
14514493238
14514500318
14514504346
14514510389
14514518323
14514525342
14514531873
14514537732
14514543042
14514548841
14514554029
14514559705
14514564649
14514571424
14514577405
14514581616
14514590344
14514597913
14514606458
14514612927
14514618543
14514626965
14514632886
14514641248
14514650281
14514657849
14514665723
14514671948
14514680188
14514685681
14514692883
14514699475
14514708142
14514716321
14514721814
14514729138
14514736584
14514744031
14514749463
14514757947
14514766919
14514774426
14514780285
14514789135
14514795483
14514801709
14514806103
14514809521
14514817456
14514823803
14514828442
14514831921
14514839856
14514843335
14514849255
14514854199
14514861279
14514865002
14514872570
14514876843
14514883068
14514887951
14514893994
14514899304
14514906506
14514912853
14514916943
14514921642
14514927197
14514932202
14514938244
14514943066
14514948742
14514955456
14514960888
14514967053
14514972118
14514977367
14514982006
14514988476
14514992992
14514999096
14515004528
14515009960
14515014599
14515020946
14515026195
14515031689
14515036754
14515042187
14515048839
14515054333
14515059337
14515065563
14515068981
14515075939
14515081249
14515087658
14515093273
14515102489
14515107250
14515114635
14515120800
14515128673
14515133495
14515141185
14515147777
14515154613
14515158763
14515166759
14515170421
14515176769
14515182018
14515188182
14515194469
14515200206
14515204845
14515209117
14515215282
14515219432
14515225414
14515231700
14515237193
14515241588
14515247081
14515251781
14515258373
14515263500
14515271251
14515278575
14515284618
14515289928
14515294566
14515300731
14515305980
14515311717
14515318248
14515325023
14515330028
14515336558
14515341197
14515347484
14515352366
14515357738
14515364940
14515372142
14515378428
14515381846
14515388804
14515394359
14515399363
14515404735
14515410289
14515417186
14515422191
14515429210
14515433909
14515438670
14515446543
14515450938
14515457286
14515462718
14515469615
14515475779
14515481089
14515486949
14515492442
14515497630
14515505869
14515514659
14515519419
14515527110
14515532237
14515538523
14515542063
14515549693
14515553599
14515562205
14515566111
14515574473
14515577769
14515585825
14515592356
14515597178
14515602488
14515609934
14515616587
14515622507
14515627634
14515635081
14515640085
14515646311
14515652476
14515660593
14515667063
14515677134
14515684092
14515694224
14515700693
14515710459
14515717600
14515722605
14515736277
14515744028
14515755381
14515764048
14515773691
14515781015
14515790537
14515798471
14515807016
14515815500
14515823068
14515830515
14515836374
14515844614
14515851206
14515858957
14515871713
14515878549
14515883493
14515890512
14515895029
14515900156
14515906259
14515911264
14515918283
14515924448
14515930734
14515935068
14515940500
14515946664
14515953134
14515958322
14515964792
14515969735
14515976816
14515981149
14515988473
14515994821
14515998178
14516005563
14516008981
14516017038
14516022653
14516027963
14516033334
14516039987
14516045053
14516051034
14516055429
14516062631
14516067575
14516073922
14516080026
14516085702
14516090280
14516097055
14516102487
14516109872
14516115731
14516122140
14516128182
14516132150
14516139352
14516144235
14516150887
14516156075
14516161691
14516166818
14516172799
14516178475
14516184823
14516189278
14516196053
14516200631
14516207040
14516214303
14516219125
14516224984
14516230904
14516237374
14516240914
14516248482
14516251961
14516259408
14516265084
14516270455
14516275948
14516281991
14516287179
14516293526
14516299935
14516304512
14516312081
14516317086
14516324044
14516330696
14516335640
14516342781
14516347664
14516351693
14516360787
14516366707
14516375008
14516379280
14516386788
14516394356
14516400032
14516405464
14516412850
14516419258
14516426094
14516432015
14516437874
14516444283
14516448677
14516455208
14516460457
14516468880
14516474556
14516479805
14516485237
14516491524
14516496834
14516501045
14516507149
14516513435
14516520149
14516524727
14516529610
14516536018
14516541450
14516545540
14516550789
14516558235
14516563301
14516567817
14516573921
14516579902
14516585335
14516590889
14516596138
14516600471
14516606208
14516610847
14516616706
14516622932
14516629280
14516635261
14516640205
14516646675
14516650154
14516657356
14516660835
14516668403
14516673835
14516680000
14516684883
14516691047
14516697029
14516702949
14516707893
14516715949
14516720527
14516726692
14516731269
14516737434
14516745002
14516751899
14516757270
14516767402
14516775886
14516783820
14516791267
14516796333
14516808540
14516817023
14516823981
14516832709
14516841620
14516846808
14516855231
14516865058
14516872260
14516881598
14516888862
14516895270
14516904731
14516911200
14516919989
14516928595
14516937018
14516943488
14516952948
14516962165
14516965522
14516975897
14516979315
14516987555
14516990607
14516997748
14517004828
14517009589
14517015875
14517022162
14517026007
14517035590
14517039069
14517048041
14517057929
14517063910
14517071417
14517077277
14517083746
14517088507
14517095953
14517103155
14517108221
14517112738
14517118475
14517124701
14517129523
14517135931
14517140448
14517147040
14517152533
14517157232
14517162298
14517168158
14517173468
14517178045
14517184881
14517191534
14517196783
14517203192
14517207586
14517213385
14517218573
14517222845
14517229437
14517234442
14517240972
14517245428
14517251287
14517258062
14517264471
14517269415
14517276068
14517281256
14517287237
14517292303
14517297552
14517303777
14517309515
14517317022
14517321844
14517326727
14517333318
14517338506
14517343450
14517350469
14517355047
14517360662
14517367193
14517373052
14517381536
14517388250
14517392828
14517399663
14517404851
14517411748
14517416631
14517422368
14517427556
14517432989
14517440191
14517445440
14517451055
14517456487
14517462591
14517468816
14517473455
14517478460
14517486333
14517492742
14517498418
14517503301
14517509771
14517514837
14517521184
14517527471
14517531133
14517538884
14517543096
14517551030
14517556584
14517562749
14517568242
14517574773
14517579961
14517586858
14517591802
14517597722
14517604741
14517608586
14517616338
14517621953
14517628972
14517638432
14517645879
14517652593
14517659795
14517665654
14517672551
14517677617
14517685673
14517690434
14517699284
14517705632
14517712041
14517718632
14517724370
14517728520
14517737126
14517742680
14517748234
14517753850
14517758000
14517765019
14517769719
14517776127
14517782536
14517788029
14517792546
14517799504
14517803654
14517809452
14517815190
14517819645
14517825627
14517830815
14517836247
14517841557
14517846318
14517852177
14517861027
14517866215
14517877690
14517886723
14517893559
14517898503
14517910160
14517915165
14517925236
14517932499
14517941227
14517948917
14517958866
14517965946
14517974430
14517981754
14517989140
14517998539
14518004948
14518014042
14518022831
14518031254
14518041324
14518050175
14518059208
14518065861
14518075077
14518080631
14518087345
14518091678
14518096805
14518109195
14518112491
14518120304
14518124149
14518131961
14518135746
14518142765
14518148014
14518155948
14518160892
14518166934
14518172428
14518178897
14518183963
14518189273
14518194034
14518200443
14518206241
14518211856
14518217960
14518219852
14518228824
14518232303
14518239932
14518243289
14518250552
14518254520
14518262149
14518267032
14518272281
14518278934
14518283572
14518290408
14518294559
14518300418
14518308353
14518313602
14518323123
14518332217
14518338748
14518346438
14518351138
14518357974
14518364383
14518370425
14518376590
14518383548
14518388980
14518390811
14518398318
14518404116
14518409060
14518413211
14518418887
14518423831
14518429568
14518434634
14518439517
14518444094
14518449282
14518453616
14518458743
14518462832
14518468081
14518473208
14518478274
14518483462
14518488894
14518493594
14518499331
14518505496
14518510256
14518513369
14518521060
14518526797
14518531558
14518537112
14518543887
14518547488
14518554751
14518557925
14518566286
14518570803
14518577334
14518580569
14518587527
14518592287
14518598025
14518602724
14518608095
14518612734
14518619814
14518625490
14518632143
14518637514
14518642397
14518648073
14518655520
14518662050
14518667849
14518673830
14518679079
14518684023
14518690493
14518696962
14518701052
14518707582
14518711123
14518718325
14518723268
14518730837
14518734743
14518741274
14518748354
14518754640
14518760622
14518766725
14518772707
14518779848
14518786501
14518791506
14518797304
14518803346
14518808534
14518813905
14518820070
14518824892
14518831972
14518838014
14518842714
14518848451
14518854494
14518859926
14518864137
14518869997
14518876649
14518882448
14518888917
14518895875
14518901063
14518907716
14518912721
14518919069
14518924928
14518930421
14518939149
14518946168
14518955079
14518959657
14518971132
14518976198
14518986085
14518994203
14519002015
14519006776
14519016542
14519023927
14519031739
14519038942
14519047547
14519054628
14519064271
14519071229
14519078797
14519085328
14519093507
14519100465
14519109376
14519115846
14519125733
14519132020
14519139100
14519143922
14519149293
14519155701
14519160157
14519167725
14519172730
14519177308
14519182923
14519189393
14519195679
14519200074
14519206361
14519211487
14519218079
14519224366
14519227723
14519235047
14519239991
14519246888
14519250672
14519258301
14519263978
14519270081
14519275757
14519281617
14519287354
14519293824
14519298279
14519305298
14519310425
14519316529
14519322693
14519327881
14519333741
14519340149
14519345215
14519350952
14519357483
14519361145
14519368347
14519371704
14519379639
14519383240
14519389893
14519395325
14519402283
14519407166
14519412720
14519418945
14519424866
14519429749
14519436462
14519440979
14519446777
14519453857
14519459900
14519464905
14519472107
14519476990
14519480530
14519489624
14519493469
14519500305
14519506958
14519514160
14519519104
14519526489
14519531494
14519538391
14519544433
14519551819
14519560364
14519567260
14519572265
14519578491
14519585510
14519592041
14519598022
14519603943
14519610107
14519616211
14519623046
14519632141
14519636718
14519642761
14519647399
14519653442
14519658081
14519664733
14519668029
14519675720
14519679199
14519686401
14519690856
14519697387
14519702758
14519707763
14519713500
14519719360
14519724426
14519730224
14519734252
14519739806
14519746398
14519752197
14519756591
14519762023
14519768432
14519772582
14519778869
14519785339
14519791076
14519796935
14519802733
14519806274
14519814208
14519817809
14519826720
14519830260
14519838012
14519844542
14519854613
14519858214
14519865966
14519870788
14519877318
14519884154
14519890197
14519895629
14519901732
14519906798
14519912352
14519919860
14519926451
14519931334
14519938170
14519943114
14519949706
14519954894
14519960936
14519966857
14519971556
14519977965
14519983702
14519988524
14519994628
14520000243
14520006590
14520011229
14520018126
14520023070
14520031615
14520039183
14520048888
14520057677
14520064513
14520073302
14520079832
14520088682
14520095640
14520102659
14520112120
14520119322
14520127867
14520135435
14520144529
14520151671
14520160093
14520166563
14520175535
14520183226
14520192930
14520202940
14520212095
14520219297
14520225218
14520238035
14520243528
14520251402
14520259458
14520263975
14520271421
14520276731
14520283994
14520289732
14520295591
14520303282
14520307859
14520313291
14520318174
14520323728
14520329527
14520333677
14520339292
14520346006
14520352293
14520358274
14520363401
14520369260
14520374937
14520379209
14520384458
14520391355
14520395261
14520403562
14520407041
14520414487
14520417966
14520424680
14520431394
14520437436
14520444211
14520449277
14520455808
14520461118
14520466428
14520473508
14520479795
14520485410
14520492002
14520496824
14520502927
14520508054
14520514218
14520517881
14520525693
14520529477
14520536740
14520541989
14520548947
14520553952
14520559567
14520564633
14520570249
14520575253
14520582089
14520586728
14520593930
14520598630
14520605466
14520610532
14520616208
14520622128
14520627805
14520633847
14520641476
14520647580
14520651242
14520658871
14520664365
14520669736
14520675229
14520680173
14520687070
14520692074
14520698910
14520705197
14520709042
14520716122
14520721860
14520726987
14520733029
14520740353
14520744198
14520751217
14520756344
14520762692
14520768612
14520776120
14520782956
14520787899
14520793087
14520799557
14520804684
14520811886
14520817318
14520824887
14520831845
14520842282
14520849484
14520854916
14520861569
14520866940
14520874020
14520879330
14520886898
14520895626
14520903988
14520909969
14520918148
14520925289
14520931637
14520941097
14520945858
14520950985
14520957149
14520962460
14520967281
14520972286
14520977596
14520983211
14520987911
14520992916
14520997677
14521002865
14521007503
14521012081
14521017757
14521022640
14521027279
14521032345
14521037899
14521043758
14521050716
14521055355
14521062435
14521066646
14521073055
14521078426
14521083431
14521088253
14521093807
14521101986
14521105526
14521113948
14521121151
14521127925
14521135005
14521143245
14521150264
14521158138
14521164852
14521172237
14521178829
14521184871
14521194454
14521201351
14521208125
14521214412
14521222041
14521229915
14521237300
14521244991
14521251460
14521259151
14521267268
14521274898
14521281551
14521285945
14521291072
14521298030
14521303645
14521308589
14521312923
14521318538
14521321834
14521328425
14521331294
14521338923
14521344050
14521349360
14521355037
14521359004
14521364253
14521369929
14521375117
14521382686
14521389216
14521395320
14521401973
14521407405
14521412410
14521420100
14521425837
14521432185
14521445979
14521452082
14521457759
14521462641
14521470454
14521474482
14521478999
14521484126
14521488886
14521493525
14521497981
14521502253
14521508173
14521514643
14521519770
14521524287
14521527949
14521533442
14521538813
14521543269
14521548945
14521553339
14521558649
14521563105
14521568476
14521573420
14521577631
14521583552
14521587885
14521592890
14521597162
14521603266
14521607905
14521613642
14521618403
14521625239
14521629877
14521634699
14521640619
14521645441
14521649653
14521655939
14521662348
14521667841
14521673578
14521680658
14521685724
14521691217
14521695429
14521700983
14521706476
14521712519
14521718378
14521724054
14521730524
14521735407
14521740839
14521746759
14521752863
14521757562
14521764398
14521770136
14521775995
14521781671
14521787042
14521788996
14521796503
14521802179
14521807306
14521813715
14521819818
14521823175
14521831049
14521834528
14521842279
14521846796
14521852838
14521857660
14521864496
14521869379
14521876459
14521881525
14521887750
14521893609
14521900262
14521903863
14521911493
14521916131
14521921869
14521928399
14521932977
14521939386
14521945001
14521952325
14521959405
14521964654
14521970636
14521976190
14521982965
14521986810
14521994806
14522001580
14522007501
14522012200
14522018243
14522022821
14522028436
14522033441
14522040338
14522045281
14522051812
14522056756
14522063165
14522067803
14522074639
14522081780
14522089898
14522097100
14522107110
14522114007
14522121209
14522127129
14522135796
14522144036
14522152764
14522159295
14522168511
14522174676
14522183343
14522189141
14522199456
14522205376
14522212762
14522221551
14522231255
14522237237
14522245293
14522253716
14522260308
14522267998
14522275628
14522283562
14522289910
14522294426
14522301995
14522306939
14522312432
14522318840
14522323296
14522329949
14522336846
14522341851
14522348198
14522355278
14522357231
14522366020
14522371208
14522378716
14522383660
14522389702
14522393547
14522401054
14522406609
14522412041
14522417412
14522423760
14522429192
14522436089
14522441093
14522445671
14522452629
14522457756
14522463676
14522469292
14522474724
14522481132
14522487602
14522492668
14522500114
14522505974
14522510551
14522516228
14522521660
14522528618
14522534233
14522538017
14522545341
14522551017
14522558220
14522563408
14522569389
14522576469
14522584404
14522588432
14522595939
14522602897
14522608451
14522615470
14522621574
14522626579
14522634086
14522638298
14522646049
14522652091
14522657218
14522662589
14522667228
14522672416
14522678459
14522682975
14522689628
14522693168
14522700492
14522705192
14522712516
14522715934
14522723441
14522728202
14522733329
14522739310
14522744804
14522749503
14522754630
14522760734
14522765800
14522769950
14522775687
14522782218
14522787772
14522791984
14522797599
14522804740
14522809806
14522814017
14522819633
14522826102
14522832511
14522836966
14522842887
14522847953
14522854972
14522859488
14522865775
14522871451
14522876456
14522882376
14522887809
14522894950
14522901541
14522907950
14522913626
14522918997
14522926932
14522931449
14522938040
14522943900
14522952384
14522957633
14522961844
14522969168
14522974478
14522980216
14522985098
14522991873
14522997122
14523002921
14523007987
14523015067
14523019827
14523024832
14523031790
14523036429
14523043509
14523048392
14523054251
14523059500
14523065848
14523070364
14523076163
14523079886
14523088309
14523092093
14523098746
14523104056
14523110953
14523115896
14523121695
14523126578
14523132193
14523139273
14523145071
14523150930
14523157339
14523163565
14523168264
14523174185
14523181082
14523188040
14523194754
14523202932
14523212088
14523217215
14523225027
14523228811
14523236196
14523240225
14523246450
14523250906
14523256338
14523261587
14523265371
14523269827
14523275747
14523281240
14523288442
14523294119
14523299734
14523304556
14523309866
14523314993
14523321584
14523328298
14523335012
14523340871
14523345815
14523351125
14523357229
14523361562
14523367422
14523375356
14523381521
14523387441
14523393484
14523398305
14523404348
14523410818
14523415761
14523422475
14523424611
14523433706
14523437795
14523445730
14523451833
14523456167
14523461049
14523466970
14523472524
14523478017
14523483693
14523490285
14523496877
14523502553
14523507497
14523513661
14523520925
14523525624
14523531728
14523537160
14523544423
14523550710
14523557179
14523561147
14523569631
14523573842
14523581777
14523587148
14523594228
14523600148
14523605824
14523610890
14523617421
14523624135
14523630360
14523636891
14523639272
14523648671
14523653249
14523660512
14523664784
14523672963
14523678944
14523685414
14523691212
14523697987
14523702809
14523709889
14523714894
14523721547
14523728688
14523733876
14523740590
14523750477
14523756031
14523759938
14523768483
14523778004
14523784474
14523789540
14523795826
14523799672
14523809132
14523817128
14523822987
14523827565
14523838673
14523845204
14523851795
14523856495
14523865467
14523869435
14523877491
14523884510
14523889515
14523893299
14523901417
14523907093
14523913014
14523919727
14523926197
14523931812
14523938953
14523945789
14523950428
14523955677
14523961109
14523966602
14523972217
14523977466
14523983753
14523990040
14523995899
14524001697
14524006031
14524012378
14524018421
14524023304
14524031299
14524037830
14524042957
14524048328
14524053516
14524058216
14524062854
14524068653
14524074085
14524081714
14524086719
14524093372
14524099170
14524104785
14524109729
14524115161
14524123279
14524128650
14524133716
14524140125
14524145435
14524152088
14524157215
14524163379
14524168628
14524176257
14524181445
14524186755
14524193164
14524198108
14524204395
14524211108
14524218066
14524224475
14524230334
14524236133
14524241260
14524247058
14524251941
14524258166
14524267566
14524272510
14524277576
14524284289
14524289233
14524294726
14524301562
14524307116
14524312488
14524319201
14524324145
14524330127
14524335193
14524341296
14524346362
14524354052
14524359851
14524366565
14524373095
14524377429
14524383654
14524389209
14524394519
14524401843
14524410754
14524415698
14524421435
14524428820
14524434436
14524441943
14524447192
14524455126
14524462084
14524467272
14524473010
14524479540
14524484728
14524491198
14524496081
14524503283
14524509142
14524513781
14524519762
14524524767
14524531481
14524536669
14524542895
14524549181
14524556506
14524561510
14524567126
14524572192
14524579882
14524585009
14524591173
14524596422
14524602648
14524607714
14524613817
14524620470
14524625963
14524631029
14524638353
14524643786
14524650011
14524655138
14524662462
14524667528
14524672899
14524679308
14524684008
14524690966
14524696886
14524701830
14524707262
14524713610
14524718859
14524723925
14524729357
14524737108
14524743334
14524748339
14524755174
14524760790
14524767137
14524772936
14524779344
14524785814
14524792162
14524796739
14524804002
14524808824
14524816270
14524821275
14524828111
14524835252
14524840929
14524847337
14524852464
14524859056
14524864549
14524869127
14524875596
14524883775
14524889207
14524895799
14524901414
14524905992
14524912217
14524918748
14524924791
14524929918
14524935899
14524942186
14524946946
14524953233
14524959153
14524963731
14524969468
14524976304
14524982652
14524987779
14524994676
14524999131
14525006944
14525012193
14525019395
14525027452
14525034349
14525040879
14525046983
14525051988
14525059434
14525065965
14525071275
14525078477
14525084641
14525089768
14525096055
14525101243
14525108018
14525113511
14525119675
14525128281
14525134385
14525139451
14525145737
14525151047
14525157090
14525161851
14525169114
14525174058
14525181382
14525186387
14525191514
14525197922
14525203232
14525209885
14525214707
14525221787
14525228318
14525233445
14525239243
14525243699
14525250473
14525255051
14525261521
14525268418
14525275254
14525280320
14525287522
14525292038
14525299057
14525303696
14525310410
14525318466
14525323960
14525330612
14525335617
14525340622
14525347031
14525353806
14525358872
14525366745
14525373032
14525377854
14525383591
14525389755
14525395859
14525400253
14525406845
14525413376
14525421188
14525426193
14525431931
14525436264
14525442123
14525446579
14525452377
14525460556
14525465683
14525471969
14525476425
14525482101
14525488083
14525494125
14525499374
14525504318
14525511337
14525514633
14525521957
14525527755
14525531967
14525538315
14525544174
14525549423
14525554794
14525561142
14525567611
14525572189
14525578415
14525584945
14525592086
14525598312
14525606124
14525613571
14525620162
14525625961
14525632614
14525638107
14525646041
14525653976
14525660568
14525666061
14525672042
14525677657
14525682235
14525688339
14525694503
14525700301
14525706954
14525712325
14525718307
14525723190
14525728988
14525732467
14525740646
14525747665
14525753829
14525755904
14525764205
14525770248
14525776473
14525778426
14525787520
14525793563
14525799911
14525803451
14525811629
14525815230
14525822127
14525828170
14525834395
14525840560
14525847030
14525854903
14525861922
14525868270
14525874251
14525879256
14525887191
14525894088
14525900069
14525905501
14525911727
14525916365
14525922408
14525927474
14525933760
14525940352
14525946700
14525951766
14525959029
14525964095
14525970015
14525977889
14525987288
14525992720
14525999312
14526005110
14526010786
14526017256
14526023848
14526030074
14526035506
14526042708
14526047713
14526054793
14526059798
14526066084
14526071821
14526074568
14526084089
14526089216
14526095930
14526101729
14526107771
14526113508
14526117476
14526121260
14526129011
14526134871
14526140608
14526146040
14526150068
14526156050
14526162458
14526168867
14526175520
14526182295
14526187727
14526194258
14526201094
14526210798
14526219892
14526224775
14526232771
14526238935
14526244856
14526252851
14526256758
14526265058
14526269209
14526276594
14526283064
14526289594
14526293134
14526301679
14526305402
14526315107
14526320722
14526326643
14526331403
14526336957
14526338850
14526347700
14526353559
14526359357
14526364545
14526368940
14526375593
14526380903
14526387922
14526392438
14526395978
14526403669
14526409833
14526414167
14526420698
14526425824
14526429426
14526435834
14526440717
14526448224
14526452558
14526460675
14526466413
14526474530
14526478742
14526486615
14526490461
14526497846
14526504315
14526510480
14526515180
14526525128
14526530194
14526534955
14526542462
14526548261
14526553204
14526560285
14526566693
14526571393
14526577924
14526582745
14526589948
14526596173
14526602643
14526608075
14526612714
14526616742
14526625409
14526629193
14526635419
14526641339
14526649152
14526655255
14526660504
14526665570
14526672284
14526677228
14526684186
14526689068
14526694623
14526699383
14526706463
14526712201
14526716046
14526722638
14526729046
14526735150
14526740765
14526747967
14526754010
14526761212
14526767193
14526775189
14526780499
14526787518
14526793072
14526800640
14526809674
14526816082
14526821209
14526830120
14526833965
14526842816
14526846722
14526855877
14526859417
14526868755
14526872112
14526880474
14526883648
14526891277
14526899700
14526905865
14526912395
14526917828
14526924114
14526928936
14526935650
14526940838
14526946575
14526950848
14526956768
14526962017
14526966900
14526969707
14526976971
14526981975
14526988140
14526994060
14526998272
14527004375
14527008526
14527013775
14527019634
14527024639
14527030315
14527037517
14527040874
14527047771
14527051067
14527057354
14527061992
14527072429
14527077434
14527088848
14527098613
14527104473
14527113628
14527120769
14527130657
14527135967
14527147991
14527159465
14527166972
14527174114
14527181377
14527190959
14527198772
14527206828
14527215068
14527226237
14527233989
14527241130
14527248637
14527256755
14527265788
14527273784
14527282084
14527290507
14527298381
14527308146
14527315837
14527322673
14527331279
14527337931
14527347636
14527352458
14527361674
14527369426
14527379313
14527384257
14527394938
14527403544
14527411479
14527420146
14527426859
14527435771
14527444254
14527451701
14527457804
14527466105
14527472453
14527481608
14527489237
14527497050
14527505961
14527514017
14527521281
14527528788
14527537089
14527543742
14527553080
14527561991
14527569864
14527576700
14527585001
14527591166
14527601481
14527609842
14527618021
14527622660
14527633341
14527642130
14527650553
14527658426
14527667337
14527675821
14527684793
14527692728
14527699686
14527708170
14527717203
14527726480
14527734110
14527740824
14527751322
14527756143
14527767008
14527777139
14527783426
14527792215
14527801126
14527809793
14527816507
14527824441
14527831338
14527841775
14527846841
14527856729
14527865213
14527873086
14527880166
14527888528
14527896829
14527906045
14527917032
14527925821
14527932962
14527940469
14527947915
14527956460
14527964700
14527976052
14527986611
14527997964
14528017190
14528037759
14528057656
14528077309
14528097512
14528118020
14528141396
14528163369
14528182839
14528194558
14528204506
14528215798
14528228737
14528244179
14528259377
14528274086
14528288063
14528298195
14528307839
14528315590
14528325722
14528333473
14528341164
14528348732
14528357826
14528365028
14528373879
14528381752
14528389748
14528399269
14528407814
14528417152
14528425880
14528434669
14528443031
14528451088
14528460060
14528469826
14528477516
14528485878
14528496315
14528503700
14528513160
14528521705
14528532875
14528539283
14528547401
14528556739
14528565162
14528572609
14528580909
14528589332
14528597450
14528606422
14528613685
14528619117
14528623695
14528630653
14528633521
14528640235
14528644996
14528649696
14528654823
14528660011
14528664039
14528669471
14528676551
14528681312
14528685645
14528690284
14528695228
14528699073
14528703407
14528710792
14528714698
14528720008
14528724525
14528728858
14528733192
14528740455
14528745704
14528751136
14528755469
14528760657
14528765052
14528768897
14528775428
14528780799
14528784949
14528790320
14528795508
14528800879
14528806617
14528812232
14528816993
14528822913
14528828528
14528833106
14528838965
14528842994
14528848609
14528855078
14528859839
14528865943
14528869605
14528875342
14528879370
14528885535
14528890845
14528896277
14528901709
14528905982
14528912512
14528916724
14528924353
14528931922
14528938513
14528944190
14528949317
14528953711
14528959754
14528964941
14528969885
14528974524
14528979773
14528985144
14528989172
14528995276
14528999792
14529004553
14529011450
14529016577
14529020422
14529026221
14529028967
14529034766
14529039160
14529044531
14529049109
14529054175
14529058813
14529063452
14529069372
14529074804
14529079138
14529085180
14529091162
14529096655
14529101599
14529107153
14529112097
14529117407
14529123022
14529128027
14529135290
14529141088
14529146582
14529151281
14529158178
14529163305
14529167211
14529175390
14529178991
14529187292
14529193029
14529198950
14529202429
14529208837
14529212194
14529220739
14529224706
14529233251
14529237768
14529245153
14529249120
14529257482
14529260839
14529268163
14529272253
14529279028
14529284521
14529289220
14529295019
14529299230
14529302770
14529312109
14529318700
14529324438
14529329137
14529335302
14529339086
14529345983
14529350744
14529355138
14529361608
14529366186
14529370336
14529377050
14529381261
14529386815
14529392431
14529394262
14529403661
14529410497
14529414953
14529418859
14529426610
14529430028
14529436376
14529440587
14529449254
14529453099
14529463475
14529473241
14529481114
14529486486
14529492528
14529500341
14529507176
14529512853
14529518285
14529522252
14529531102
14529551122
14529559056
14529564244
14529568578
14529574254
14529579137
14529585790
14529591649
14529597325
14529601781
14529609166
14529614049
14529618443
14529624730
14529629857
14529634618
14529640721
14529645299
14529651402
14529658116
14529664097
14529668553
14529673619
14529679661
14529685154
14529691380
14529697545
14529702977
14529706517
14529713841
14529719578
14529724705
14529731053
14529736851
14529740269
14529746678
14529752964
14529758091
14529764073
14529769688
14529777195
14529782933
14529789219
14529794346
14529800816
14529807530
14529813816
14529820286
14529827854
14529832676
14529836399
14529844090
14529847996
14529855381
14529859348
14529867771
14529871555
14529880100
14529886936
14529891880
14529897007
14529903599
14529909885
14529916172
14529921604
14529927524
14529932896
14529938816
14529945408
14529950474
14529955601
14529962803
14529969211
14529976352
14529981113
14529984836
14529992954
14529996982
14530004123
14530010105
14530017002
14530022312
14530028110
14530033542
14530038974
14530043979
14530051181
14530057956
14530064304
14530073154
14530080417
14530085300
14530089389
14530099155
14530103366
14530110874
14530116489
14530123508
14530130466
14530137973
14530143833
14530148166
14530155429
14530160861
14530169223
14530176181
14530181552
14530185580
14530191257
14530197421
14530202426
14530208163
14530212558
14530218722
14530224948
14530230563
14530239169
14530245883
14530251437
14530255954
14530261264
14530267306
14530273837
14530279880
14530286410
14530292331
14530299045
14530303927
14530310702
14530316501
14530322116
14530324374
14530332614
14530337313
14530343356
14530345797
14530353976
14530359591
14530364779
14530368991
14530378512
14530382907
14530391818
14530395785
14530403414
14530407626
14530414095
14530420199
14530427523
14530433016
14530437899
14530444369
14530449618
14530455660
14530462862
14530467745
14530472933
14530479586
14530485567
14530492220
14530497042
14530504305
14530508334
14530514498
14530519747
14530526339
14530532625
14530538607
14530543856
14530549471
14530554842
14530562472
14530567599
14530572481
14530578646
14530585299
14530591219
14530595064
14530603182
14530609163
14530613924
14530620577
14530626619
14530632845
14530638521
14530644442
14530651644
14530657076
14530671968
14530678621
14530685701
14530691988
14530698519
14530705843
14530712007
14530717928
14530722322
14530728609
14530733309
14530739351
14530745699
14530750826
14530755708
14530761934
14530770113
14530777132
14530783418
14530791231
14530799104
14530806734
14530812227
14530817903
14530823091
14530828096
14530831148
14530838655
14530845125
14530850862
14530856172
14530861848
14530867402
14530870881
14530875215
14530881440
14530887117
14530891206
14530897493
14530901277
14530908418
14530912019
14530919221
14530922578
14530929170
14530934358
14530938752
14530943330
14530949556
14530954560
14530958894
14530963472
14530969392
14530975923
14530980500
14530984712
14530991487
14530996736
14531002473
14531004609
14531012605
14531018891
14531023591
14531030488
14531035066
14531041169
14531045625
14531050385
14531056306
14531063630
14531070039
14531077485
14531082795
14531086823
14531095002
14531100373
14531105378
14531109956
14531115144
14531120209
14531126740
14531132233
14531138825
14531144501
14531151215
14531158051
14531163239
14531169037
14531173371
14531179474
14531185639
14531187531
14531195282
14531198761
14531206513
14531211884
14531216828
14531221283
14531230927
14531238739
14531245331
14531248993
14531256623
14531261505
14531267487
14531273041
14531278473
14531288056
14531293915
14531298737
14531302704
14531307587
14531312103
14531318817
14531322296
14531328400
14531331207
14531336762
14531340668
14531346100
14531349152
14531356598
14531360016
14531366425
14531371246
14531374786
14531379669
14531384857
14531388214
14531396271
14531400177
14531406891
14531412506
14531417267
14531420807
14531427460
14531430878
14531438629
14531442779
14531450592
14531453766
14531459930
14531464203
14531470062
14531474884
14531480926
14531485870
14531491241
14531496368
14531502594
14531507415
14531511810
14531517364
14531520965
14531529144
14531535003
14531540557
14531546783
14531551422
14531555633
14531562103
14531567413
14531572540
14531579376
14531583648
14531589630
14531594512
14531597808
14531605743
14531609100
14531616302
14531623931
14531628875
14531635101
14531641753
14531645232
14531653960
14531657623
14531664642
14531670440
14531677032
14531681976
14531688079
14531693572
14531699859
14531704192
14531710235
14531717376
14531722991
14531729888
14531734893
14531739471
14531745757
14531751922
14531757110
14531763579
14531772551
14531777800
14531784758
14531789763
14531797027
14531802153
14531808379
14531815886
14531821929
14531829436
14531834746
14531838835
14531845122
14531851042
14531856353
14531861968
14531867888
14531872527
14531878813
14531885283
14531890349
14531895232
14531901885
14531908965
14531913481
14531916777
14531924223
14531929900
14531935454
14531938689
14531947600
14531953459
14531959441
14531964934
14531969206
14531972380
14531979704
14531985503
14531994963
14532002470
14532006560
14532012968
14532017973
14532024870
14532030974
14532036406
14532043425
14532050322
14532055266
14532061979
14532067839
14532072783
14532079252
14532083769
14532089933
14532096281
14532101530
14532107634
14532113493
14532118132
14532125883
14532131926
14532136991
14532142179
14532149015
14532154753
14532162443
14532167753
14532173551
14532178678
14532184355
14532192655
14532198820
14532203825
14532209928
14532214506
14532221037
14532227323
14532232511
14532237333
14532244657
14532249296
14532252836
14532261320
14532264860
14532271452
14532277616
14532284025
14532291837
14532296476
14532301420
14532307889
14532313444
14532319181
14532324186
14532330289
14532337308
14532343229
14532348173
14532353300
14532358121
14532366483
14532371366
14532378995
14532387052
14532393827
14532398465
14532406034
14532411222
14532418546
14532425504
14532433316
14532438443
14532444425
14532450345
14532455655
14532460355
14532466703
14532471341
14532478482
14532482266
14532489469
14532494290
14532501431
14532505094
14532512845
14532518216
14532525723
14532529996
14532537747
14532542813
14532548978
14532553983
14532560635
14532565823
14532571255
14532578152
14532582852
14532587552
14532594022
14532598843
14532605862
14532611050
14532616666
14532622647
14532630582
14532635525
14532641446
14532646573
14532653531
14532658719
14532665677
14532672207
14532676907
14532681973
14532688992
14532696988
14532703640
14532709011
14532716702
14532723355
14532730801
14532734280
14532742581
14532746365
14532754177
14532759365
14532765835
14532771633
14532779507
14532783047
14532790493
14532793972
14532801907
14532806912
14532814419
14532821499
14532827847
