14374362676
14374369268
14374374029
14374380987
14374386297
14374390508
14374395330
14374399907
14374405462
14374411077
14374415777
14374419378
14374424810
14374429632
14374434758
14374440130
14374444524
14374449285
14374453740
14374460088
14374464421
14374469793
14374475225
14374479558
14374485479
14374490300
14374495977
14374500371
14374504644
14374510930
14374517583
14374523931
14374528935
14374540837
14374548406
14374555669
14374563786
14374570073
14374577153
14374585759
14374593449
14374601323
14374612981
14374620122
14374631108
14374639043
14374645634
14374654790
14374661076
14374667851
14374672124
14374679997
14374683049
14374690312
14374696843
14374702275
14374707951
14374715092
14374721013
14374726384
14374731999
14374738102
14374744084
14374750615
14374755742
14374762028
14374767460
14374772404
14374779667
14374784733
14374791142
14374795475
14374799992
14374803166
14374807743
14374811344
14374815922
14374821049
14374824650
14374830204
14374835392
14374840275
14374845768
14374849735
14374855839
14374860661
14374864140
14374869145
14374872746
14374878117
14374883305
14374888187
14374893009
14374896854
14374902653
14374907047
14374911442
14374916813
14374922977
14374929508
14374934391
14374939152
14374944218
14374952396
14374958134
14374962894
14374969303
14374974186
14374977543
14374983280
14374988651
14374992435
14374996342
14375001163
14375006901
14375010685
14375015445
14375020389
14375024784
14375029178
14375033390
14375037296
14375044010
14375048771
14375052860
14375057621
14375061710
14375066715
14375071048
14375075565
14375080631
14375085697
14375089054
14375096988
14375101688
14375107547
14375113529
14375119693
14375129520
14375135318
14375139957
14375145450
14375149783
14375155277
14375160343
14375164432
14375169986
14375174014
14375180057
14375185794
14375190067
14375194400
14375199954
14375203677
14375209048
14375212833
14375218753
14375225223
14375228946
14375234256
14375238223
14375242801
14375247928
14375252139
14375254581
14375263919
14375269778
14375273501
14375277774
14375282840
14375288638
14375292972
14375299563
14375303348
14375308658
14375313418
14375316775
14375321292
14375327212
14375333133
14375337771
14375342105
14375347049
14375351809
14375355899
14375361575
14375365420
14375371157
14375375125
14375380923
14375385257
14375391177
14375395999
14375401919
14375408084
14375411135
14375417788
14375421816
14375428408
14375432437
14375436587
14375442629
14375449526
14375456973
14375466433
14375473025
14375481692
14375488406
14375497317
14375506533
14375512270
14375518679
14375526492
14375533816
14375539187
14375547182
14375554323
14375564333
14375568789
14375578554
14375587404
14375595766
14375602175
14375609316
14375618837
14375628786
14375635561
14375645266
14375653872
14375660769
14375666689
14375670229
14375679384
14375684938
14375689455
14375694277
14375698549
14375702761
14375708742
14375713625
14375719301
14375724611
14375728700
14375734804
14375739321
14375744264
14375748415
14375754823
14375759828
14375766115
14375771120
14375776125
14375780885
14375784609
14375791139
14375797609
14375803163
14375808595
14375812196
14375818117
14375822145
14375827211
14375832460
14375839174
14375844301
14375850709
14375856386
14375860719
14375865724
14375871950
14375878541
14375884279
14375889406
14375895814
14375901430
14375906373
14375912782
14375917726
14375922487
14375930543
14375935670
14375943544
14375948488
14375953981
14375960328
14375968507
14375972535
14375981202
14375989137
14375995851
14376001710
14376008302
14376014772
14376021058
14376023988
14376035340
14376039002
14376047914
14376054627
14376060304
14376064637
14376070680
14376077638
14376084290
14376089356
14376095643
14376100953
14376107117
14376113099
14376118043
14376121156
14376128785
14376135133
14376141114
14376144105
14376151185
14376155396
14376163575
14376166443
14376173585
14376179383
14376183777
14376190491
14376197205
14376203248
14376208069
14376213868
14376220826
14376225647
14376232483
14376237671
14376245179
14376250061
14376257203
14376262207
14376266297
14376271790
14376276917
14376280945
14376285950
14376291260
14376295899
14376302796
14376308167
14376312866
14376318848
14376323303
14376329712
14376334656
14376340088
14376342896
14376351441
14376356018
14376361206
14376366699
14376372437
14376377564
14376382752
14376386963
14376393311
14376398010
14376405334
14376409668
14376415405
14376420959
14376425720
14376432556
14376438232
14376444397
14376449341
14376454834
14376461609
14376467346
14376472412
14376479919
14376487060
14376496643
14376502929
14376508911
14376518432
14376526977
14376534240
14376541565
14376549438
14376556884
14376566040
14376573669
14376581726
14376590332
14376596313
14376603149
14376612609
14376621093
14376629943
14376636352
14376644531
14376651977
14376660156
14376667358
14376674072
14376682250
14376688476
14376695007
14376701049
14376705199
14376709716
14376716430
14376723144
14376726928
14376734191
14376740722
14376745849
14376751342
14376757018
14376763610
14376768615
14376772704
14376778564
14376783202
14376792296
14376797606
14376803222
14376808043
14376814086
14376818908
14376823668
14376830687
14376835570
14376843016
14376849303
14376855162
14376859374
14376867430
14376873656
14376882445
14376887816
14376892394
14376898009
14376900878
14376908873
14376914244
14376919615
14376924986
14376931944
14376936888
14376942687
14376947447
14376953063
14376957457
14376963500
14376968199
14376976195
14376981139
14376987547
14376991942
14376997618
14377002440
14377007750
14377014647
14377019713
14377024779
14377033812
14377040160
14377044859
14377052061
14377057493
14377064207
14377069761
14377075621
14377081907
14377087645
14377093565
14377100828
14377106688
14377112486
14377118406
14377125547
14377131102
14377136839
14377142576
14377149717
14377155882
14377160948
14377167845
14377173887
14377179930
14377185423
14377190123
14377196836
14377200621
14377207884
14377213255
14377218626
14377223997
14377229612
14377234922
14377242307
14377246763
14377252317
14377257871
14377265623
14377271604
14377277647
14377282041
14377287473
14377293516
14377298460
14377304929
14377309263
14377316099
14377321592
14377327451
14377331785
14377339536
14377345212
14377350217
14377353330
14377362485
14377367063
14377373166
14377379514
14377385068
14377388486
14377396482
14377402585
14377408811
14377413572
14377418271
14377425718
14377435666
14377441526
14377449216
14377455564
14377466550
14377471555
14377477353
14377483029
14377490598
14377496274
14377501645
14377507749
14377513974
14377517453
14377524289
14377529355
14377534726
14377541135
14377546750
14377550778
14377558713
14377564023
14377572202
14377579038
14377584653
14377592038
14377598019
14377605832
14377614377
14377619565
14377628049
14377636105
14377641782
14377648190
14377656247
14377662228
14377670834
14377677365
14377686093
14377693600
14377699338
14377705807
14377713803
14377723080
14377729672
14377736813
14377743954
14377750485
14377753476
14377760617
14377765622
14377771786
14377778317
14377783932
14377787655
14377794674
14377799252
14377805416
14377811825
14377818295
14377823666
14377827877
14377832821
14377839169
14377844052
14377850094
14377854305
14377862179
14377867001
14377872860
14377877438
14377882320
14377889339
14377893856
14377898678
14377904598
14377911556
14377915707
14377922359
14377928280
14377933529
14377937801
14377943355
14377946102
14377954281
14377957699
14377964840
14377970455
14377977474
14377981746
14377987545
14377992061
14377999202
14378003902
14378010189
14378014705
14378020199
14378026180
14378030819
14378036312
14378044124
14378052852
14378057918
14378064693
14378070980
14378080440
14378087825
14378095149
14378102962
14378109065
14378114192
14378120784
14378126583
14378131160
14378139705
14378143611
14378147395
14378153377
14378158931
14378163326
14378167964
14378173946
14378178401
14378184871
14378188899
14378195186
14378200130
14378204524
14378209529
14378214168
14378220332
14378226680
14378232539
14378237422
14378244502
14378249629
14378257747
14378261348
14378269526
14378275203
14378281306
14378285884
14378291194
14378296870
14378303096
14378308894
14378314692
14378320430
14378325862
14378331355
14378336970
14378343501
14378346858
14378354121
14378359004
14378367732
14378372981
14378378230
14378383723
14378388362
14378392634
14378399592
14378403803
14378411860
14378417109
14378422968
14378427180
14378431513
14378438288
14378442805
14378449091
14378454890
14378459956
14378465388
14378470515
14378476557
14378481867
14378486567
14378491816
14378497187
14378503352
14378508967
14378515009
14378519892
14378525141
14378530207
14378534174
14378538325
14378545832
14378550471
14378556086
14378560602
14378567560
14378572382
14378577143
14378585261
14378595759
14378602167
14378610224
14378618647
14378627070
14378638727
14378648615
14378659601
14378669001
14378676142
14378686701
14378694879
14378704950
14378716120
14378723505
14378731378
14378738519
14378745661
14378754450
14378760492
14378768854
14378774347
14378781732
14378786432
14378791132
14378795770
14378801263
14378807306
14378812006
14378816766
14378823724
14378828790
14378835077
14378839838
14378846185
14378851373
14378858148
14378864618
14378869195
14378873895
14378880304
14378885431
14378892877
14378897699
14378902948
14378908258
14378914300
14378921746
14378927667
14378933038
14378938897
14378944513
14378948968
14378955987
14378960015
14378967218
14378973565
14378979608
14378984979
14378990106
14378995660
14379003472
14379008538
14379015557
14379020135
14379026422
14379031793
14379039483
14379044610
14379051080
14379057549
14379064324
14379070245
14379077081
14379083245
14379088982
14379095330
14379101128
14379108330
14379112603
14379119622
14379128350
14379134453
14379139886
14379144219
14379155022
14379163567
14379171685
14379179009
14379183648
14379193474
14379198418
14379209527
14379214226
14379223443
14379230706
14379238274
14379243523
14379247734
14379259087
14379266838
14379273247
14379282280
14379288506
14379295525
14379302300
14379309075
14379316887
14379326836
14379335014
14379344536
14379351555
14379359123
14379365166
14379371513
14379380302
14379388969
14379395012
14379401115
14379406975
14379412529
14379417961
14379423454
14379429802
14379434929
14379441398
14379448051
14379454033
14379460625
14379466545
14379470939
14379475761
14379483696
14379489067
14379493400
14379501213
14379505974
14379511284
14379516105
14379522453
14379528312
14379534233
14379539299
14379545646
14379548637
14379558891
14379563896
14379570121
14379575370
14379581779
14379585075
14379593437
14379598258
14379604850
14379610038
14379615043
14379622428
14379627860
14379633720
14379640251
14379645866
14379652152
14379657645
14379662711
14379668754
14379675102
14379681388
14379686698
14379691825
14379696830
14379703849
14379708549
14379714164
14379721488
14379725272
14379731681
14379736381
14379743094
14379749625
14379757072
14379765555
14379772513
14379778251
14379786368
14379794730
14379803153
14379809806
14379817435
14379823539
14379832267
14379839164
14379845572
14379854483
14379861014
14379868827
14379875174
14379883109
14379889395
14379897757
14379904776
14379913504
14379922415
14379928519
14379937918
14379944937
14379950369
14379956534
14379960013
14379968863
14379973135
14379978506
14379984793
14379990836
14379996878
14380003226
14380008963
14380016775
14380023184
14380028555
14380035025
14380038077
14380047659
14380053213
14380057608
14380064383
14380068533
14380074392
14380079947
14380085501
14380089651
14380093924
14380099661
14380103811
14380109304
14380113577
14380119009
14380124197
14380128958
14380132681
14380138540
14380144155
14380147940
14380153799
14380157827
14380162649
14380168569
14380173452
14380178640
14380184439
14380190481
14380195181
14380200491
14380206594
14380212210
14380217642
14380223196
14380229543
14380236929
14380241873
14380247915
14380254018
14380259878
14380265432
14380270925
14380275503
14380282461
14380287466
14380292837
14380299306
14380304250
14380309988
14380314199
14380321401
14380325307
14380333059
14380338796
14380344533
14380349599
14380355153
14380360219
14380366140
14380372060
14380376821
14380381887
14380386892
14380393422
14380400014
14380405080
14380409353
14380414907
14380421804
14380428029
14380433156
14380438649
14380444204
14380450185
14380455007
14380459706
14380466786
14380474355
14380479360
14380484914
14380492299
14380498036
14380504201
14380509633
14380514943
14380520925
14380527150
14380533376
14380540212
14380546437
14380553029
14380558400
14380563527
14380568532
14380575490
14380580983
14380587697
14380594167
14380600026
14380605153
14380613454
14380620351
14380625600
14380630360
14380636037
14380640858
14380645070
14380650563
14380654835
14380659901
14380664906
14380668995
14380674000
14380679005
14380682789
14380687245
14380693104
14380698658
14380703053
14380708119
14380714589
14380719166
14380725209
14380730214
14380735035
14380739491
14380745900
14380749928
14380755482
14380760731
14380765980
14380771656
14380778126
14380785206
14380793141
14380800343
14380808033
14380813770
14380821949
14380827686
14380834950
14380844898
14380851429
14380861317
14380868214
14380877735
14380885792
14380892994
14380899097
14380909412
14380915028
14380923206
14380932850
14380939197
14380950428
14380959217
14380970752
14380980274
14380986927
14380996570
14381000843
14381007679
14381016834
14381022205
14381028614
14381035511
14381040332
14381046924
14381052356
14381056812
14381063709
14381069019
14381074878
14381077625
14381087085
14381093372
14381098010
14381103443
14381107959
14381112598
14381119434
14381126575
14381131397
14381136646
14381141834
14381148059
14381152026
14381156787
14381162402
14381170337
14381175281
14381181934
14381188159
14381194141
14381200793
14381205920
14381211780
14381219958
14381225513
14381232837
14381238330
14381243457
14381246997
14381253833
14381258227
14381263843
14381268359
14381273730
14381278369
14381283801
14381288318
14381292102
14381297656
14381302111
14381307361
14381313037
14381317004
14381323474
14381328662
14381333789
14381338855
14381342639
14381348254
14381352282
14381358874
14381364489
14381369128
14381373706
14381378344
14381382983
14381387560
14381391284
14381399890
14381403552
14381414538
14381419116
14381424426
14381428881
14381433215
14381438830
14381444994
14381449450
14381455187
14381459399
14381464098
14381469347
14381474413
14381479296
14381485522
14381491442
14381496752
14381501635
14381506640
14381510668
14381516650
14381522631
14381529223
14381534838
14381540331
14381544909
14381549975
14381554064
14381560778
14381565172
14381571337
14381577990
14381583544
14381588122
14381593981
14381597948
14381603014
14381609057
14381616381
14381622301
14381628466
14381632494
14381638781
14381643785
14381649889
14381653673
14381661241
14381665636
14381671495
14381675463
14381681139
14381686632
14381690477
14381696825
14381704881
14381710130
14381720140
14381727403
14381733568
14381741563
14381746751
14381754320
14381760851
14381766588
14381774767
14381782274
14381791185
14381798265
14381806688
14381813341
14381821214
14381827867
14381834093
14381841600
14381850267
14381856859
14381864244
14381871873
14381878953
14381888047
14381895738
14381902757
14381910569
14381917039
14381920823
14381933397
14381941087
14381948838
14381955796
14381963121
14381966539
14381974290
14381980943
14381987840
14381993455
14381998277
14382003587
14382008531
14382013902
14382018846
14382024156
14382030259
14382034837
14382041306
14382045640
14382050523
14382056260
14382061143
14382066026
14382072556
14382077378
14382083298
14382087510
14382093430
14382098740
14382103135
14382108750
14382115403
14382120835
14382125718
14382132065
14382136704
14382141831
14382149033
14382158249
14382162339
14382170273
14382173569
14382183091
14382187729
14382193528
14382199509
14382205857
14382212204
14382217148
14382221726
14382229050
14382234482
14382239975
14382244492
14382252732
14382257309
14382264511
14382269882
14382277634
14382285080
14382291062
14382297226
14382304917
14382309494
14382316757
14382322495
14382330612
14382336777
14382345505
14382353684
14382358688
14382364059
14382370529
14382375290
14382381760
14382386642
14382391769
14382398422
14382402756
14382407150
14382412704
14382417526
14382422714
14382427963
14382430771
14382439377
14382444259
14382449447
14382454330
14382459274
14382465011
14382471115
14382476425
14382484848
14382490341
14382495773
14382499984
14382505233
14382509201
14382515182
14382521652
14382527511
14382532272
14382537460
14382543502
14382549118
14382553939
14382559066
14382564926
14382570785
14382575729
14382580917
14382585128
14382591415
14382596176
14382601058
14382607894
14382614791
14382619552
14382624313
14382630966
14382635360
14382642501
14382647872
14382653426
14382658431
14382666183
14382671066
14382676681
14382682845
14382688949
14382694320
14382699996
14382705428
14382712447
14382718856
14382724654
14382729171
14382734603
14382741012
14382744552
14382751693
14382757613
14382762923
14382768538
14382775191
14382780379
14382786239
14382791304
14382798140
14382804793
14382815413
14382820601
14382829879
14382836348
14382844832
14382852034
14382861006
14382867537
14382877242
14382884627
14382891646
14382898299
14382907820
14382914473
14382921065
14382927779
14382938277
14382952681
14382960799
14382971907
14382980208
14382990340
14382997420
14383006087
14383011946
14383018111
14383022810
14383026900
14383033491
14383039107
14383042402
14383048018
14383053023
14383057112
14383062422
14383068709
14383073652
14383080732
14383085676
14383091414
14383096235
14383100691
14383105024
14383110029
14383114912
14383120649
14383127119
14383132856
14383137434
14383143476
14383148542
14383153852
14383158735
14383164106
14383169416
14383176924
14383182112
14383186201
14383190779
14383195905
14383203108
14383207258
14383213300
14383217878
14383225080
14383229719
14383235029
14383238935
14383246015
14383250959
14383256025
14383260908
14383267255
14383272016
14383277265
14383281904
14383288374
14383293684
14383298017
14383304182
14383309003
14383315534
14383320173
14383325605
14383331891
14383336774
14383340558
14383346906
14383352277
14383358503
14383363263
14383369001
14383372052
14383379072
14383384076
14383390058
14383394269
14383402509
14383408063
14383411420
14383417951
14383422589
14383428998
14383433820
14383438947
14383443097
14383450727
14383454450
14383460309
14383464765
14383470502
14383477338
14383481183
14383486188
14383496808
14383502362
14383507977
14383513654
14383519757
14383524762
14383531232
14383536786
14383545514
14383550519
14383555707
14383563275
14383569623
14383575177
14383582379
14383587567
14383592816
14383599164
14383606000
14383611066
14383615643
14383621319
14383626629
14383631695
14383637555
14383643048
14383648053
14383653851
14383658368
14383663495
14383667645
14383674054
14383678448
14383686505
14383690411
14383695721
14383702923
14383707196
14383713787
14383719036
14383724591
14383729840
14383738446
14383742962
14383748638
14383754620
14383759136
14383765240
14383770855
14383775921
14383782940
14383787884
14383792339
14383798931
14383804058
14383811138
14383816204
14383821392
14383827313
14383833233
14383838543
14383844280
14383847881
14383858501
14383864849
14383874065
14383883526
14383891827
14383898174
14383904278
14383914226
14383921123
14383928509
14383935711
14383944317
14383952373
14383960857
14383969768
14383975872
14383982341
14383992290
14383998699
14384007915
14384014812
14384024578
14384031658
14384040508
14384047954
14384053691
14384063579
14384067241
14384074565
14384080120
14384085918
14384088970
14384096721
14384101055
14384107707
14384112712
14384119487
14384123943
14384131145
14384135600
14384140971
14384147990
14384153362
14384158977
14384164409
14384170146
14384173198
14384181438
14384188213
14384196818
14384203288
14384208537
14384216350
14384221965
14384228740
14384236857
14384241374
14384248149
14384253398
14384259990
14384263713
14384269938
14384275615
14384283183
14384288188
14384294291
14384299296
14384303996
14384308146
14384315043
14384319377
14384327922
14384332255
14384337443
14384344767
14384349772
14384354289
14384359538
14384363688
14384370341
14384375834
14384381388
14384386210
14384391581
14384397013
14384402201
14384406413
14384412394
14384416422
14384422587
14384428324
14384432597
14384438639
14384442484
14384449076
14384454142
14384460734
14384466410
14384471598
14384476725
14384482889
14384488810
14384493021
14384500529
14384507487
14384513224
14384518778
14384524088
14384529947
14384535013
14384540873
14384546732
14384553385
14384557779
14384563761
14384570780
14384575235
14384580545
14384586588
14384594095
14384600382
14384607950
14384613260
14384620890
14384626505
14384633707
14384638651
14384643778
14384650492
14384656229
14384661600
14384667276
14384672708
14384678812
14384684000
14384689493
14384696451
14384702677
14384708170
14384713663
14384718057
14384725259
14384728311
14384736429
14384740762
14384748575
14384753030
14384757913
14384764566
14384769388
14384776651
14384781656
14384790140
14384796792
14384803567
14384809915
14384817300
14384821756
14384829996
14384837442
14384843179
14384849099
14384852884
14384858926
14384865335
14384869973
14384874734
14384881570
14384886087
14384893533
14384898172
14384904458
14384908975
14384916177
14384921487
14384927468
14384932717
14384944131
14384951150
14384957986
14384964395
14384972940
14384980020
14384987954
14384994302
14385002236
14385009194
14385018594
14385024636
14385032143
14385039346
14385046731
14385054665
14385060952
14385070412
14385076211
14385084756
14385090554
14385099099
14385106728
14385115517
14385125039
14385130593
14385138161
14385142495
14385147194
14385154702
14385159462
14385168252
14385173562
14385179116
14385183632
14385189736
14385194558
14385201394
14385205910
14385213906
14385219521
14385225197
14385230507
14385235756
14385240883
14385246315
14385252419
14385259682
14385264382
14385270546
14385276894
14385282692
14385288185
14385294167
14385299599
14385307778
14385311989
14385318153
14385324623
14385331642
14385337685
14385343239
14385348061
14385354652
14385359596
14385366432
14385372292
14385377907
14385382606
14385387428
14385394386
14385400123
14385405678
14385412880
14385420692
14385427711
14385432960
14385437904
14385444313
14385450721
14385459816
14385465004
14385471534
14385477760
14385482521
14385487098
14385492225
14385498390
14385504554
14385509803
14385514686
14385519203
14385524269
14385530494
14385536659
14385541847
14385551185
14385555702
14385561256
14385566322
14385571632
14385577125
14385582252
14385586402
14385593299
14385597816
14385604041
14385608680
14385614661
14385619056
14385625892
14385630592
14385637367
14385642616
14385647926
14385654395
14385659095
14385666114
14385671180
14385676368
14385681190
14385689185
14385694617
14385700172
14385705237
14385710914
14385716651
14385721412
14385727881
14385735206
14385740760
14385746436
14385751197
14385757178
14385761817
14385766822
14385774329
14385781348
14385788001
14385793128
14385799170
14385804175
14385811316
14385815284
14385823523
14385829383
14385835730
14385841712
14385847083
14385852332
14385858863
14385862891
14385869116
14385874182
14385881751
14385888037
14385893775
14385898718
14385906287
14385912451
14385916663
14385922949
14385929419
14385935339
14385939978
14385946326
14385949805
14385956457
14385960425
14385967261
14385974280
14385980871
14385986121
14385991064
14385996985
14386005896
14386013159
14386021765
14386030981
14386038183
14386049475
14386061621
14386068457
14386079504
14386087194
14386094702
14386101477
14386111669
14386120336
14386127905
14386135412
14386144628
14386155493
14386161779
14386168798
14386177526
14386185217
14386191442
14386198889
14386205541
14386213049
14386217931
14386224523
14386227575
14386233862
14386239111
14386245580
14386250097
14386258031
14386261449
14386270116
14386276098
14386282201
14386285558
14386294713
14386300756
14386306798
14386311986
14386317724
14386323400
14386329381
14386332616
14386340917
14386346166
14386354528
14386359350
14386365697
14386370458
14386376989
14386381871
14386386815
14386395055
14386400731
14386407567
14386412450
14386419408
14386423986
14386430638
14386436559
14386441320
14386447850
14386454503
14386460118
14386466405
14386473363
14386480382
14386486974
14386490636
14386498876
14386503026
14386511205
14386518346
14386524083
14386529759
14386537511
14386541844
14386548802
14386553502
14386560155
14386564976
14386571629
14386577611
14386582127
14386592686
14386599400
14386604893
14386611424
14386617222
14386623875
14386629124
14386635960
14386640904
14386648350
14386653782
14386662144
14386668431
14386675450
14386682530
14386689671
14386695713
14386703953
14386710362
14386717625
14386723118
14386727391
14386738682
14386744847
14386750950
14386754795
14386761021
14386765232
14386772129
14386777378
14386784519
14386789036
14386795933
14386801182
14386806248
14386813084
14386817478
14386824375
14386829258
14386835117
14386839512
14386845676
14386850010
14386855991
14386861851
14386867161
14386872654
14386881077
14386885288
14386891758
14386897251
14386904697
14386908420
14386915134
14386921970
14386927891
14386933872
14386940769
14386945347
14386952671
14386958713
14386964389
14386970188
14386976963
14386980930
14386987095
14386993442
14386999118
14387006443
14387011997
14387018589
14387024997
14387031772
14387036838
14387043369
14387047580
14387054355
14387059299
14387066806
14387072727
14387080478
14387087070
14387094821
14387100253
14387107944
14387117709
14387123325
14387131015
14387136081
14387145480
14387151889
14387158481
14387163669
14387172885
14387181369
14387188815
14387192905
14387202365
14387210971
14387218051
14387225802
14387234897
14387242770
14387250338
14387258090
14387263888
14387266818
14387275485
14387286593
14387291415
14387302401
14387305819
14387313449
14387318820
14387326876
14387332003
14387337741
14387340853
14387346285
14387350375
14387355319
14387359286
14387364230
14387368380
14387374362
14387379794
14387384860
14387389498
14387394564
14387399386
14387404452
14387410250
14387414278
14387420016
14387424105
14387431002
14387435580
14387441134
14387445284
14387452731
14387457308
14387463045
14387468600
14387473788
14387477877
14387482882
14387488985
14387494784
14387499300
14387505221
14387511080
14387514437
14387520846
14387525423
14387531771
14387537020
14387543673
14387550142
14387554476
14387560152
14387565157
14387571138
14387576326
14387579256
14387588900
14387595308
14387600679
14387605745
14387611238
14387616609
14387622469
14387626924
14387633943
14387640779
14387644991
14387649996
14387657015
14387662935
14387667330
14387673006
14387679353
14387686434
14387691622
14387699861
14387704439
14387709627
14387714510
14387721590
14387725801
14387733064
14387739290
14387744722
14387749239
14387754732
14387761507
14387767122
14387772066
14387780183
14387785371
14387791597
14387796174
14387801240
14387808137
14387812898
14387818086
14387824495
14387832063
14387838350
14387843660
14387852876
14387859773
14387866548
14387870149
14387880464
14387887788
14387892610
14387899202
14387904267
14387907807
14387913301
14387919160
14387925019
14387930635
14387936067
14387940827
14387946076
14387951570
14387957490
14387961884
14387967927
14387972932
14387978364
14387984345
14387989961
14387994172
14387999055
14388005586
14388010407
14388016633
14388021394
14388027985
14388032563
14388038667
14388042512
14388049287
14388053620
14388063081
14388068330
14388073823
14388079926
14388085419
14388091218
14388097870
14388104645
14388115204
14388123139
14388129914
14388137116
14388146637
14388154206
14388160737
14388168061
14388176972
14388184540
14388191437
14388200409
14388207367
14388214264
14388222809
14388230683
14388239289
14388247162
14388253144
14388261078
14388269867
14388275726
14388284088
14388292877
14388298615
14388305328
14388310883
14388315643
14388322296
14388326630
14388333466
14388338715
14388345917
14388350433
14388356537
14388361603
14388365509
14388371063
14388376922
14388383880
14388390777
14388396271
14388401398
14388406769
14388412140
14388418121
14388423675
14388428863
14388435150
14388440643
14388446197
14388450775
14388456756
14388461456
14388469574
14388480133
14388487396
14388494049
14388500274
14388506317
14388512115
14388517974
14388525848
14388531158
14388536102
14388542816
14388547515
14388553069
14388557830
14388561981
14388568939
14388573943
14388579559
14388584930
14388588897
14388592925
14388599761
14388604827
14388610137
14388614776
14388621612
14388626739
14388633636
14388639617
14388643340
14388649810
14388655364
14388660735
14388667693
14388673125
14388679351
14388684478
14388689788
14388695586
14388700530
14388707610
14388713714
14388721953
14388728240
14388733611
14388738250
14388743926
14388750457
14388755034
14388759429
14388767180
14388772185
14388778350
14388783355
14388789885
14388794402
14388800078
14388805693
14388810576
14388818022
14388824187
14388829314
14388834075
14388839690
14388844756
14388850859
14388856291
14388863616
14388869231
14388873686
14388881621
14388885954
14388895781
14388903777
14388909819
14388921233
14388926299
14388936736
14388943144
14388953764
14388961027
14388968718
14388974333
14388981474
14388986235
14388991789
14388999541
14389004790
14389010344
14389017485
14389023710
14389031706
14389037809
14389043608
14389049833
14389053373
14389061918
14389066679
14389072233
14389077177
14389084379
14389089445
14389098478
14389103605
14389112028
14389123991
14389132170
14389139433
14389145231
14389153288
14389158781
14389164518
14389169828
14389175871
14389182401
14389186125
14389191435
14389198148
14389203886
14389209196
14389216459
14389222501
14389230314
14389238004
14389244901
14389252714
14389257597
14389265348
14389273405
14389280240
14389286954
14389295316
14389301969
14389308072
14389315824
14389321866
14389329801
14389338712
14389346952
14389354215
14389361051
14389368497
14389374234
14389382291
14389387784
14389395597
14389401151
14389408231
14389413053
14389418241
14389424283
14389431058
14389436795
14389442044
14389448514
14389453458
14389458646
14389464444
14389469327
14389475308
14389479825
14389487698
14389494107
14389499600
14389504971
14389509427
14389515775
14389519986
14389526944
14389531766
14389538785
14389545438
14389550565
14389555264
14389562222
14389567349
14389573270
14389578885
14389586575
14389591641
14389597684
14389604703
14389609280
14389614163
14389620938
14389625332
14389644131
14389649075
14389655850
14389660366
14389665432
14389671841
14389677212
14389684475
14389688870
14389694546
14389699917
14389705715
14389711636
14389717861
14389723477
14389732754
14389739346
14389744839
14389749905
14389757412
14389761807
14389769741
14389774624
14389782436
14389785549
14389792385
14389798183
14389803555
14389809048
14389814175
14389818630
14389826443
14389830959
14389837246
14389841824
14389848110
14389852261
14389858547
14389863613
14389869106
14389875942
14389881008
14389887600
14389891689
14389897732
14389902797
14389907741
14389914516
14389921901
14389926784
14389932460
14389937648
14389944851
14389949428
14389955288
14389961269
14389967067
14389972805
14389978969
14389982326
14389989223
14389993679
14389999294
14390006313
14390011135
14390018032
14390023159
14390028224
14390034206
14390039516
14390044765
14390050380
14390056789
14390064174
14390070400
14390076137
14390081630
14390087795
14390093715
14390098232
14390102809
14390113063
14390118617
14390124171
14390130153
14390134853
14390139613
14390146327
14390152309
14390158900
14390163661
14390169093
14390175685
14390179286
14390186915
14390192775
14390197963
14390200892
14390208461
14390215297
14390219508
14390226100
14390231715
14390236659
14390242396
14390247584
14390254786
14390260341
14390268275
14390277064
14390283168
14390291529
14390297450
14390306117
14390314540
14390322596
14390331019
14390337550
14390347804
14390353907
14390361170
14390371180
14390383082
14390391444
14390402186
14390407801
14390416285
14390422755
14390430811
14390435755
14390444605
14390453944
14390459437
14390467188
14390472254
14390477137
14390484156
14390491846
14390498438
14390502649
14390509791
14390514307
14390520044
14390525904
14390530665
14390538294
14390543665
14390549891
14390554529
14390560144
14390566980
14390573145
14390578089
14390584803
14390590113
14390596704
14390602564
14390608301
14390612818
14390618921
14390623804
14390631555
14390638513
14390644983
14390649744
14390654993
14390660181
14390666895
14390672449
14390678125
14390683557
14390688623
14390695825
14390699976
14390707727
14390712488
14390718408
14390724268
14390732141
14390738245
14390742761
14390747583
14390754907
14390759302
14390764673
14390771265
14390778772
14390783716
14390789941
14390796289
14390801416
14390806421
14390812402
14390818017
14390824731
14390830713
14390837182
14390842370
14390847741
14390853784
14390859521
14390865319
14390871484
14390879357
14390884668
14390890954
14390896386
14390901574
14390908898
14390915368
14390921533
14390928308
14390936120
14390940331
14390947595
14390951867
14390957971
14390964379
14390972192
14390978234
14390984521
14390995019
14391000512
14391008996
14391015771
14391023278
14391031457
14391036889
14391042382
14391047204
14391054406
14391059106
14391065148
14391071923
14391078515
14391085045
14391091027
14391096825
14391101525
14391108422
14391114586
14391120568
14391127160
14391133324
14391139367
14391146203
14391152245
14391157250
14391164696
14391169640
14391177697
14391184349
14391194969
14391202599
14391213890
14391223107
14391231224
14391242394
14391249962
14391259239
14391270470
14391279991
14391288048
14391295250
14391304100
14391311974
14391320396
14391327965
14391338524
14391345726
14391353538
14391361595
14391369346
14391378074
14391385338
14391394127
14391402488
14391410789
14391417137
14391431968
14391441124
14391450096
14391459434
14391468528
14391479942
14391489341
14391497459
14391506187
14391516990
14391525962
14391534507
14391545432
14391552696
14391565269
14391574668
14391583640
14391592857
14391601585
14391612449
14391620689
14391632224
14391643211
14391651877
14391656211
14391669028
14391675559
14391684470
14391692771
14391698813
14391708457
14391722800
14391731528
14391739463
14391748557
14391759970
14391769431
14391778098
14391787131
14391794760
14391803305
14391812277
14391821005
14391830283
14391837668
14391846091
14391852927
14391861838
14391872580
14391880515
14391890036
14391896872
14391905478
14391913779
14391923422
14391931418
14391939474
14391948447
14391955282
14391963034
14391972006
14391977438
14391986410
14391995505
14392003744
14392013449
14392023336
14392030539
14392037680
14392045553
14392053000
14392060751
14392068685
14392077108
14392084494
14392092672
14392100119
14392109213
14392116781
14392124410
14392132345
14392140341
14392148275
14392156210
14392165243
14392172750
14392181234
14392189047
14392193197
14392205221
14392212484
14392222494
14392231710
14392238851
14392247579
14392254659
14392262716
14392269674
14392277120
14392285909
14392294210
14392303060
14392309285
14392318380
14392326741
14392334981
14392343038
14392349324
14392358724
14392366841
14392374410
14392384175
14392392720
14392400777
14392408162
14392415486
14392423482
14392431294
14392440999
14392447774
14392455892
14392465840
14392473409
14392480794
14392491231
14392499165
14392508992
14392520406
14392525349
14392530965
14392537190
14392543172
14392547017
14392552571
14392556843
14392562459
14392567769
14392571797
14392579121
14392584187
14392589497
14392592976
14392598958
14392603047
14392608540
14392612568
14392618245
14392623066
14392626423
14392631733
14392635029
14392640400
14392642781
14392650593
14392654683
14392659993
14392663594
14392668660
14392675251
14392680744
14392688252
14392695820
14392701008
14392708149
14392715168
14392719807
14392727680
14392734944
14392741657
14392748737
14392757404
14392762714
14392770832
14392777058
14392785908
14392792316
14392801105
14392808674
14392814411
14392821735
14392827106
14392836018
14392841511
14392848163
14392852924
14392857563
14392862140
14392866840
14392871479
14392876667
14392881428
14392887348
14392891437
14392897541
14392901325
14392908771
14392914631
14392919697
14392926105
14392932697
14392939228
14392942463
14392952167
14392958088
14392962970
14392967426
14392974262
14392979694
14392985736
14392990741
14392994953
14393000324
14393003986
14393010578
14393014667
14393020038
14393026386
14393032062
14393037433
14393043170
14393046283
14393055255
14393060748
14393065936
14393072223
14393076434
14393080646
14393085651
14393091998
14393096576
14393101031
14393106036
14393110675
14393115253
14393120929
14393125507
14393130389
14393134967
14393140277
14393144916
14393148456
14393155414
14393159808
14393167743
14393171771
14393178302
14393183429
14393188678
14393193255
14393197772
14393204181
14393208941
14393213580
14393219928
14393224322
14393231280
14393235980
14393241229
14393246295
14393252276
14393255145
14393262713
14393266864
14393273577
14393278643
14393285235
14393289935
14393297381
14393301837
14393306964
14393315081
14393323077
14393329913
14393338519
14393344805
14393350726
14393357623
14393364825
14393371783
14393376605
14393382586
14393388873
14393395037
14393401263
14393405840
14393410540
14393416094
14393422137
14393428057
14393433245
14393440142
14393444659
14393449969
14393455034
14393459673
14393465838
14393470049
14393476458
14393481707
14393488054
14393492571
14393496721
14393501116
14393507219
14393512529
14393517717
14393522600
14393528948
14393533831
14393538897
14393543840
14393548357
14393554338
14393559771
14393567583
14393574602
14393581133
14393587969
14393595232
14393600847
14393607744
14393614763
14393619219
14393626482
14393633928
14393639421
14393647722
14393654985
14393658525
14393667986
14393673540
14393684587
14393691118
14393698808
14393704118
14393713213
14393720415
14393727739
14393736528
14393746660
14393751970
14393761247
14393768571
14393775529
14393783647
14393792680
14393799699
14393806779
14393813798
14393821733
14393827165
14393831804
14393832963
14393842424
14393847795
14393852311
14393856950
14393861406
14393865739
14393872758
14393877336
14393883805
14393889665
14393895280
14393901078
14393905839
14393909989
14393917436
14393922135
14393929460
14393932694
14393939774
14393945329
14393951127
14393956315
14393961747
14393966081
14393972428
14393977128
14393982865
14393989030
14393992509
14393999162
14394005326
14394010148
14394016190
14394022843
14394027238
14394033768
14394038041
14394043351
14394048478
14394054398
14394059769
14394065323
14394070450
14394075699
14394080826
14394086930
14394091935
14394098832
14394104325
14394110367
14394116227
14394121964
14394126542
14394132218
14394135636
14394143143
14394147538
14394155167
14394160355
14394165482
14394173416
14394179886
14394185990
14394193619
14394199723
14394207596
14394214005
14394225418
14394230728
14394235855
14394241959
14394247940
14394253494
14394258377
14394265396
14394270157
14394276871
14394280594
14394288589
14394293228
14394300613
14394305008
14394312149
14394316605
14394324966
14394331314
14394335770
14394344192
14394349747
14394354324
14394359817
14394366043
14394371048
14394375625
14394381363
14394385757
14394391556
14394397232
14394401931
14394408035
14394411880
14394417984
14394425491
14394432449
14394438125
14394443801
14394448257
14394451126
14394457534
14394462295
14394468826
14394475051
14394480361
14394485244
14394491775
14394496475
14394501541
14394506851
14394513687
14394518875
14394525222
14394529739
14394534744
14394541091
14394545669
14394551101
14394556533
14394562759
14394567825
14394574050
14394578872
14394582412
14394588638
14394594314
14394600784
14394607192
14394613235
14394618789
14394624343
14394629836
14394637282
14394646316
14394654006
14394661635
14394669509
14394678908
14394687392
14394695571
14394705397
14394712844
14394721755
14394732009
14394740615
14394750747
14394758193
14394765395
14394773513
14394787001
14394795119
14394803481
14394814101
14394821852
14394830031
14394839797
14394849684
14394855849
14394863112
14394868178
14394875075
14394878188
14394886488
14394892775
14394898878
14394902174
14394908522
14394914931
14394919630
14394924208
14394929335
14394935805
14394941420
14394947218
14394952589
14394957960
14394963942
14394969008
14394974989
14394980421
14394986036
14394991224
14394996595
14395000074
14395007155
14395011854
14395017592
14395022108
14395030592
14395033888
14395041822
14395045240
14395054029
14395059217
14395067091
14395073805
14395080702
14395084120
14395091200
14395096937
14395102735
14395110731
14395117262
14395123243
14395127821
14395135267
14395141432
14395148206
14395152113
14395159437
14395166151
14395170606
14395178846
14395185499
14395190809
14395196363
14395202528
14395207777
14395213758
14395217176
14395226087
14395232923
14395238904
14395244398
14395252027
14395258314
14395263502
14395269483
14395276563
14395282483
14395287732
14395294812
14395300794
14395307813
14395314344
14395320203
14395325513
14395332715
14395337720
14395344129
14395352063
14395358106
14395363965
14395370740
14395376844
14395383130
14395389539
14395395154
14395403821
14395412000
14395420850
14395429334
14395436536
14395446057
14395453015
14395460767
14395467542
14395472546
14395477917
14395483044
14395488599
14395492993
14395498059
14395503369
14395508801
14395513928
14395519116
14395524609
14395529492
14395535351
14395541455
14395547192
14395552991
14395558056
14395563122
14395567639
14395572339
14395577038
14395582226
14395587597
14395593396
14395597729
14395603405
14395608715
14395614331
14395620373
14395625927
14395630688
14395636181
14395641186
14395647107
14395652111
14395658215
14395662670
14395667248
14395673718
14395678723
14395686108
14395691296
14395696362
14395702038
14395707409
14395712841
14395717602
14395723950
14395729565
14395734570
14395740734
14395747509
14395754528
14395758190
14395763561
14395769726
14395775768
14395781933
14395787975
14395793835
14395798290
14395803173
14395809765
14395814892
14395822033
14395827221
14395834057
14395839794
14395845836
14395851147
14395857250
14395863476
14395868297
14395876049
14395881420
14395888256
14395891674
14395898754
14395903576
14395908580
14395914135
14395919567
14395925365
14395930431
14395935863
14395940746
14395945934
14395950023
14395959240
14395966381
14395971935
14395979503
14395984569
14395989879
14395995372
14396002025
14396009288
14396020397
14396026195
14396031261
14396038524
14396044872
14396050060
14396056590
14396064220
14396070018
14396074352
14396079601
14396085094
14396091136
14396096202
14396100597
14396107371
14396111339
14396117015
14396122264
14396128734
14396134532
14396140025
14396146129
14396150767
14396156871
14396162242
14396167125
14396173167
14396177867
14396184153
14396189097
14396194468
14396201182
14396205821
14396211985
14396216136
14396222850
14396227366
14396234935
14396240550
14396248179
14396252757
14396257945
14396264781
14396271006
14396275157
14396281138
14396286936
14396293955
14396299815
14396305735
14396311045
14396316905
14396322032
14396327464
14396334605
14396339243
14396345042
14396351817
14396357859
14396362009
14396368357
14396374705
14396380442
14396386118
14396391856
14396395335
14396403696
14396408457
14396413767
14396419565
14396425547
14396431284
14396437632
14396444834
14396450510
14396456125
14396460093
14396466440
14396473093
14396479014
14396484324
14396491221
14396496836
14396502573
14396506052
14396513376
14396519541
14396526072
14396529123
14396538462
14396543039
14396548227
14396553598
14396560312
14396565317
14396571787
14396577829
14396584421
14396590158
14396596140
14396601633
14396608164
14396616037
14396622629
14396629892
14396633737
14396643076
14396652109
14396659433
14396665048
14396671701
14396677499
14396682931
14396689767
14396697031
14396703805
14396708566
14396715524
14396720468
14396726266
14396732675
14396736886
14396741769
14396748422
14396753305
14396758615
14396765695
14396770028
14396775094
14396780954
14396786508
14396792428
14396798227
14396802255
14396809762
14396814645
14396821054
14396827096
14396833871
14396837472
14396845346
14396850473
14396855844
14396861459
14396867623
14396873300
14396881295
14396886422
14396891244
14396897958
14396903451
14396909738
14396914193
14396920052
14396926278
14396931893
14396938241
14396945016
14396948434
14396956796
14396961617
14396967965
14396974862
14396981393
14396986275
14396991524
14396999703
14397005379
14397012887
14397017586
14397023751
14397026925
14397037362
14397044137
14397050606
14397056527
14397064034
14397069039
14397076973
14397081917
14397087227
14397094429
14397099373
14397107064
14397113289
14397118966
14397125008
14397131112
14397138375
14397144539
14397150154
14397156685
14397159981
14397167916
14397172859
14397180123
14397187081
14397191719
14397199471
14397205452
14397211006
14397216988
14397224007
14397228340
14397236214
14397243172
14397252205
14397258431
14397263496
14397269539
14397279793
14397285286
14397292244
14397298042
14397302132
14397307808
14397312019
14397318611
14397322456
14397328682
14397334541
14397341072
14397346504
14397351387
14397356941
14397363472
14397367805
14397374092
14397381416
14397386726
14397393928
14397398567
14397403633
14397407905
14397412117
14397417671
14397420356
14397430183
14397435066
14397442573
14397447517
14397451301
14397455329
14397462043
14397468147
14397475044
14397481513
14397485542
14397492439
14397499458
14397504829
14397509834
14397515449
14397520576
14397525031
14397530830
14397535224
14397542304
14397547797
14397554633
14397560065
14397565559
14397571540
14397576484
14397584235
14397588569
14397595161
14397600532
14397607001
14397614570
14397620124
14397625190
14397631049
14397638068
14397644050
14397648993
14397655585
14397658759
14397665717
14397670234
14397677619
14397683356
14397688605
14397695258
14397701850
14397706427
14397713446
14397719184
14397725104
14397733222
14397738898
14397744940
14397752021
14397757697
14397763861
14397769171
14397775702
14397780890
14397785651
14397791144
14397794196
14397803717
14397807868
14397814581
14397820746
14397827460
14397833991
14397839911
14397846625
14397852545
14397857001
14397864203
14397872687
14397877631
14397884894
14397890265
14397897833
14397902533
14397909308
14397914862
14397921026
14397926337
14397931708
14397937018
14397943793
14397950323
14397955938
14397961249
14397966620
14397969610
14397976690
14397981512
14397989630
14397994818
14398000921
14398006659
14398012091
14398017767
14398023260
14398026434
14398034185
14398039740
14398046331
14398053106
14398057745
14398063848
14398067877
14398075384
14398080023
14398087896
14398094305
14398099676
14398107061
14398112798
14398118780
14398123541
14398130865
14398135748
14398140752
14398148443
14398153204
14398159734
14398164678
14398170965
14398177740
14398183904
14398189764
14398196233
14398201971
14398207525
14398213018
14398218572
14398225347
14398232244
14398238408
14398244390
14398250188
14398256475
14398261968
14398267827
14398273931
14398278508
14398284734
14398290777
14398296148
14398301885
14398306768
14398312627
14398317510
14398326421
14398331365
14398337102
14398341130
14398348027
14398351689
14398357610
14398365178
14398371404
14398375188
14398382451
14398387212
14398392705
14398399419
14398405889
14398411138
14398421086
14398429082
14398437810
14398445134
14398450383
14398458379
14398462590
14398469487
14398475224
14398483159
14398487797
14398495183
14398499577
14398505131
14398510991
14398517522
14398522893
14398529851
14398534611
14398539128
14398545598
14398549687
14398556401
14398563481
14398569218
14398574894
14398579777
14398584843
14398591557
14398595524
14398601139
14398605534
14398610234
14398616398
14398622746
14398627385
14398632511
14398636357
14398643071
14398649235
14398655827
14398661991
14398666996
14398673771
14398678715
14398687016
14398690373
14398698490
14398703556
14398707523
14398715885
14398721867
14398726444
14398731449
14398737431
14398743961
14398750065
14398757023
14398762699
14398767094
14398773441
14398776432
14398784489
14398791569
14398800541
14398805607
14398811405
14398817264
14398824161
14398829960
14398835880
14398841800
14398847782
14398852665
14398860050
14398864567
14398870975
14398875675
14398880069
14398887821
14398894474
14398900394
14398906559
14398913822
14398920047
14398924808
14398931034
14398937259
14398944889
14398950260
14398955142
14398962345
14398966800
14398973392
14398978641
14398985172
14398990054
14398998721
14399005435
14399012454
14399019718
14399027286
14399036685
14399043460
14399048770
14399058963
14399063785
14399071658
14399076114
14399083316
14399088138
14399094363
14399099856
14399105716
14399111026
14399115787
14399121280
14399127627
14399132022
14399137454
14399144412
14399151004
14399158023
14399163455
14399168521
14399174685
14399178042
14399184939
14399191775
14399196780
14399202212
14399208194
14399214236
14399219790
14399225100
14399231021
14399237857
14399242617
14399249392
14399255740
14399262271
14399268618
14399273013
14399279788
14399284060
14399290103
14399295596
14399301516
14399306826
14399313296
14399317873
14399323672
14399328555
14399336367
14399341006
14399347536
14399352724
14399358523
14399364809
14399371645
14399379458
14399388003
14399394594
14399401797
14399407717
14399413210
14399420290
14399426211
14399431460
14399436709
14399443361
14399447634
14399454287
14399459475
14399465090
14399473024
14399478273
14399483095
14399489931
14399495607
14399501528
14399507814
14399513430
14399519228
14399524416
14399530519
14399537050
14399542055
14399548403
14399553835
14399559877
14399564638
14399571352
14399578554
14399584719
14399590517
14399594789
14399599672
14399607179
14399612184
14399620668
14399626100
14399634950
14399641237
14399646730
14399651674
14399659853
14399666383
14399671144
14399677675
14399685548
14399692750
14399697511
14399704957
14399710451
14399714296
14399719484
14399725709
14399729799
14399736757
14399740724
14399746644
14399750917
14399757753
14399762941
14399770509
14399776185
14399783082
14399786561
14399793824
14399799440
14399803407
14399807679
14399815370
14399820375
14399825746
14399830629
14399835939
14399840882
14399846009
14399851625
14399855714
14399861878
14399867188
14399873231
14399879518
14399884156
14399889771
14399896913
14399905152
14399911622
14399918519
14399921204
14399929200
14399935609
14399941224
14399947327
14399953126
14399960084
14399965638
14399971680
14399976258
14399982789
14399988587
14399992982
14400000123
14400004761
14400011536
14400016358
14400022889
14400030274
14400034607
14400041871
14400048096
14400054566
14400060608
14400069520
14400073731
14400079224
14400084229
14400090821
14400096924
14400104004
14400108887
14400116150
14400121704
14400127076
14400133484
14400138367
14400144470
14400149475
14400156494
14400163025
14400168030
14400174072
14400180420
14400187195
14400192749
14400199707
14400205444
14400211243
14400217285
14400226502
14400230957
14400239624
14400245361
14400254578
14400260620
14400267334
14400274658
14400280762
14400287720
14400291870
14400298462
14400302917
14400308349
14400314758
14400320434
14400325683
14400331116
14400338074
14400343811
14400350464
14400355713
14400362915
14400368774
14400375000
14400379150
14400385254
14400389404
14400395813
14400400817
14400406982
14400413574
14400418823
14400424255
14400429077
14400434143
14400440917
14400447509
14400453552
14400458862
14400464172
14400469238
14400476379
14400482665
14400487548
14400493041
14400500121
14400505065
14400511108
14400517455
14400525085
14400531127
14400538573
14400544799
14400550231
14400555907
14400561523
14400567382
14400573424
14400578918
14400581908
14400589904
14400596923
14400603271
14400607726
14400612548
14400619567
14400623656
14400630187
14400635009
14400642821
14400648436
14400655211
14400660277
14400670714
14400675048
14400681823
14400688353
14400694030
14400697936
14400705016
14400710448
14400715514
14400720946
14400726561
14400732909
14400738768
14400743163
14400750365
14400757018
14400763487
14400769652
14400776915
14400783568
14400789244
14400794249
14400801329
14400806334
14400813658
14400818419
14400824461
14400830626
14400839476
14400850706
14400856993
14400865599
14400871214
14400878416
14400883299
14400892454
14400897398
14400905821
14400910704
14400915465
14400920347
14400925108
14400930479
14400937742
14400943419
14400949522
14400955381
14400962156
14400967772
14400972410
14400979490
14400983641
14400990538
14400994627
14401001585
14401007933
14401013365
14401018980
14401025145
14401030821
14401035948
14401040464
14401047056
14401051329
14401057920
14401063169
14401071043
14401076353
14401082945
14401089048
14401094236
14401099729
14401104917
14401111753
14401118894
14401124326
14401129392
14401135862
14401141233
14401145811
14401153074
14401157407
14401165159
14401170530
14401176450
14401181760
14401187437
14401193784
14401199521
14401204771
14401213376
14401218503
14401224241
14401229123
14401234800
14401241575
14401247373
14401250303
14401258848
14401264890
14401271543
14401280881
14401286741
14401293027
14401298642
14401304746
14401311093
14401316465
14401322507
14401327024
14401333615
14401338071
14401346067
14401352048
14401358151
14401364255
14401369931
14401375424
14401381040
14401386105
14401392148
14401398312
14401406735
14401411557
14401418820
14401423276
14401433102
14401438351
14401444455
14401453427
14401459714
14401466000
14401472775
14401478696
14401485104
14401490842
14401496701
14401499447
14401508786
14401513974
14401518918
14401523678
14401529538
14401535885
14401540463
14401544980
14401551693
14401555966
14401562314
14401568112
14401571652
14401576718
14401583676
14401588559
14401596066
14401600521
14401606686
14401611019
14401615109
14401621945
14401627133
14401634091
14401640682
14401646542
14401652340
14401657711
14401663876
14401670040
14401674435
14401680905
14401687008
14401692867
14401697933
14401704342
14401709957
14401716061
14401720760
14401727413
14401733028
14401741512
14401746395
14401751400
14401756954
14401764156
14401770443
14401775143
14401781002
14401784237
14401792782
14401798275
14401804989
14401810604
14401817135
14401821712
14401828243
14401833614
14401840206
14401848079
14401853084
14401858516
14401865108
14401871334
14401876827
14401882259
14401887935
14401894649
14401897762
14401906002
14401911190
14401917476
14401922664
14401928707
14401934322
14401942012
14401947627
14401952815
14401959712
14401963985
14401970821
14401975093
14401982173
14401990718
14401997005
14402003291
14402006954
14402015620
14402022334
14402027095
14402031978
14402042537
14402047176
14402054134
14402060786
14402067866
14402071834
14402080379
14402086604
14402094783
14402102046
14402107539
14402114558
14402118953
14402123713
14402131160
14402136104
14402142512
14402146907
14402152461
14402158687
14402162898
14402169978
14402175532
14402181086
14402187617
14402193415
14402198787
14402204768
14402210688
14402215937
14402220820
14402227351
14402232661
14402239863
14402244868
14402251460
14402256098
14402261164
14402269282
14402273982
14402280634
14402286433
14402292902
14402297480
14402303828
14402310908
14402315608
14402320368
14402327570
14402333186
14402341669
14402346796
14402353632
14402360407
14402380305
14402384516
14402392145
14402396967
14402404169
14402409723
14402416010
14402421381
14402427729
14402433832
14402439997
14402446528
14402452204
14402457941
14402463373
14402469111
14402474604
14402479792
14402484980
14402490778
14402495661
14402500055
14402504694
14402511652
14402515924
14402521479
14402526667
14402533319
14402539911
14402544733
14402549616
14402555231
14402560053
14402564203
14402571222
14402579401
14402586298
14402591913
14402599115
14402604120
14402610346
14402617120
14402623285
14402628229
14402635858
14402641656
14402647089
14402653619
14402661798
14402668756
14402677179
14402689325
14402699640
14402710931
14402718927
14402729669
14402739435
14402748163
14402753167
14402763177
14402771051
14402778741
14402785211
14402790948
14402799615
14402806207
14402815423
14402822930
14402828973
14402834527
14402843804
14402849847
14402858087
14402862603
14402869500
14402874322
14402879327
14402884210
14402890435
14402896111
14402901971
14402909173
14402913812
14402921197
14402926873
14402931939
14402938836
14402943780
14402949090
14402955498
14402959710
14402966546
14402972832
14402979729
14402983025
14402991570
14402997246
14403004571
14403009392
14403013909
14403021660
14403026299
14403033562
14403037285
14403045464
14403051079
14403057427
14403062920
14403069085
14403074028
14403080925
14403087456
14403094231
14403100640
14403105400
14403110161
14403117546
14403122429
14403128289
14403134209
14403142205
14403147942
14403153496
14403158928
14403164971
14403171623
14403177849
14403183159
14403188469
14403196098
14403199516
14403206657
14403213066
14403218620
14403223686
14403229485
14403235466
14403242180
14403248650
14403255791
14403262504
14403268425
14403274467
14403279838
14403286674
14403290214
14403301811
14403307670
14403313286
14403320488
14403326469
14403330620
14403336601
14403342643
14403350151
14403357597
14403365532
14403369926
14403378898
14403383110
14403392021
14403396537
14403405876
14403412773
14403419181
14403423881
14403429618
14403434379
14403439872
14403445976
14403452384
14403458305
14403464836
14403470023
14403475761
14403480338
14403486076
14403491081
14403499076
14403503593
14403510307
14403515495
14403522636
14403527152
14403531608
14403538016
14403543388
14403550223
14403554679
14403562369
14403568229
14403573722
14403579154
14403584769
14403590446
14403597159
14403602958
14403608817
14403613334
14403620780
14403625846
14403632865
14403637809
14403645255
14403650748
14403655997
14403663749
14403670218
14403675040
14403680899
14403686759
14403691092
14403699393
14403703421
14403709098
14403715750
14403722708
14403728568
14403732840
14403740958
14403747855
14403753897
14403760672
14403768607
14403775260
14403779044
14403787039
14403794363
14403801810
14403807181
14403814383
14403819144
14403825369
14403830557
14403836600
14403842215
14403846609
14403855398
14403861746
14403866812
14403869742
14403877005
14403881949
14403889944
14403895804
14403903494
14403911123
14403916678
14403923269
14403930838
14403937063
14403944021
14403951162
14403959951
14403968863
14403978872
14403987173
14403994558
14404001333
14404010916
14404018423
14404025625
14404035147
14404042898
14404054006
14404060781
14404069570
14404077810
14404082144
14404092397
14404097585
14404106863
14404112600
14404117849
14404122488
14404129568
14404133962
14404139883
14404145803
14404152334
14404156728
14404162893
14404167470
14404174245
14404179311
14404184316
14404190114
14404196645
14404202077
14404207998
14404213125
14404218984
14404224721
14404231679
14404236745
14404241872
14404248830
14404254750
14404260427
14404266835
14404272939
14404278127
14404283742
14404288442
14404295583
14404300466
14404305165
14404311635
14404316701
14404323964
14404328115
14404334767
14404340383
14404347157
14404351613
14404357961
14404363088
14404370229
14404375234
14404380299
14404385732
14404393605
14404398610
14404404775
14404407643
14404416859
14404422169
14404427663
14404433095
14404439198
14404444508
14404450062
14404454945
14404462636
14404467641
14404474110
14404479726
14404487477
14404493397
14404500477
14404506154
14404510548
14404516957
14404523976
14404530812
14404533986
14404544606
14404550282
14404556263
14404561573
14404568653
14404576527
14404580311
14404587818
14404595631
14404601307
14404608876
14404615345
14404621144
14404625294
14404630665
14404637257
14404643910
14404653248
14404660145
14404665943
14404673817
14404679432
14404685291
14404690662
14404700001
14404706471
14404712269
14404717213
14404722462
14404727528
14404734913
14404739796
14404746815
14404752369
14404758411
14404761280
14404768604
14404772938
14404780140
14404784595
14404793018
14404797474
14404804065
14404808460
14404814869
14404820789
14404825245
14404831958
14404838306
14404845203
14404850696
14404857227
14404861621
14404868702
14404874073
14404879261
14404882312
14404891529
14404896472
14404902515
14404908130
14404913684
14404918201
14404925220
14404929431
14404937427
