14181611400
14181617137
14181622813
14181627757
14181633189
14181638804
14181643931
14181649546
14181654307
14181662608
14181670481
14181676646
14181685679
14181697215
14181703257
14181708628
14181714183
14181720774
14181727732
14181734690
14181742747
14181748179
14181755198
14181763316
14181769846
14181776865
14181782725
14181788584
14181796091
14181802439
14181807993
14181814585
14181821970
14181826243
14181833079
14181840891
14181846384
14181852915
14181858103
14181867808
14181874521
14181880503
14181886362
14181891062
14181896555
14181902414
14181908701
14181913340
14181918772
14181924814
14181930857
14181936289
14181941904
14181947458
14181953196
14181957895
14181963144
14181971079
14181976755
14181982675
14181988901
14181995066
14182001352
14182005930
14182011850
14182016367
14182020456
14182026071
14182031076
14182036936
14182042185
14182047617
14182050974
14182056040
14182059213
14182065866
14182070810
14182076730
14182081979
14182087717
14182094125
14182099557
14182105600
14182111764
14182117563
14182122507
14182127817
14182133249
14182138498
14182142648
14182148752
14182153268
14182158456
14182163705
14182168466
14182173959
14182178903
14182182809
14182186654
14182190988
14182194589
14182200326
14182205087
14182209176
14182214425
14182218271
14182223153
14182226205
14182231332
14182237558
14182242501
14182246957
14182250680
14182255319
14182259225
14182264230
14182270822
14182274667
14182280404
14182284494
14182288461
14182293588
14182298104
14182302072
14182307015
14182312387
14182316049
14182319955
14182326058
14182329476
14182335153
14182339364
14182345529
14182349801
14182353829
14182357797
14182363107
14182367745
14182372384
14182377816
14182381722
14182385873
14182390755
14182395943
14182399972
14182404732
14182409982
14182413949
14182418954
14182423287
14182427743
14182432381
14182439706
14182444466
14182448678
14182453744
14182463021
14182467354
14182474312
14182480721
14182486397
14182490243
14182497017
14182500985
14182506722
14182514962
14182523629
14182531319
14182538399
14182544442
14182550667
14182557869
14182563240
14182568795
14182573433
14182577828
14182583138
14182587410
14182592232
14182598580
14182601998
14182608772
14182612679
14182616341
14182621224
14182626351
14182632454
14182637825
14182643562
14182647408
14182655464
14182660591
14182668343
14182676643
14182684029
14182689766
14182697029
14182701851
14182709175
14182716927
14182722359
14182732368
14182738411
14182747017
14182755684
14182763313
14182770454
14182777900
14182786201
14182793342
14182799995
14182809089
14182816841
14182823738
14182830574
14182836494
14182841621
14182847053
14182853096
14182857185
14182862495
14182866645
14182871284
14182875923
14182882698
14182886482
14182892890
14182898445
14182903511
14182906257
14182913093
14182919319
14182925361
14182930366
14182935981
14182938911
14182946357
14182952216
14182956428
14182961067
14182967780
14182972175
14182978339
14182983161
14182989936
14182994758
14183001472
14183006416
14183013801
14183022346
14183030036
14183036994
14183042487
14183047431
14183053901
14183058112
14183065070
14183069221
14183075751
14183082831
14183089179
14183095771
14183103095
14183109809
14183119819
14183125983
14183133735
14183138984
14183144477
14183150275
14183154975
14183160529
14183166022
14183171942
14183176337
14183181647
14183185797
14183190131
14183196112
14183202094
14183207709
14183212836
14183218146
14183225348
14183231879
14183236884
14183243231
14183248358
14183253729
14183259711
14183263373
14183269354
14183273993
14183279913
14183284064
14183290106
14183295233
14183300909
14183306403
14183310736
14183318610
14183325018
14183330694
14183336432
14183342779
14183347540
14183352240
14183358893
14183365362
14183370428
14183377630
14183382452
14183387335
14183393805
14183398138
14183404974
14183411017
14183417181
14183422674
14183427313
14183433966
14183438665
14183445318
14183450323
14183456854
14183462896
14183470526
14183475469
14183481329
14183486822
14183493109
14183500311
14183506109
14183512945
14183518438
14183523992
14183530462
14183534796
14183540716
14183547247
14183553961
14183559393
14183565130
14183571539
14183576910
14183581731
14183586553
14183593389
14183599920
14183606390
14183611700
14183616521
14183621770
14183627203
14183636663
14183649785
14183655645
14183668889
14183674322
14183688848
14183698797
14183711004
14183718816
14183726323
14183732366
14183741582
14183749334
14183756902
14183765142
14183773992
14183782720
14183790410
14183799626
14183806645
14183815862
14183823369
14183832219
14183840825
14183847173
14183853520
14183858769
14183866032
14183870915
14183878056
14183881291
14183888371
14183893254
14183900761
14183907292
14183911809
14183916447
14183925053
14183929936
14183935551
14183941411
14183947148
14183952824
14183957341
14183964665
14183971440
14183976750
14183982487
14183987126
14183993474
14183998234
14184005925
14184013432
14184018864
14184025944
14184032658
14184036015
14184044926
14184049687
14184055119
14184060368
14184067021
14184072697
14184078617
14184084477
14184091679
14184097111
14184103459
14184110905
14184117558
14184120793
14184130619
14184136173
14184142094
14184147404
14184153080
14184158695
14184164494
14184170170
14184175846
14184181278
14184187138
14184192875
14184199589
14184202640
14184211857
14184218143
14184224674
14184227848
14184235844
14184242008
14184248417
14184255131
14184261844
14184267338
14184273258
14184279545
14184286564
14184294681
14184303775
14184308902
14184317997
14184323734
14184329044
14184336856
14184343570
14184348941
14184354251
14184360843
14184366153
14184372989
14184377689
14184385196
14184390140
14184396976
14184402896
14184408695
14184411685
14184415958
14184422122
14184426029
14184431827
14184435672
14184442325
14184447086
14184451846
14184456180
14184460941
14184466190
14184471072
14184473514
14184481509
14184486697
14184493655
14184499332
14184505801
14184510257
14184515384
14184523563
14184529483
14184534732
14184539126
14184544620
14184549991
14184555545
14184562076
14184567630
14184572024
14184578372
14184583499
14184588382
14184593020
14184598880
14184605899
14184611575
14184617801
14184624148
14184629458
14184634585
14184641055
14184646426
14184652346
14184658938
14184663821
14184670718
14184675906
14184684024
14184692752
14184703738
14184711062
14184719485
14184728518
14184734988
14184742983
14184754763
14184762820
14184770815
14184778323
14184786318
14184795779
14184804690
14184812746
14184818972
14184832155
14184839541
14184848452
14184855715
14184864992
14184873903
14184878542
14184889162
14184894960
14184903383
14184908938
14184915407
14184922182
14184928225
14184936098
14184940493
14184946535
14184953371
14184958437
14184963686
14184968874
14184974794
14184980593
14184986025
14184990663
14184996157
14185001894
14185007265
14185012636
14185018007
14185023012
14185029787
14185035097
14185040041
14185045778
14185050783
14185055910
14185061891
14185067567
14185072206
14185077638
14185082826
14185088319
14185095094
14185100648
14185107423
14185112001
14185118837
14185125001
14185131959
14185138429
14185143251
14185149415
14185155946
14185162599
14185168397
14185174928
14185181581
14185186036
14185192933
14185198793
14185203737
14185209413
14185214357
14185220094
14185226197
14185231569
14185236512
14185242006
14185248292
14185253663
14185259156
14185264283
14185269471
14185275270
14185281678
14185287965
14185291993
14185298890
14185305238
14185309449
14185316895
14185322877
14185328980
14185334351
14185341981
14185346192
14185352723
14185359803
14185364686
14185372071
14185377869
14185384705
14185390931
14185396729
14185401307
14185408631
14185413148
14185421509
14185427064
14185432618
14185440003
14185447022
14185454346
14185462342
14185468567
14185477295
14185481263
14185489075
14185494080
14185501343
14185506958
14185511719
14185518006
14185523804
14185528870
14185533448
14185538514
14185544312
14185548951
14185554749
14185559510
14185564209
14185570252
14185574829
14185579834
14185585755
14185590821
14185597046
14185601380
14185607727
14185613037
14185619507
14185624085
14185630493
14185634949
14185641358
14185647522
14185653809
14185658752
14185665039
14185669312
14185675781
14185681335
14185687988
14185694092
14185699951
14185707764
14185717163
14185723938
14185733459
14185741333
14185748779
14185756103
14185766357
14185772644
14185782470
14185788391
14185798462
14185804504
14185812744
14185823730
14185830932
14185837951
14185847961
14185853393
14185863525
14185871520
14185878784
14185887817
14185895324
14185902465
14185908141
14185913391
14185920532
14185924804
14185931762
14185937011
14185942687
14185948119
14185953613
14185958495
14185965514
14185970275
14185976928
14185981994
14185988219
14185993652
14185999206
14186005309
14186010863
14186015441
14186021728
14186027221
14186032104
14186037719
14186043761
14186048766
14186055114
14186058654
14186064818
14186073058
14186078734
14186088195
14186095702
14186102233
14186108153
14186115783
14186124816
14186130858
14186136351
14186141417
14186147582
14186152831
14186157653
14186164305
14186168517
14186174925
14186180480
14186187499
14186194640
14186199401
14186206359
14186212584
14186219725
14186224730
14186231139
14186235960
14186242980
14186250060
14186254759
14186261839
14186268248
14186273741
14186280028
14186286864
14186293516
14186298888
14186304808
14186310362
14186316649
14186323668
14186330321
14186335203
14186341124
14186347410
14186354124
14186358030
14186366942
14186371458
14186378416
14186382567
14186389830
14186395323
14186400328
14186406370
14186411680
14186418516
14186424009
14186428160
14186435179
14186439512
14186445311
14186453977
14186459776
14186464353
14186473570
14186477415
14186483457
14186489683
14186493894
14186501829
14186506956
14186512876
14186517881
14186525633
14186531797
14186537412
14186543516
14186549436
14186555601
14186561704
14186567442
14186574033
14186580381
14186586668
14186592161
14186598081
14186603696
14186609617
14186614927
14186620664
14186626829
14186632688
14186637937
14186645566
14186650083
14186655820
14186662900
14186669309
14186675657
14186682493
14186688657
14186696897
14186704282
14186708554
14186717466
14186722654
14186728269
14186734433
14186738523
14186745908
14186750791
14186757871
14186766843
14186773557
14186782285
14186790341
14186795896
14186804746
14186811948
14186820432
14186828671
14186834409
14186843259
14186849179
14186857846
14186863644
14186874692
14186882748
14186890195
14186898679
14186905942
14186912778
14186921384
14186929013
14186936886
14186943661
14186948178
14186954037
14186959775
14186965024
14186969967
14186975705
14186980404
14186985287
14186993039
14186999264
14187004574
14187010312
14187015866
14187021847
14187026852
14187033261
14187038205
14187046994
14187053585
14187059384
14187064755
14187071713
14187077206
14187084103
14187089230
14187097592
14187104183
14187110470
14187116573
14187122311
14187127255
14187132931
14187138546
14187144833
14187150753
14187158749
14187164425
14187169613
14187175716
14187182003
14187188045
14187192745
14187199398
14187204098
14187210262
14187214901
14187221371
14187226009
14187232723
14187238949
14187244686
14187249508
14187255428
14187261715
14187265560
14187273739
14187280330
14187289791
14187297664
14187304195
14187309261
14187316463
14187321773
14187330562
14187336422
14187342281
14187348201
14187353450
14187357906
14187364009
14187368831
14187373348
14187379939
14187385433
14187391048
14187397579
14187403316
14187410701
14187416194
14187422969
14187427181
14187433406
14187438167
14187445308
14187452571
14187457454
14187463008
14187468501
14187473079
14187480159
14187485042
14187491450
14187496638
14187501826
14187507014
14187513667
14187520137
14187524898
14187531611
14187536433
14187543391
14187548762
14187554072
14187561702
14187565791
14187572627
14187578486
14187583125
14187589290
14187595637
14187601924
14187607600
14187613215
14187618464
14187623225
14187630793
14187637873
14187645014
14187649897
14187656123
14187662959
14187668391
14187672846
14187679438
14187684321
14187692256
14187696284
14187702570
14187709162
14187714472
14187719904
14187726679
14187734492
14187742426
14187746394
14187757075
14187762690
14187769221
14187773859
14187779902
14187785578
14187793757
14187800043
14187809992
14187816828
14187824579
14187834223
14187842951
14187851496
14187858088
14187867487
14187875605
14187884882
14187893854
14187906305
14187915033
14187927484
14187934992
14187947016
14187957025
14187967462
14187975824
14187983454
14187993646
14188000055
14188009088
14188014703
14188020563
14188026788
14188032282
14188038507
14188042596
14188050226
14188053461
14188060846
14188064203
14188073175
14188079889
14188085870
14188091119
14188096979
14188102716
14188109552
14188115533
14188119928
14188126336
14188130670
14188136651
14188142084
14188146539
14188152948
14188158746
14188163995
14188170892
14188175409
14188181329
14188186822
14188195306
14188199517
14188205133
14188210626
14188217523
14188220697
14188228875
14188234185
14188240350
14188247003
14188252130
14188257257
14188264276
14188269952
14188277398
14188282464
14188288995
14188294061
14188299981
14188304620
14188309380
14188316827
14188322625
14188329827
14188335015
14188340142
14188345391
14188352471
14188357781
14188364678
14188368035
14188376275
14188383538
14188387810
14188392632
14188400017
14188405083
14188411675
14188416253
14188423516
14188428155
14188434807
14188439568
14188444878
14188452080
14188457573
14188466424
14188474114
14188478569
14188484490
14188489556
14188496148
14188504570
14188509331
14188517571
14188523308
14188530510
14188538445
14188544976
14188551445
14188557610
14188564507
14188569817
14188578362
14188586052
14188590752
14188596489
14188601799
14188607231
14188613518
14188618584
14188627556
14188633232
14188639336
14188644402
14188651543
14188656120
14188664299
14188668816
14188675224
14188681328
14188687187
14188691948
14188700188
14188704765
14188713920
14188720146
14188725456
14188729790
14188736259
14188740898
14188746147
14188751579
14188758598
14188764091
14188770012
14188774284
14188780632
14188786430
14188791740
14188797966
14188804802
14188808830
14188815483
14188820976
14188827751
14188833000
14188839530
14188846305
14188851615
14188857597
14188863944
14188869377
14188878715
14188887626
14188894218
14188901969
14188911125
14188919486
14188926383
14188936332
14188942985
14188949455
14188959098
14188966056
14188976005
14188985160
14188991813
14189001090
14189007438
14189017203
14189026053
14189033866
14189041312
14189049735
14189056937
14189066703
14189072623
14189078910
14189083304
14189090079
14189095145
14189101493
14189107962
14189114310
14189120841
14189127982
14189135367
14189140799
14189145682
14189150992
14189156119
14189165091
14189171012
14189177420
14189184744
14189192069
14189200675
14189208182
14189216055
14189221854
14189229056
14189235098
14189240897
14189247488
14189252859
14189259207
14189264212
14189268973
14189274649
14189279227
14189284964
14189290701
14189295218
14189301199
14189306326
14189313406
14189319998
14189326040
14189330923
14189336538
14189342459
14189348135
14189352957
14189361197
14189368338
14189376028
14189381277
14189386831
14189391531
14189398794
14189404348
14189409658
14189416067
14189422476
14189428945
14189434805
14189439382
14189445059
14189451589
14189456899
14189464590
14189471731
14189475027
14189481802
14189487966
14189492483
14189496999
14189502798
14189510732
14189514944
14189521536
14189526724
14189532644
14189539114
14189545217
14189549734
14189556203
14189561697
14189570547
14189575185
14189581472
14189587453
14189594778
14189599905
14189605825
14189613698
14189619741
14189624990
14189630239
14189633169
14189640004
14189645376
14189650747
14189654897
14189662465
14189665883
14189672780
14189676992
14189682424
14189687795
14189692495
14189699331
14189705678
14189711538
14189716787
14189723012
14189726979
14189731923
14189738515
14189743337
14189750844
14189755178
14189764577
14189771657
14189777394
14189785268
14189792592
14189799367
14189805104
14189810353
14189817372
14189822560
14189827687
14189831654
14189836903
14189842702
14189848439
14189854481
14189859303
14189866078
14189870656
14189878407
14189884389
14189888417
14189893483
14189897450
14189903248
14189907338
14189914967
14189923207
14189930592
14189934620
14189945729
14189952015
14189959034
14189968678
14189977589
14189982594
14189990834
14190001332
14190007862
14190018360
14190027088
14190035206
14190042835
14190051075
14190055165
14190068775
14190075733
14190083241
14190087208
14190099171
14190105641
14190111927
14190116383
14190122364
14190125965
14190131580
14190138966
14190143787
14190151234
14190156361
14190161732
14190164661
14190171009
14190176502
14190184193
14190187916
14190195240
14190199818
14190205433
14190210071
14190217274
14190225330
14190230335
14190236622
14190242786
14190248584
14190251453
14190258228
14190262806
14190270130
14190275745
14190281849
14190285511
14190294849
14190298938
14190305530
14190310962
14190318653
14190324634
14190330188
14190336109
14190344043
14190349903
14190357044
14190360279
14190372791
14190377063
14190383899
14190391467
14190397998
14190402759
14190409351
14190415881
14190420581
14190425647
14190430896
14190436450
14190441638
14190447131
14190452869
14190459582
14190464831
14190470142
14190475085
14190480701
14190485950
14190491992
14190497302
14190503894
14190508227
14190514636
14190520862
14190526172
14190529101
14190536548
14190541430
14190548510
14190554309
14190557849
14190563952
14190568530
14190575732
14190581164
14190586718
14190593188
14190598498
14190604724
14190611315
14190618151
14190624133
14190628527
14190634143
14190639819
14190647814
14190653491
14190660205
14190666613
14190673022
14190678271
14190684252
14190688952
14190696887
14190705004
14190709277
14190716296
14190720629
14190726916
14190731677
14190739611
14190747546
14190754504
14190758776
14190763293
14190769518
14190773363
14190779772
14190783984
14190791735
14190797899
14190805041
14190808947
14190815783
14190821093
14190826159
14190834093
14190840014
14190845812
14190853319
14190858141
14190866198
14190871080
14190877672
14190883898
14190891832
14190897325
14190902330
14190908190
14190913866
14190920031
14190924852
14190934496
14190943346
14190949022
14190954454
14190965502
14190973253
14190984056
14190992052
14191002794
14191012926
14191021471
14191028490
14191032884
14191044298
14191052476
14191059923
14191069078
14191076829
14191085252
14191092699
14191101304
14191108934
14191117723
14191125535
14191134080
14191143480
14191150194
14191159288
14191163316
14191168992
14191177293
14191182542
14191188829
14191193834
14191199083
14191203843
14191208726
14191211839
14191221299
14191232286
14191249070
14191263902
14191272141
14191280992
14191287583
14191292100
14191296616
14191301865
14191306382
14191310716
14191315232
14191320420
14191326768
14191330735
14191335679
14191340134
14191345261
14191349656
14191354234
14191359544
14191366685
14191371384
14191377305
14191381516
14191387681
14191391709
14191399033
14191403611
14191409653
14191426865
14191431443
14191438950
14191444626
14191452073
14191457993
14191462265
14191468247
14191474595
14191480393
14191486191
14191491684
14191496872
14191502549
14191508286
14191514389
14191518662
14191525132
14191530564
14191537277
14191542832
14191548935
14191555405
14191559616
14191568466
14191576035
14191581650
14191587570
14191593186
14191601486
14191608139
14191615402
14191620773
14191624435
14191630417
14191634079
14191640732
14191645798
14191651657
14191656662
14191662277
14191666794
14191672409
14191676803
14191683456
14191688339
14191692673
14191701279
14191706650
14191716415
14191722152
14191726486
14191730209
14191735092
14191742294
14191746811
14191751754
14191757309
14191762924
14191767990
14191772506
14191777023
14191782150
14191788131
14191792587
14191798629
14191802108
14191807540
14191811142
14191817306
14191821456
14191827865
14191834030
14191838912
14191843307
14191849288
14191853622
14191858138
14191864303
14191869918
14191875228
14191880721
14191885238
14191891097
14191896774
14191902267
14191909103
14191914596
14191919540
14191926070
14191930770
14191936996
14191945663
14191953353
14191961532
14191967574
14191974898
14191981673
14191989791
14191996200
14192004684
14192010665
14192020736
14192026412
14192034469
14192040267
14192046554
14192055831
14192062972
14192068709
14192076522
14192083907
14192091780
14192100569
14192106795
14192113570
14192119124
14192129439
14192136397
14192144820
14192151595
14192159346
14192166365
14192175215
14192183089
14192191267
14192198897
14192203841
14192211165
14192216780
14192221358
14192226057
14192231245
14192235823
14192240828
14192246443
14192250594
14192257552
14192262556
14192266218
14192271651
14192278487
14192284285
14192288862
14192293989
14192300459
14192306441
14192311873
14192318648
14192323469
14192328657
14192334334
14192339216
14192343733
14192350386
14192354963
14192364363
14192368757
14192373640
14192377974
14192383101
14192389265
14192394209
14192398054
14192406233
14192411482
14192416914
14192421736
14192427717
14192434248
14192439314
14192444074
14192451338
14192456709
14192464033
14192469892
14192474836
14192481916
14192487287
14192499006
14192503645
14192510053
14192515791
14192521711
14192527021
14192532758
14192538801
14192545454
14192550275
14192555158
14192559492
14192565351
14192571332
14192577680
14192583417
14192589704
14192596235
14192601728
14192607221
14192612836
14192615705
14192624067
14192629438
14192635175
14192639997
14192645551
14192651471
14192657880
14192663617
14192667707
14192673444
14192680524
14192685407
14192691632
14192696332
14192703229
14192708051
14192714398
14192720990
14192726667
14192733686
14192739240
14192746015
14192751569
14192757367
14192763532
14192768781
14192775739
14192779279
14192784833
14192788495
14192794049
14192798077
14192804608
14192809003
14192818280
14192821393
14192828656
14192833112
14192840070
14192844891
14192850507
14192856000
14192862042
14192866681
14192872906
14192878827
14192884015
14192889691
14192894818
14192898968
14192905377
14192911114
14192916791
14192920819
14192925641
14192932293
14192936627
14192942914
14192948590
14192955059
14192959271
14192965496
14192970440
14192976910
14192982586
14192987713
14192996014
14193004986
14193010662
14193019268
14193026104
14193033367
14193040142
14193047650
14193056805
14193064007
14193072979
14193079754
14193086529
14193096905
14193102337
14193111370
14193117229
14193126934
14193133221
14193140606
14193147442
14193157391
14193164410
14193171673
14193178814
14193187359
14193195049
14193201214
14193205425
14193210979
14193215984
14193221233
14193226421
14193234173
14193240154
14193245708
14193251629
14193258831
14193263775
14193270671
14193278484
14193282940
14193289104
14193293010
14193298931
14193304607
14193309734
14193315410
14193321636
14193327800
14193334209
14193340373
14193347454
14193353740
14193359538
14193366496
14193375469
14193380412
14193387798
14193393230
14193398906
14193403667
14193409099
14193413005
14193419963
14193425945
14193431499
14193436320
14193441569
14193447246
14193452434
14193455119
14193464885
14193470439
14193475688
14193480205
14193485393
14193489482
14193502360
14193509623
14193515849
14193522258
14193527751
14193532206
14193538249
14193543193
14193550456
14193555034
14193561137
14193565959
14193572917
14193577983
14193583781
14193588359
14193594279
14193599589
14193606547
14193612956
14193618510
14193625590
14193629435
14193634745
14193641947
14193647196
14193652812
14193660014
14193664347
14193670939
14193676005
14193682108
14193687052
14193693766
14193701273
14193706644
14193713053
14193718424
14193723734
14193729777
14193735819
14193741984
14193746317
14193752299
14193757853
14193764200
14193770548
14193777018
14193783182
14193789103
14193795511
14193801371
14193806803
14193814249
14193819010
14193824808
14193830179
14193835917
14193839151
14193848002
14193853739
14193859964
14193864847
14193872599
14193879312
14193885904
14193890604
14193897318
14193902140
14193909891
14193917276
14193921427
14193929056
14193936319
14193943277
14193949442
14193957620
14193962503
14193970499
14193975321
14193983988
14193989542
14193995767
14194002176
14194007852
14194014200
14194019266
14194025858
14194031473
14194037271
14194045572
14194050760
14194057046
14194062906
14194069986
14194074197
14194083291
14194089944
14194097879
14194106546
14194114236
14194120645
14194128213
14194136392
14194143655
14194150247
14194157998
14194166421
14194173928
14194182107
14194190042
14194193948
14194204385
14194210061
14194218484
14194224404
14194233071
14194241250
14194248635
14194254495
14194262551
14194268899
14194276528
14194283608
14194289224
14194293984
14194302102
14194307961
14194313943
14194318337
14194324075
14194329812
14194335915
14194341164
14194346474
14194351418
14194357766
14194364236
14194370217
14194376198
14194383584
14194387856
14194395302
14194401467
14194407448
14194412880
14194420266
14194426186
14194432351
14194438210
14194442727
14194447670
14194454201
14194461464
14194464516
14194473183
14194479348
14194485451
14194491738
14194498268
14194504067
14194509987
14194516640
14194523903
14194529213
14194536110
14194541359
14194546852
14194552040
14194557655
14194564064
14194570351
14194577919
14194584206
14194590614
14194598061
14194605202
14194611671
14194617836
14194626320
14194634315
14194637611
14194645058
14194649452
14194655128
14194659340
14194688576
14194694374
14194699501
14194704689
14194709633
14194715370
14194719642
14194724769
14194730568
14194736427
14194742103
14194748756
14194754493
14194759071
14194764808
14194769142
14194775245
14194780006
14194784645
14194791297
14194796730
14194802650
14194810401
14194815467
14194819984
14194825355
14194831642
14194836463
14194841346
14194846351
14194850196
14194857765
14194863807
14194867896
14194874244
14194879188
14194884620
14194890540
14194895301
14194898841
14194904517
14194909888
14194915076
14194919349
14194924537
14194929847
14194935218
14194939551
14194943702
14194948157
14194953406
14194957984
14194960486
14194969031
14194973731
14194978675
14194983802
14194989234
14194993567
14195000098
14195004920
14195010596
14195016089
14195021277
14195025000
14195031836
14195036719
14195043494
14195049598
14195056128
14195059729
14195068946
14195074683
14195081214
14195087989
14195097815
14195104590
14195110327
14195116675
14195123633
14195130347
14195138465
14195144629
14195152136
14195158728
14195165076
14195172461
14195178626
14195184241
14195191443
14195197607
14195204993
14195213049
14195220007
14195227332
14195233496
14195241064
14195246191
14195251929
14195256018
14195262732
14195268835
14195274878
14195279700
14195282507
14195290259
14195295691
14195303198
14195308691
14195313879
14195319983
14195325537
14195332251
14195337866
14195343908
14195352636
14195360083
14195364904
14195371069
14195376318
14195381201
14195388586
14195393835
14195399267
14195405187
14195411169
14195415747
14195421911
14195427526
14195432836
14195439733
14195444311
14195449133
14195454748
14195461767
14195469763
14195472631
14195480444
14195484838
14195491857
14195496923
14195502660
14195509740
14195514867
14195521276
14195526403
14195531347
14195540746
14195546728
14195555028
14195561376
14195565954
14195570470
14195576513
14195583593
14195590307
14195595556
14195599584
14195604589
14195609960
14195614782
14195621068
14195629247
14195636876
14195643346
14195654027
14195660192
14195669103
14195675450
14195682408
14195690221
14195696630
14195702367
14195708104
14195713658
14195720861
14195725316
14195731786
14195736791
14195743566
14195748509
14195753148
14195758519
14195766454
14195771764
14195777867
14195783482
14195788976
14195793492
14195799901
14195805455
14195810338
14195818639
14195823277
14195828282
14195832249
14195838963
14195844945
14195849950
14195854527
14195861119
14195864964
14195871434
14195876500
14195881627
14195886754
14195893223
14195897740
14195905369
14195911107
14195915989
14195921605
14195927464
14195931492
14195937718
14195944127
14195951939
14195957737
14195962925
14195969212
14195973790
14195979893
14195986790
14195993504
14195999607
14196005284
14196011326
14196017796
14196023350
14196030125
14196033360
14196045994
14196050083
14196060032
14196066868
14196075596
14196082798
14196090000
14196098240
14196108189
14196116001
14196124607
14196130894
14196139744
14196146030
14196155002
14196162815
14196171726
14196178196
14196187107
14196193455
14196203342
14196209568
14196218601
14196228977
14196236911
14196242038
14196246433
14196253452
14196257785
14196264499
14196272861
14196279880
14196285312
14196292758
14196297092
14196304965
14196309787
14196317295
14196322727
14196328586
14196335056
14196339206
14196345676
14196349826
14196357150
14196361240
14196367770
14196374240
14196379489
14196385165
14196390353
14196395725
14196400974
14196406528
14196411960
14196417148
14196423740
14196429416
14196434177
14196438754
14196445346
14196451816
14196458652
14196463656
14196468967
14196474948
14196482455
14196487826
14196492953
14196500216
14196506442
14196512362
14196516635
14196521884
14196527926
14196533786
14196537875
14196545565
14196552401
14196562533
14196568942
14196573947
14196580477
14196584994
14196590365
14196599520
14196604525
14196611849
14196616549
14196622286
14196628817
14196635226
14196640536
14196645663
14196652194
14196656222
14196663058
14196669100
14196675143
14196679598
14196685275
14196691195
14196699007
14196703890
14196709933
14196716036
14196722506
14196727206
14196731783
14196737704
14196745699
14196751070
14196758394
14196762972
14196767550
14196775240
14196781222
14196786593
14196790804
14196800264
14196806124
14196811678
14196816622
14196822176
14196827791
14196834627
14196841402
14196848604
14196853853
14196861055
14196867891
14196874117
14196878267
14196887850
14196892794
14196902315
14196910005
14196915865
14196922334
14196928377
14196931185
14196938814
14196945040
14196950411
14196956209
14196961214
14196965669
14196970857
14196977449
14196983003
14196988802
14196995332
14197000032
14197006807
14197011507
14197018343
14197023347
14197028352
14197033357
14197039217
14197045808
14197050935
14197055513
14197061250
14197066438
14197071931
14197078584
14197084443
14197090791
14197094941
14197099458
14197108796
14197115327
14197123506
14197131257
14197140474
14197146699
14197156221
14197162141
14197169282
14197178498
14197185395
14197192231
14197201264
14197208406
14197216401
14197225068
14197232575
14197239289
14197246003
14197255158
14197261262
14197271516
14197280122
14197287019
14197294343
14197301789
14197305939
14197312348
14197316865
14197323395
14197330414
14197334565
14197339814
14197346345
14197352631
14197357453
14197364594
14197369233
14197375764
14197381501
14197386811
14197391633
14197397431
14197403351
14197409760
14197416169
14197422577
14197428193
14197436127
14197441071
14197446747
14197452423
14197458100
14197464264
14197470734
14197476349
14197481232
14197486481
14197493439
14197501984
14197509430
14197516571
14197522370
14197526947
14197534210
14197542023
14197550324
14197556244
14197561737
14197568146
14197572723
14197578644
14197583283
14197587311
14197593964
14197599579
14197606354
14197611603
14197616363
14197623138
14197628693
14197632721
14197639679
14197644012
14197651337
14197657440
14197662567
14197668609
14197674408
14197678741
14197684479
14197691681
14197698089
14197704742
14197710785
14197715789
14197721344
14197727142
14197732818
14197737518
14197746185
14197752044
14197758087
14197763031
14197768646
14197773101
14197778717
14197785675
14197792633
14197799652
14197804901
14197810760
14197814971
14197821929
14197826385
14197832794
14197837676
14197846099
14197850738
14197858062
14197866729
14197872100
14197876861
14197883880
14197888213
14197894683
14197900420
14197905547
14197911590
14197916350
14197922210
14197927154
14197933745
14197938567
14197944427
14197950896
14197955047
14197961883
14197968413
14197974517
14197980987
14197986785
14197992156
14197998382
14198003447
14198011687
14198016509
14198022673
14198028838
14198036467
14198041716
14198048613
14198053740
14198059844
14198064727
14198072112
14198078520
14198085723
14198091155
14198098052
14198103850
14198110747
14198117400
14198123198
14198130705
14198137480
14198143401
14198150481
14198156950
14198161711
14198168608
14198174101
14198179106
14198185332
14198194731
14198202361
14198208647
14198216521
14198222746
14198230437
14198237334
14198246489
14198255400
14198261259
14198270048
14198276762
14198285795
14198292570
14198299467
14198306730
14198317228
14198324614
14198331511
14198337980
14198345793
14198354704
14198360624
14198366545
14198376676
14198383818
14198390226
14198395658
14198402494
14198407560
14198413359
14198417875
14198426420
14198432768
14198440092
14198446012
14198450102
14198455229
14198461088
14198469328
14198475309
14198481168
14198486234
14198493314
14198498197
14198504240
14198512846
14198518522
14198523344
14198531156
14198535429
14198541837
14198547758
14198553190
14198559232
14198565153
14198570463
14198578031
14198582914
14198588529
14198594327
14198599942
14198606107
14198611966
14198617643
14198624418
14198630094
14198636075
14198640470
14198646146
14198650541
14198658231
14198663175
14198669400
14198675809
14198681424
14198686124
14198693448
14198698087
14198705899
14198710965
14198717557
14198721890
14198726895
14198733365
14198739713
14198745633
14198754300
14198762112
14198767789
14198773282
14198779446
14198786771
14198791959
14198799283
14198807828
14198812283
14198818204
14198822354
14198827176
14198833768
14198840176
14198844754
14198851956
14198856534
14198862942
14198868741
14198874234
14198878384
14198883206
14198889187
14198894070
14198900357
14198904629
14198910428
14198915554
14198920254
14198925808
14198930996
14198936306
14198942715
14198948147
14198954007
14198957852
14198964260
14198970425
14198975735
14198982327
14198987637
14198994473
14198999600
14199004788
14199009854
14199014980
14199022671
14199027371
14199035183
14199039578
14199045620
14199052151
14199057766
14199062649
14199068203
14199073452
14199080898
14199087978
14199092556
14199099026
14199104458
14199109646
14199116604
14199121487
14199128750
14199133633
14199140102
14199144497
14199151577
14199155971
14199162685
14199167690
14199174770
14199182216
14199186733
14199193935
14199201259
14199206142
14199211452
14199217800
14199223537
14199229152
14199235439
14199241115
14199249111
14199255886
14199263881
14199270717
14199276577
14199286342
14199292934
14199302211
14199308681
14199316799
14199325160
14199332851
14199336940
14199349269
14199356105
14199363734
14199371181
14199379176
14199385158
14199393275
14199401576
14199412624
14199421168
14199428493
14199435451
14199443568
14199450831
14199456386
14199460475
14199469081
14199475062
14199480922
14199486110
14199491481
14199496974
14199502040
14199508387
14199513575
14199519801
14199529139
14199534449
14199541896
14199547816
14199552699
14199561000
14199566249
14199572535
14199578028
14199583583
14199589198
14199596888
14199602381
14199614100
14199620509
14199626917
14199632655
14199640406
14199647059
14199653040
14199660731
14199667506
14199673060
14199680689
14199687586
14199693812
14199698695
14199707728
14199714136
14199719996
14199725794
14199734278
14199741602
14199750452
14199761866
14199772425
14199781153
14199788355
14199799524
14199809229
14199817957
14199830774
14199841944
14199853174
14199859949
14199871973
14199879663
14199889124
14199897791
14199907007
14199917322
14199925623
14199933191
14199939600
14199947168
14199954736
14199963281
14199972253
14199979761
14199989099
14199997217
14200005762
14200012109
14200021753
14200028161
14200038660
14200045984
14200051660
14200063196
14200071557
14200081506
14200092431
14200101465
14200111596
14200120324
14200129907
14200138879
14200149316
14200157678
14200167382
14200176293
14200185510
14200194482
14200202783
14200212060
14200220910
14200227929
14200238244
14200245934
14200255212
14200265221
14200272729
14200283654
14200291161
14200299157
14200308739
14200315331
14200326562
14200334252
14200341393
14200351159
14200359826
14200368126
14200376122
14200385277
14200395958
14200404808
14200412194
14200421593
14200431115
14200440270
14200450157
14200458275
14200465966
14200476280
14200483849
14200493614
14200501793
14200509361
14200522118
14200529442
14200541527
14200551964
14200562157
14200573998
14200583885
14200595177
14200605003
14200614708
14200623985
14200634056
14200644676
14200654197
14200664390
14200673973
14200683189
14200691490
14200701683
14200711753
14200720787
14200731346
14200740257
14200749473
14200759666
14200767601
14200775108
14200784263
14200792686
14200801475
14200807273
14200817527
14200823936
14200833152
14200840598
14200848899
14200858360
14200864280
14200875449
14200882590
14200893211
14200899436
14200907981
14200918296
14200925742
14200932822
14200943381
14200952415
14200959922
14200968345
14200977378
14200984336
14200993613
14201001731
14201007712
14201016684
14201024375
14201032798
14201038596
14201049277
14201056235
14201063681
14201072531
14201079611
14201086569
14201096091
14201103964
14201109091
14201113730
14201119772
14201125449
14201129904
14201135886
14201141379
14201147665
14201153220
14201158225
14201162192
14201167807
14201171835
14201176901
14201181723
14201188315
14201193259
14201199301
14201203451
14201209067
14201212973
14201218039
14201222616
14201228171
14201233420
14201237936
14201245321
14201250082
14201256186
14201260336
14201267599
14201275595
14201281027
14201286947
14201294699
14201299276
14201305380
14201311728
14201315817
14201323141
14201328268
14201333273
14201337789
14201344809
14201349386
14201356405
14201362509
14201367514
14201373129
14201378622
14201382467
14201388571
14201393209
14201399923
14201405294
14201410360
14201416097
14201420797
14201425802
14201431112
14201437216
14201443319
14201447836
14201453207
14201457967
14201463583
14201470358
14201478536
14201484090
14201491842
14201499654
14201505025
14201510702
14201516866
14201524068
14201529745
14201534994
14201540487
14201544210
14201549947
14201554159
14201563070
14201567891
14201572347
14201576375
14201580648
14201585714
14201591878
14201596944
14201601949
14201606527
14201613668
14201620626
14201624898
14201632161
14201637960
14201645101
14201654439
14201660787
14201670125
14201677205
14201683126
14201688619
14201697408
14201705220
14201711934
14201718892
14201725606
14201733846
14201741353
14201748799
14201756551
14201762593
14201770467
14201779073
14201786092
14201794087
14201802144
14201810261
14201816609
14201823384
14201832478
14201837361
14201845723
14201851399
14201856648
14201861348
14201867024
14201872578
14201879658
14201887959
14201894856
14201899800
14201905049
14201909932
14201915852
14201923664
14201929219
14201934468
14201939473
14201944050
14201950398
14201954304
14201961201
14201966999
14201973896
14201978962
14201985981
14201991291
14201997334
14202003498
14202011006
14202017536
14202022175
14202027729
14202033283
14202038776
14202043049
14202048359
14202054401
14202061115
14202065449
14202073933
14202079792
14202084797
14202092060
14202097736
14202102985
14202110493
14202117084
14202124775
14202130695
14202137836
14202142597
14202147602
14202154072
14202160541
14202166095
14202171528
14202175922
14202180195
14202186237
14202190509
14202197040
14202203327
14202207721
14202213031
14202218097
14202224628
14202228778
14202234516
14202239154
14202246234
14202251117
14202256061
14202263385
14202269977
14202275470
14202280292
14202287006
14202293414
14202298908
14202305255
14202311115
14202316791
14202322833
14202328876
14202334796
14202341266
14202347369
14202352557
14202358478
14202363483
14202371112
14202375201
14202381244
14202389239
14202394305
14202399127
14202405902
14202412372
14202418536
14202423846
14202428485
14202433246
14202440143
14202445819
14202450335
14202457965
14202462481
14202467975
14202475177
14202481280
14202487445
14202492572
14202498431
14202504718
14202510821
14202516803
14202521502
14202527545
14202533953
14202540423
14202543719
14202551959
14202556964
14202563555
14202568438
14202573992
14202581744
14202587359
14202592730
14202598101
14202603594
14202608782
14202615252
14202621783
14202628008
14202634844
14202640948
14202645342
14202651751
14202655779
14202662859
14202667437
14202675433
14202684283
14202691851
14202700274
14202707781
14202712298
14202719683
14202725420
14202734331
14202740801
14202746905
14202749956
14202756914
14202762285
14202767534
14202773577
14202779619
14202784014
14202789690
14202794085
14202799334
14202804277
14202810991
14202817644
14202824785
14202828081
14202835161
14202839556
14202845293
14202849871
14202856340
14202861956
14202868303
14202873186
14202877825
14202883867
14202888506
14202894304
14202900041
14202906877
14202911882
14202920610
14202925737
14202932024
14202936845
14202943437
14202947099
14202955034
14202961870
14202968706
14202971941
14202980180
14202986406
14202990861
14202996049
14203004533
14203009355
14203015153
14203020769
14203027605
14203033525
14203038835
14203042009
14203049150
14203054643
14203062028
14203069413
14203076249
14203081743
14203089250
14203095597
14203101518
14203106828
14203114030
14203120988
14203126847
14203132951
14203139054
14203145097
14203151200
14203158280
14203165055
14203171525
14203177079
14203183000
14203186723
14203194657
14203199967
14203207414
14203213578
14203218766
14203225968
14203231950
14203239945
14203247697
14203253739
14203261063
14203269425
14203276078
14203285355
14203295731
14203304642
14203314652
14203326310
14203334733
14203343766
14203353715
14203360978
14203371659
14203381546
14203385880
14203395707
14203407181
14203413590
14203420365
14203426957
14203436295
14203439835
14203449662
14203456009
14203460892
14203465470
14203472183
14203478104
14203485550
14203490311
14203494827
14203501663
14203507218
14203513565
14203520035
14203525406
14203532059
14203538406
14203543350
14203549942
14203556229
14203560806
14203568253
14203573379
14203578262
14203586990
14203590958
14203599930
14203605789
14203612625
14203616897
14203624161
14203629898
14203635757
14203642837
14203647415
14203655044
14203661697
14203667068
14203674270
14203677505
14203684890
14203690811
14203696609
14203703262
14203709732
14203713150
14203719925
14203725235
14203732193
14203738418
14203744949
14203750930
14203757278
14203760574
14203768569
14203773574
14203780776
14203785842
14203793167
14203796218
14203804275
14203808791
14203815322
14203822097
14203828201
14203833755
14203839797
14203845290
14203849929
14203856765
14203861037
14203865737
14203873733
14203880691
14203885390
14203891372
14203897719
14203906142
14203914016
14203920180
14203927505
14203930984
14203939467
14203944594
14203951247
14203957717
14203964248
14203970778
14203976882
14203985305
14203992873
14203997573
14204006911
14204012831
14204021865
14204028579
14204037612
14204044448
14204048842
14204053420
14204060805
14204067580
14204071181
14204078139
14204083937
14204089003
14204096388
14204101759
14204108840
14204113783
14204119643
14204124526
14204131484
14204137770
14204143813
14204149916
14204154677
14204160353
14204163283
14204172682
14204178419
14204184523
14204190077
14204196303
14204201124
14204207045
14204212965
14204219862
14204223341
14204232313
14204237440
14204241591
14204249403
14204254713
14204261915
14204267225
14204272719
14204280592
14204287550
14204292372
14204298109
14204304579
14204310316
14204315748
14204321730
14204324964
14204333998
14204340956
14204348463
14204353895
14204360121
14204366163
14204371595
14204377516
14204383619
14204388502
14204393995
14204400526
14204406690
14204411329
14204418226
14204423353
14204432508
14204438367
14204445387
14204450086
14204457349
14204462415
14204468214
14204473463
14204481946
14204488904
14204493970
14204498243
14204503614
14204510084
14204515699
14204520704
14204527540
14204533338
14204539258
14204544019
14204549024
14204555311
14204561048
14204566541
14204572706
14204578687
14204584241
14204591016
14204598157
14204601087
14204609388
14204616407
14204624646
14204629590
14204635144
14204642591
14204648389
14204653455
14204657422
14204665479
14204670728
14204675855
14204680615
14204687757
14204691846
14204698071
14204703870
14204708753
14204714490
14204718823
14204724439
14204728955
14204733960
14204739697
14204745618
14204752759
14204757581
14204762341
14204768628
14204773450
14204779248
14204783826
14204790845
14204795727
14204801465
14204807385
14204812451
14204817029
14204822278
14204827527
14204834302
14204839551
14204845898
14204851513
14204857922
14204862927
14204867932
14204874829
14204879651
14204887341
14204892651
14204898266
14204903149
14204910107
14204915051
14204921337
14204924206
14204936779
14204943432
14204948925
14204954785
14204961315
14204967602
14204973522
14204979992
14204986096
14204991284
14204997753
14205002453
14205008556
14205013622
14205018932
14205025829
14205032665
14205038525
14205044384
14205051037
14205055370
14205060253
14205066601
14205073803
14205078686
14205084240
14205091259
14205097057
14205101574
14205106640
14205112377
14205121166
14205126476
14205132152
14205139049
14205143505
14205150768
14205154796
14205160473
14205165783
14205174694
14205181408
14205187206
14205191784
14205199962
14205204845
14205212963
14205216686
14205227672
14205234020
14205238048
14205242198
14205247570
14205251659
14205257457
14205262279
14205269664
14205273326
14205279308
14205284252
14205290111
14205294628
14205300853
14205308238
14205312694
14205318431
14205322521
14205327953
14205334422
14205338573
14205344859
14205351695
14205356456
14205363292
14205369578
14205373057
14205380382
14205386546
14205393077
14205398997
14205406261
14205411204
14205417796
14205422679
14205427928
14205434092
14205439708
14205446055
14205451182
14205456248
14205464061
14205468699
14205474254
14205479686
14205485240
14205491038
14205498851
14205504405
14205510569
14205516307
14205521922
14205528025
14205534190
14205540843
14205547312
14205554698
14205559580
14205564768
14205570872
14205577525
14205583750
14205589488
14205595286
14205600779
14205606394
14205611948
14205617564
14205622019
14205629099
14205636912
14205643320
14205649302
14205656504
14205660410
14205667612
14205672739
14205678355
14205684031
14205689280
14205696421
14205702769
14205708445
14205714365
14205719980
14205722910
14205733347
14205740061
14205745493
14205751230
14205758310
14205766367
14205771677
14205779490
14205786264
14205794199
14205802927
14205808664
14205815317
14205824289
14205827036
14205835825
14205839487
14205845529
14205849375
14205855905
14205861215
14205867502
14205873972
14205880319
14205886362
14205892160
14205897653
14205903269
14205909250
14205914804
14205920908
14205927805
14205933725
14205938303
14205944650
14205950937
14205955698
14205960519
14205966989
14205974557
14205979257
14205985116
14205991403
14205995798
14206002634
14206007577
14206014047
14206018747
14206025766
14206030343
14206037240
14206043283
14206048410
14206054391
14206060556
14206063363
14206072702
14206077829
14206083383
14206088998
14206094613
14206101022
14206107003
14206112802
14206118722
14206125070
14206130685
14206135446
14206141122
14206145639
14206152658
14206157357
14206166451
14206172433
14206177072
14206184518
14206190560
14206195626
14206201974
14206207711
14206215157
14206220467
14206227242
14206231576
14206238778
14206243233
14206249947
14206254342
14206260934
14206267770
14206273690
14206279671
14206285531
14206291390
14206297188
14206301949
14206309151
14206314461
14206320687
14206325753
14206330514
14206335824
14206341927
14206347054
14206356820
14206366158
14206371102
14206377266
14206382882
14206390877
14206398262
14206405892
14206412606
14206419258
14206427437
14206434334
14206439522
14206446968
14206453133
14206459297
14206465645
14206471687
14206478584
14206482918
14206489510
14206495064
14206500923
14206509224
14206515389
14206521431
14206525826
14206533211
14206538338
14206545113
14206549690
14206557991
14206562752
14206568184
14206574104
14206579719
14206585884
14206590828
14206597603
14206603828
14206610664
14206614937
14206621406
14206626594
14206632393
14206639290
14206644355
14206651985
14206657234
14206663643
14206669014
14206675789
14206681526
14206685676
14206692756
14206696724
14206704109
14206708931
14206714424
14206721260
14206727485
14206732795
14206738410
14206744575
14206750984
14206754280
14206761482
14206768745
14206773078
14206779731
14206785652
14206792243
14206797797
14206803291
14206810127
14206814094
14206820564
14206825996
14206830634
14206836799
14206843574
14206850471
14206854987
14206861762
14206867866
14206873237
14206876594
14206885688
14206891608
14206897224
14206904243
14206909369
14206914802
14206921210
14206925178
14206932502
14206939460
14206944098
14206949958
14206958320
14206964057
14206972297
14206981086
14206987616
14206994025
14206999762
14207006659
14207011603
14207018134
14207022711
14207030280
14207034796
14207040717
14207045600
14207051581
14207058112
14207061957
14207070319
14207076483
14207083624
14207093329
14207098090
14207104071
14207110175
14207115179
14207121527
14207128790
14207137274
14207142584
14207148138
14207153387
14207160406
14207165289
14207171637
14207176581
14207182806
14207187445
14207192206
14207197455
14207203863
14207210150
14207216192
14207219305
14207227484
14207233587
14207239386
14207242987
14207250738
14207256964
14207262884
14207267584
14207273748
14207280828
14207285101
14207292669
14207297857
14207303106
14207309515
14207315618
14207321600
14207327093
14207332159
14207338384
14207343756
14207350347
14207355535
14207362066
14207365240
14207373358
14207377935
14207384649
14207389837
14207395208
14207402471
14207408147
14207412725
14207420354
14207425970
14207495061
14207499761
14207503728
14207509282
14207515569
14207519475
14207525335
14207529119
14207533086
14207537847
14207543706
14207548284
14207554387
14207559697
14207563970
14207569341
14207573796
14207579473
14207585149
14207590581
14207594731
14207600835
14207605291
14207609624
14207612920
14207617620
14207622319
14207625432
14207630498
14207634282
14207638555
14207644536
14207647893
14207653874
14207658696
14207663945
14207669316
14207674748
14207678777
14207684087
14207689641
14207694035
14207698735
14207703679
14207709782
14207713322
14207716985
14207721440
14207729863
14207733830
14207739201
14207743535
14207748845
14207753972
14207759587
14207764653
14207768803
14207773686
14207779118
14207784062
14207788335
14207793645
14207798283
14207803959
14207808842
14207813847
14207819157
14207824223
14207830449
14207838810
14207843937
14207850590
14207855961
14207861027
14207867375
14207872441
14207880314
14207886296
14207893376
14207898136
14207903813
14207907536
14207913151
14207918034
14207923527
14207929264
14207934635
14207939457
14207943913
14207949833
14207954106
14207960209
14207965336
14207970768
14207976750
14207980717
14207985600
14207990849
14207995976
14208001835
14208007389
14208011417
14208017948
14208023075
14208027958
14208035221
14208042240
14208046452
14208053165
14208058231
14208064274
14208070988
14208075687
14208082035
14208087101
14208092472
14208098148
14208103519
14208108890
14208112797
14208118656
14208124027
14208131229
14208136173
14208142460
14208146000
14208155521
14208162052
14208168399
14208174869
14208182682
14208187442
14208193302
14208197635
14208204166
14208210880
14208214176
14208221988
14208226627
14208232669
14208238529
14208243961
14208249149
14208255008
14208259769
14208266055
14208270267
14208276920
14208281741
14208288944
14208295902
14208301700
14208305423
14208313602
14208318057
14208324954
14208330630
14208336490
14208341983
14208347903
14208354617
14208362613
14208369205
14208377078
14208382754
14208389224
14208394168
14208402469
14208409244
14208415286
14208422183
14208429812
14208434573
14208442080
14208445987
14208452395
14208457522
14208462405
14208466922
14208473025
14208477603
14208482425
14208487612
14208493472
14208499026
14208504519
14208509219
14208514468
14208519839
14208525271
14208530642
14208537051
14208543521
14208550662
14208553713
14208561587
14208566775
14208572939
14208578677
14208584292
14208590151
14208596072
14208603701
14208607974
14208615298
14208619570
14208626406
14208630679
14208636477
14208645510
14208650332
14208656313
14208663821
14208667971
14208674807
14208679384
14208685610
14208690188
14208696596
14208701845
14208707705
14208713564
14208718630
14208725283
14208730471
14208735781
14208744692
14208751772
14208756350
14208762026
14208765749
14208770449
14208775820
14208781130
14208787844
14208792665
14208798830
14208803896
14208810732
14208818483
14208823549
14208828249
14208835756
14208840761
14208846132
14208851869
14208857240
14208861940
14208868776
14208874513
14208882570
14208888246
14208892946
14208898439
14208905275
14208912294
14208917787
14208926332
14208930910
14208936342
14208941408
14208946779
14208952760
14208962221
14208968324
14208975831
14208981569
14208989747
14208994691
14209002626
14209009889
14209016115
14209020753
14209026674
14209032716
14209038636
14209044435
14209050599
14209057130
14209063050
14209069032
14209075135
14209078309
14209086122
14209090699
14209097901
14209103944
14209109559
14209115174
14209120668
14209125062
14209131776
14209136781
14209144227
14209149293
14209156007
14209161012
14209168397
14209175294
14209180604
14209188294
14209193177
14209200440
14209206788
14209212525
14209217896
14209225465
14209229127
14209236207
14209241578
14209248353
14209253419
14209259522
14209266297
14209273316
14209277833
14209283997
14209291016
14209297242
14209302491
14209307862
14209312989
14209319947
14209325684
14209332642
14209338685
14209344666
14209350525
14209356141
14209362793
14209368897
14209375489
14209382080
14209386719
14209394593
14209399903
14209405823
14209412598
14209419556
14209423828
14209430664
14209434815
14209441590
14209446472
14209453980
14209462341
14209467407
14209472962
14209477966
14209482117
14209488037
14209493408
14209499146
14209506653
14209512634
14209516785
14209523254
14209527710
14209533874
14209540893
14209547790
14209554260
14209559387
14209567383
14209574890
14209581238
14209586792
14209595398
14209601928
14209612671
14209618286
14209626281
14209630554
14209638244
14209642761
14209649292
14209653564
14209661926
14209668579
14209674926
14209678894
14209685791
14209691040
14209696960
14209703735
14209709533
14209715393
14209720886
14209725707
14209732360
14209738891
14209745361
14209751098
14209757873
14209763000
14209768554
14209773925
14209779784
14209785278
14209790893
14209793823
14209802428
14209805602
14209813537
14209819396
14209824889
14209830382
14209836974
14209841918
14209848205
14209855285
14209860839
14209868407
14209873046
14209880431
14209885009
14209891723
14209898131
14209904540
14209908874
14209915526
14209922240
14209928466
14209934508
14209939025
14209944274
14209952330
14209958617
14209964415
14209969176
14209974425
14209978453
14209985045
14209989196
14209994811
14209999938
14210007506
14210012999
14210020201
14210025694
14210031676
14210037047
14210043517
14210050170
14210055724
14210062926
14210068175
14210074645
14210079344
14210087340
14210096556
14210102477
14210107481
14210116148
14210121275
14210126158
14210134032
14210138792
14210147459
14210153014
14210159788
14210164915
14210171324
14210174986
14210185362
14210195372
14210203612
14210211668
14210218077
14210224363
14210230833
14210235838
14210243223
14210251158
14210256468
14210261473
14210267393
14210270567
14210279661
14210286619
14210291075
14210296507
14210303648
14210308958
14210316770
14210322508
14210328428
14210333677
14210339842
14210345274
14210352293
14210358030
14210363889
14210369138
14210374143
14210379087
14210388059
14210392698
14210401853
14210406553
14210413206
14210418516
14210424497
14210430540
14210437254
14210443662
14210451475
14210456602
14210461301
14210466978
14210473081
14210480344
14210486082
14210491941
14210496763
14210502439
14210508542
14210515378
14210521421
14210526365
14210531553
14210539487
14210544431
14210552976
14210557615
14210563291
14210571775
14210576596
14210584165
14210589719
14210594785
14210599851
14210606443
14210612302
14210618039
14210623044
14210628415
14210633542
14210639035
14210647092
14210653256
14210659299
14210664731
14210670224
14210675656
14210680112
14210686704
14210693295
14210699216
14210705502
14210711606
14210716000
14210722836
14210727231
14210732785
14210740231
14210746518
14210751157
14210758237
14210763974
14210769711
14210774228
14210780392
14210787533
14210792904
14210800778
14210805478
14210817379
14210825009
14210830807
14210839413
14210846371
14210851986
14210859799
14210866024
14210872616
14210878292
14210882748
14210887265
14210892819
14210896908
14210903134
14210908139
14210912838
14210918270
14210924557
14210930233
14210934506
14210939449
14210944210
14210950070
14210955807
14210963314
14210969235
14210974728
14210980099
14210986263
14210992245
14210998653
14211004208
14211010250
14211016659
14211023495
14211032162
14211038753
14211045772
14211050838
14211056332
14211061092
14211068477
14211074032
14211079525
14211085872
14211091366
14211096187
14211102840
14211107357
14211114559
14211120235
14211125667
14211131405
14211136837
14211142086
14211148128
14211154293
14211161190
14211167598
14211173580
14211178402
14211184078
14211190364
14211197139
14211200435
14211207576
14211214351
14211218868
14211226436
14211232906
14211239192
14211245052
14211250179
14211258418
14211263484
14211270503
14211278316
14211284541
14211290950
14211296931
14211303462
14211309688
14211316646
14211321345
14211327693
14211333186
14211337337
14211345576
14211350764
14211356685
14211363460
14211369502
14211375911
14211380733
14211387507
14211395320
14211403621
14211409358
14211414851
14211422786
14211431147
14211436519
14211442744
14211449275
14211456111
14211461238
14211467707
14211471980
14211479731
14211485347
14211490473
14211495784
14211501338
14211506587
14211511775
14211519221
14211524775
14211530634
14211535761
14211542903
14211548457
14211555720
14211560053
14211566035
14211571101
14211576838
14211582819
14211588190
14211594660
14211599665
14211607111
14211612666
14211618586
14211624567
14211630793
14211636896
14211642756
14211647700
14211655878
14211661188
14211666926
14211673456
14211678156
14211684138
14211691096
14211694941
14211701838
14211711237
14211717585
14211722773
14211727655
14211734980
14211740717
14211746393
14211751520
14211757746
14211763910
14211769587
14211776545
14211781244
14211787775
14211793329
14211801874
14211807184
14211813471
14211819757
14211826715
14211830683
14211836542
14211843561
14211848688
14211853937
14211859857
14211866754
14211871332
14211878046
14211885309
14211890497
14211898370
14211903802
14211910272
14211914606
14211921808
14211929376
14211934869
14211942132
14211950677
14211956781
14211965936
14211976922
14211982293
14211989801
14211993951
14212002557
14212009027
14212014825
14212022821
14212027581
14212033624
14212038446
14212045221
14212051507
14212056939
14212061517
14212068536
14212073907
14212079156
14212083856
14212090081
14212094842
14212099359
14212104058
14212109246
14212114556
14212120599
14212125054
14212129205
14212133477
14212139214
14212144280
14212148614
14212153985
14212159661
14212164605
14212169122
14212174737
14212179864
14212184686
14212193353
14212199578
14212204583
14212209771
14212214288
14212220025
14212224663
14212229546
14212236748
14212242486
14212247430
14212252740
14212257683
14212263177
14212268548
14212273553
14212280938
14212286553
14212291924
14212296563
14212301568
14212306572
14212312310
14212318413
14212324028
14212331109
14212336480
14212340996
14212347893
14212353569
14212359002
14212363701
14212370659
14212376580
14212382012
14212387139
14212393608
14212398735
14212404778
14212410942
14212415886
14212422417
14212427666
14212432182
14212439140
14212444878
14212451592
14212456352
14212463127
14212468681
14212475029
14212480217
14212486565
14212489922
14212496880
14212506889
14212515373
14212521965
14212528129
14212532829
14212539787
14212543938
14212551018
14212557060
14212561943
14212566765
14212571770
14212576530
14212583183
