14534076684
14534083337
14534088158
14534093529
14534097558
14534101525
14534107323
14534112267
14534115990
14534120934
14534126305
14534131249
14534135888
14534140648
14534145409
14534151024
14534155785
14534160546
14534166039
14534170556
14534175622
14534180993
14534186486
14534192101
14534198815
14534207238
14534215050
14534220604
14534229149
14534236107
14534241844
14534249230
14534257775
14534265404
14534271935
14534278343
14534286400
14534294823
14534302025
14534309349
14534318260
14534322838
14534331932
14534340599
14534348106
14534354698
14534361839
14534368797
14534372459
14534381676
14534387352
14534393333
14534400169
14534404259
14534412437
14534417747
14534423729
14534429039
14534435692
14534441490
14534447410
14534453209
14534458458
14534465294
14534471031
14534477623
14534483360
14534488060
14534494774
14534502769
14534508934
14534515037
14534519432
14534523460
14534528160
14534532859
14534537132
14534541038
14534544822
14534548851
14534553306
14534559349
14534563377
14534568077
14534573753
14534577354
14534581382
14534587181
14534592185
14534596763
14534603355
14534608116
14534613487
14534617576
14534622642
14534626975
14534631736
14534638084
14534642356
14534648887
14534653281
14534658530
14534664085
14534669456
14534675193
14534680442
14534686179
14534691245
14534697837
14534704307
14534709556
14534716392
14534721824
14534727622
14534732261
14534737632
14534741782
14534748557
14534752952
14534756980
14534761252
14534766196
14534771262
14534776938
14534782798
14534787680
14534792319
14534796286
14534802146
14534807029
14534811118
14534816672
14534821738
14534826010
14534829978
14534833823
14534837485
14534841635
14534848349
14534854819
14534859458
14534864218
14534868552
14534872458
14534877402
14534880881
14534885336
14534891623
14534894980
14534899252
14534904501
14534908103
14534912680
14534916647
14534922568
14534927023
14534931906
14534936667
14534940573
14534944785
14534950095
14534954001
14534959189
14534964011
14534968344
14534973166
14534977621
14534982077
14534989645
14534994101
14534998312
14535003317
14535008139
14535013205
14535018637
14535024985
14535031454
14535034933
14535041220
14535047323
14535053244
14535057333
14535066244
14535073141
14535077902
14535085043
14535090170
14535094687
14535102377
14535108603
14535115316
14535120321
14535126486
14535132772
14535137228
14535145590
14535153402
14535159384
14535166159
14535174642
14535179098
14535194235
14535200521
14535209066
14535215109
14535221090
14535228292
14535233541
14535240499
14535248861
14535255209
14535261129
14535268026
14535272543
14535279439
14535285360
14535290121
14535296285
14535304708
14535311056
14535318929
14535324911
14535333150
14535340047
14535347432
14535353902
14535360494
14535369527
14535375570
14535380574
14535390035
14535397054
14535401448
14535407979
14535412618
14535417379
14535423299
14535429464
14535433370
14535441365
14535447652
14535451619
14535456624
14535462544
14535467122
14535472066
14535477498
14535480977
14535486470
14535492391
14535496419
14535501607
14535507466
14535513142
14535518269
14535523702
14535528767
14535533955
14535539082
14535544331
14535550740
14535555623
14535562642
14535567708
14535572041
14535577351
14535582295
14535591817
14535596516
14535602132
14535607442
14535612080
14535617634
14535621724
14535628377
14535634053
14535638875
14535645222
14535650715
14535657124
14535662861
14535669026
14535674641
14535680500
14535686970
14535692097
14535698079
14535704060
14535714619
14535721516
14535727497
14535733174
14535739277
14535743183
14535749287
14535753559
14535759785
14535764729
14535769184
14535774372
14535779804
14535784138
14535790119
14535793903
14535800190
14535804585
14535810505
14535814533
14535820759
14535824726
14535830280
14535835346
14535841145
14535845844
14535851276
14535858723
14535863728
14535869343
14535875690
14535881550
14535886372
14535892536
14535898762
14535904133
14535909443
14535915363
14535921284
14535926716
14535932026
14535937946
14535943317
14535949177
14535954487
14535960895
14535965595
14535971759
14535977131
14535985492
14535990802
14535996479
14536001484
14536006916
14536012165
14536018268
14536023395
14536029621
14536036212
14536041645
14536047626
14536054584
14536060443
14536066242
14536071857
14536079486
14536084979
14536091632
14536098773
14536102863
14536109210
14536115131
14536124713
14536131061
14536141986
14536147723
14536156390
14536162860
14536173480
14536179156
14536187030
14536195514
14536205279
14536212176
14536221271
14536228656
14536235736
14536244403
14536253802
14536261798
14536270282
14536276446
14536283343
14536292193
14536300860
14536309100
14536313983
14536323687
14536328448
14536333575
14536337786
14536343707
14536349993
14536354876
14536361651
14536367205
14536373065
14536377154
14536383318
14536389788
14536395281
14536401995
14536407855
14536414690
14536420001
14536425066
14536429766
14536436419
14536440142
14536448687
14536453081
14536462298
14536468279
14536473711
14536479815
14536485552
14536491778
14536497698
14536504168
14536509417
14536515764
14536521746
14536527056
14536531573
14536539385
14536546343
14536550554
14536556231
14536562578
14536567339
14536572527
14536577227
14536580523
14536590105
14536593767
14536600542
14536606707
14536612505
14536616777
14536623125
14536628008
14536634905
14536640947
14536646929
14536653215
14536659197
14536664751
14536669329
14536675005
14536681597
14536686418
14536692949
14536697954
14536702287
14536707781
14536713396
14536718095
14536724687
14536730425
14536736772
14536742937
14536748369
14536752519
14536758501
14536763994
14536769914
14536776323
14536780412
14536787126
14536792375
14536797990
14536801835
14536808305
14536813066
14536820512
14536825517
14536831498
14536836442
14536842729
14536848649
14536853776
14536860307
14536868730
14536876786
14536882585
14536887895
14536894853
14536900773
14536906511
14536911882
14536917680
14536925492
14536930192
14536935441
14536940385
14536946611
14536951249
14536957170
14536961381
14536967912
14536972917
14536978349
14536981828
14536987687
14536992265
14536999162
14537003434
14537008439
14537013749
14537019181
14537024979
14537030228
14537037431
14537043168
14537048173
14537055619
14537061600
14537066910
14537073685
14537080826
14537086686
14537092240
14537097550
14537103898
14537110062
14537116898
14537122941
14537129410
14537136979
14537144913
14537153336
14537160233
14537168900
14537176407
14537185074
14537191849
14537199417
14537207352
14537215165
14537222306
14537230789
14537238846
14537246903
14537253617
14537261612
14537269180
14537276810
14537284073
14537292618
14537301102
14537310745
14537318192
14537326614
14537333817
14537340775
14537346817
14537352066
14537356399
14537362503
14537368729
14537374405
14537379105
14537384903
14537390335
14537396377
14537402481
14537407120
14537413406
14537420120
14537424515
14537429764
14537434952
14537440323
14537447464
14537455154
14537463516
14537469497
14537476333
14537485000
14537491531
14537499343
14537506118
14537511367
14537516922
14537523208
14537529373
14537534622
14537543472
14537548110
14537555007
14537560195
14537565750
14537570693
14537576064
14537581375
14537587539
14537592056
14537598403
14537603896
14537609023
14537613601
14537619582
14537623977
14537631301
14537635757
14537643203
14537648269
14537653274
14537658889
14537664748
14537670303
14537676040
14537681106
14537685744
14537691054
14537696425
14537701552
14537707412
14537712905
14537718459
14537723586
14537728835
14537734023
14537738906
14537744704
14537749282
14537754104
14537758986
14537765273
14537769179
14537774123
14537780715
14537784438
14537791274
14537796035
14537801955
14537807204
14537812514
14537817824
14537823012
14537828017
14537834059
14537839858
14537844802
14537850417
14537855788
14537860976
14537866225
14537871230
14537876723
14537883376
14537889601
14537894301
14537902052
14537907790
14537913771
14537921339
14537927809
14537933241
14537938734
14537945998
14537952284
14537957716
14537963637
14537969252
14537975294
14537981947
14537985914
14537991835
14537998732
14538006117
14538011854
14538018507
14538025892
14538035109
14538042433
14538047316
14538056410
14538062391
14538067762
14538073378
14538077894
14538084791
14538090834
14538096632
14538102003
14538106642
14538112257
14538118055
14538123426
14538128797
14538134413
14538140760
14538147840
14538154676
14538162672
14538170973
14538178358
14538186781
14538194715
14538200697
14538208265
14538217603
14538223951
14538233411
14538241529
14538249891
14538258192
14538266248
14538274427
14538282484
14538290235
14538299512
14538307813
14538316053
14538323865
14538330884
14538339124
14538348890
14538354078
14538361646
14538367627
14538375196
14538380506
14538388013
14538392591
14538399976
14538404859
14538411878
14538417676
14538422742
14538429334
14538434583
14538441236
14538447522
14538453809
14538459363
14538465283
14538470777
14538476636
14538481946
14538487805
14538494092
14538499158
14538507031
14538512891
14538517957
14538523633
14538528699
14538534619
14538540906
14538547925
14538553662
14538559155
14538563916
14538569775
14538575696
14538581616
14538587598
14538591992
14538600659
14538604565
14538611279
14538616467
14538623242
14538628552
14538635144
14538641247
14538647839
14538653943
14538660778
14538669812
14538675732
14538683239
14538688488
14538696118
14538702526
14538707836
14538712963
14538718884
14538724682
14538730786
14538737438
14538742565
14538748059
14538752941
14538759594
14538764782
14538769970
14538775585
14538782116
14538788159
14538793041
14538798534
14538804150
14538809643
14538814282
14538820202
14538826000
14538831249
14538837292
14538843090
14538848400
14538854687
14538861095
14538867382
14538873180
14538877697
14538884289
14538888256
14538896374
14538900158
14538906933
14538912243
14538918468
14538924083
14538928661
14538934459
14538940929
14538946239
14538952587
14538958202
14538964550
14538971019
14538975536
14538981517
14538988292
14538994091
14538997936
14539004955
14539008800
14539017345
14539022960
14539029918
14539035839
14539042552
14539048046
14539054332
14539060497
14539065196
14539071971
14539077403
14539084667
14539088390
14539094127
14539100536
14539107005
14539111766
14539118419
14539124522
14539130382
14539136913
14539141490
14539145824
14539154002
14539159862
14539166026
14539172801
14539178966
14539185496
14539191661
14539196300
14539203746
14539208812
14539217296
14539224132
14539233836
14539242503
14539253367
14539264720
14539274546
14539287913
14539299754
14539305674
14539319834
14539326365
14539333262
14539342295
14539350169
14539355479
14539364634
14539369822
14539378794
14539386973
14539393870
14539402415
14539411631
14539418162
14539424937
14539431284
14539437083
14539443491
14539447886
14539453745
14539458811
14539464976
14539471445
14539477244
14539482920
14539488657
14539494456
14539500254
14539505930
14539511789
14539517954
14539522959
14539528574
14539534556
14539541208
14539547983
14539552744
14539560129
14539564829
14539570810
14539574778
14539578318
14539585459
14539588999
14539593759
14539599680
14539605539
14539609262
14539614572
14539619699
14539624155
14539629343
14539637705
14539641550
14539649423
14539654733
14539659677
14539666208
14539672617
14539677255
14539682626
14539690134
14539696176
14539700693
14539705820
14539712656
14539720529
14539728036
14539732004
14539740182
14539746774
14539750864
14539756174
14539763254
14539768625
14539772775
14539779123
14539784982
14539791940
14539796823
14539804391
14539810678
14539815500
14539823068
14539830575
14539837350
14539841256
14539847482
14539853647
14539858224
14539863534
14539870187
14539879831
14539886911
14539893930
14539899972
14539906808
14539913522
14539920541
14539925546
14539932138
14539938607
14539944589
14539949899
14539954782
14539960031
14539965035
14539971993
14539975900
14539981271
14539987313
14539992928
14539997323
14540002694
14540008004
14540015328
14540020211
14540027230
14540034432
14540040658
14540047677
14540052987
14540059334
14540065926
14540072396
14540078927
14540083077
14540089974
14540095650
14540101693
14540107125
14540113717
14540119210
14540124886
14540130684
14540136666
14540142281
14540149239
14540155281
14540162850
14540167733
14540173836
14540179024
14540185433
14540190865
14540197335
14540202645
14540210091
14540214974
14540221504
14540226387
14540232491
14540237496
14540243233
14540248665
14540254280
14540259834
14540265755
14540271370
14540276680
14540284004
14540291817
14540300301
14540307442
14540317451
14540326302
14540332771
14540341072
14540349800
14540356819
14540364265
14540372444
14540379829
14540387886
14540396004
14540403084
14540411018
14540419136
14540425056
14540432991
14540443611
14540451057
14540460029
14540469673
14540477913
14540487068
14540495430
14540501594
14540508857
14540513984
14540520271
14540524848
14540534004
14540540290
14540545295
14540552741
14540560127
14540564887
14540573982
14540578864
14540584846
14540590217
14540594611
14540599983
14540605659
14540611518
14540618293
14540622932
14540628120
14540632819
14540637214
14540643623
14540647956
14540653144
14540657477
14540662360
14540667243
14540673163
14540678168
14540684211
14540689277
14540695075
14540699836
14540705207
14540711127
14540716559
14540721259
14540726691
14540731879
14540738288
14540743293
14540746589
14540753913
14540758674
14540763007
14540770026
14540774604
14540780524
14540785102
14540791205
14540796576
14540802985
14540808661
14540815009
14540821051
14540827094
14540833441
14540838568
14540843878
14540849310
14540856024
14540861884
14540868170
14540873236
14540880072
14540886115
14540890143
14540895758
14540901862
14540907416
14540913947
14540921210
14540927557
14540932867
14540938727
14540944037
14540950751
14540955633
14540960089
14540968695
14540972601
14540979193
14540984564
14540990545
14540996588
14541002752
14541008368
14541012945
14541019415
14541025763
14541031683
14541037909
14541043402
14541049627
14541055243
14541062201
14541069830
14541074713
14541080694
14541087408
14541093450
14541099249
14541104925
14541109259
14541118902
14541125067
14541129095
14541135809
14541143377
14541149481
14541155401
14541161199
14541167791
14541177740
14541181707
14541186773
14541193609
14541199224
14541203985
14541209173
14541215093
14541219793
14541225286
14541230352
14541236089
14541241094
14541247442
14541251836
14541259344
14541263677
14541270513
14541274908
14541282659
14541287420
14541292730
14541299932
14541304876
14541310918
14541317937
14541322942
14541328862
14541334905
14541341680
14541350225
14541356511
14541362066
14541367986
14541379033
14541387151
14541393376
14541400640
14541407842
14541415532
14541422429
14541431951
14541437810
14541445073
14541453252
14541461064
14541467900
14541477727
14541483647
14541491155
14541500066
14541506779
14541517888
14541526555
14541533940
14541543400
14541552617
14541560734
14541568974
14541573918
14541581181
14541587773
14541592717
14541598698
14541604802
14541610112
14541616337
14541621830
14541626835
14541632573
14541637028
14541641667
14541648686
14541653691
14541658574
14541663639
14541669072
14541674748
14541679875
14541684880
14541692204
14541696965
14541703129
14541708195
14541714298
14541719670
14541723271
14541730229
14541736149
14541740116
14541745365
14541751225
14541756596
14541762028
14541768681
14541775822
14541782047
14541791019
14541795353
14541800358
14541806217
14541810978
14541817326
14541821903
14541827152
14541831913
14541836613
14541841373
14541846378
14541851810
14541855778
14541860721
14541865970
14541870731
14541874943
14541880375
14541886967
14541892582
14541897892
14541903873
14541909244
14541914432
14541918766
14541924015
14541929203
14541934757
14541940494
14541946293
14541951419
14541956302
14541962345
14541967228
14541972660
14541977298
14541980716
14541988590
14541993473
14542000492
14542004215
14542009952
14542015201
14542021549
14542025760
14542033267
14542037906
14542044559
14542048831
14542054813
14542061038
14542066593
14542070133
14542076663
14542081607
14542087589
14542092838
14542098514
14542104800
14542110416
14542114993
14542121036
14542126590
14542132388
14542138736
14542142886
14542149966
14542154483
14542160403
14542166019
14542171512
14542176883
14542185000
14542191226
14542195865
14542201236
14542207400
14542211795
14542218631
14542223391
14542231265
14542235782
14542241458
14542246280
14542252505
14542257754
14542265384
14542272342
14542277896
14542285037
14542290103
14542296206
14542302798
14542309817
14542314273
14542320620
14542326968
14542335208
14542342043
14542348269
14542352664
14542361758
14542366274
14542372683
14542379336
14542388796
14542395083
14542400942
14542405825
14542412722
14542420229
14542427737
14542436709
14542444277
14542451296
14542458132
14542465517
14542472597
14542482668
14542489199
14542494021
14542504213
14542509218
14542516848
14542524721
14542532229
14542539736
14542547304
14542555056
14542564638
14542570864
14542576540
14542585512
14542591432
14542599306
14542607302
14542614382
14542619081
14542625063
14542631594
14542636171
14542642214
14542645632
14542652101
14542658388
14542664003
14542669313
14542676515
14542683168
14542687624
14542692629
14542698732
14542704530
14542712160
14542717531
14542723817
14542728822
14542732790
14542738405
14542744630
14542751466
14542756105
14542762269
14542768678
14542775697
14542780092
14542787538
14542791261
14542798219
14542804078
14542812684
14542818666
14542822694
14542830018
14542833925
14542840272
14542846315
14542851197
14542857484
14542863038
14542868714
14542873841
14542879396
14542884462
14542890260
14542894899
14542898255
14542905763
14542911561
14542916993
14542922242
14542927613
14542932191
14542938111
14542943482
14542949159
14542954774
14542958436
14542965455
14542968629
14542975648
14542981751
14542988221
14542994996
14543001160
14543008057
14543013856
14543020203
14543026002
14543032593
14543037537
14543045167
14543050660
14543055665
14543060853
14543065858
14543071168
14543076417
14543082215
14543088502
14543093995
14543099610
14543105286
14543109681
14543114808
14543119446
14543125977
14543131897
14543138123
14543144654
14543150513
14543156006
14543162171
14543167420
14543174500
14543180176
14543186280
14543191468
14543197388
14543202393
14543206238
14543213867
14543220825
14543227112
14543231568
14543237671
14543243469
14543250488
14543257630
14543262207
14543268494
14543273316
14543279846
14543287109
14543291687
14543299072
14543305237
14543311462
14543317444
14543327759
14543332825
14543338928
14543344787
14543351745
14543357178
14543362854
14543367187
14543374023
14543379028
14543385437
14543390320
14543397094
14543403015
14543408447
14543412903
14543419433
14543425537
14543430359
14543436157
14543442688
14543448852
14543454040
14543460449
14543466674
14543471679
14543477294
14543484924
14543489929
14543499755
14543508605
14543516967
14543522643
14543532958
14543537963
14543546264
14543552917
14543562194
14543568481
14543576476
14543585571
14543594604
14543601928
14543614745
14543622985
14543632140
14543639892
14543649047
14543657226
14543665465
14543672973
14543682006
14543689269
14543696654
14543702880
14543707946
14543714293
14543721984
14543726012
14543731078
14543737120
14543742369
14543748595
14543754271
14543758117
14543766783
14543773436
14543779357
14543783812
14543789855
14543799437
14543805174
14543812987
14543818297
14543823729
14543829039
14543834715
14543840148
14543845763
14543853148
14543857726
14543862792
14543869139
14543874510
14543880125
14543884947
14543890135
14543896361
14543902098
14543907957
14543913634
14543918272
14543924254
14543932432
14543937315
14543942442
14543948057
14543952147
14543959593
14543965391
14543971129
14543977476
14543982359
14543988524
14543994444
14544000486
14544006346
14544012816
14544017637
14544023314
14544027464
14544034361
14544040464
14544045530
14544052488
14544058409
14544066160
14544071165
14544077391
14544083189
14544088011
14544093870
14544100523
14544106687
14544111509
14544116941
14544122801
14544128477
14544133116
14544137449
14544143125
14544148924
14544155760
14544161558
14544167600
14544173277
14544180418
14544186338
14544192808
14544200071
14544207029
14544213682
14544219602
14544225034
14544231504
14544237607
14544242795
14544248289
14544256284
14544262632
14544267209
14544272458
14544278318
14544283628
14544288572
14544294736
14544301328
14544307859
14544312986
14544319577
14544325437
14544331235
14544335874
14544341672
14544348081
14544353818
14544359311
14544364011
14544369565
14544375730
14544380063
14544385617
14544391233
14544397824
14544401425
14544407346
14544413632
14544418942
14544425656
14544431455
14544436704
14544442197
14544448483
14544454343
14544460019
14544466550
14544473752
14544478940
14544484128
14544492795
14544500180
14544510251
14544515439
14544526608
14544535031
14544542905
14544548276
14544557797
14544568905
14544576291
14544585507
14544593075
14544603329
14544610714
14544618466
14544628659
14544638668
14544646725
14544654477
14544663693
14544672238
14544678707
14544685665
14544690609
14544697384
14544702755
14544709530
14544715450
14544720211
14544726498
14544732174
14544739071
14544744137
14544749813
14544755306
14544759945
14544766354
14544776424
14544782467
14544787350
14544795834
14544800533
14544808407
14544812740
14544820309
14544827083
14544833309
14544838802
14544843197
14544848324
14544855343
14544861263
14544866817
14544872799
14544878719
14544884701
14544890316
14544894344
14544902279
14544907222
14544913936
14544919185
14544924434
14544930416
14544935665
14544942134
14544947078
14544953182
14544958919
14544964656
14544970638
14544977962
14544982479
14544987850
14544993587
14544999202
14545007198
14545012508
14545017879
14545023311
14545027400
14545033199
14545040401
14545047359
14545053706
14545059322
14545065425
14545071468
14545077205
14545083186
14545088435
14545095576
14545099422
14545106990
14545113155
14545118770
14545124141
14545130366
14545136226
14545140498
14545146846
14545153743
14545158748
14545164607
14545170955
14545176021
14545182246
14545188533
14545193904
14545197810
14545206233
14545210322
14545217158
14545222468
14545229609
14545235713
14545242121
14545246821
14545253596
14545258479
14545265071
14545270564
14545276667
14545281672
14545287226
14545291621
14545298762
14545304804
14545313349
14545319453
14545323359
14545330134
14545334162
14545341670
14545347590
14545354487
14545361933
14545367243
14545372492
14545378779
14545384943
14545390742
14545397150
14545404169
14545413447
14545420710
14545425165
14545433161
14545437433
14545444636
14545450190
14545458307
14545463190
14545468561
14545473261
14545478815
14545484064
14545489863
14545494318
14545500544
14545506830
14545510431
14545516291
14545522211
14545528498
14545534418
14545539972
14545545954
14545552607
14545557672
14545565790
14545573175
14545580255
14545587641
14545594965
14545603021
14545612177
14545620172
14545627802
14545635980
14545643854
14545652582
14545659967
14545667108
14545676935
14545684076
14545692377
14545698907
14545707635
14545715997
14545724176
14545731439
14545740900
14545749078
14545757196
14545765619
14545772821
14545777765
14545783685
14545790582
14545795709
14545802301
14545809137
14545817010
14545823663
14545828546
14545838739
14545844903
14545850579
14545856195
14545861138
14545865289
14545869500
14545875115
14545880792
14545884637
14545890252
14545895074
14545899713
14545904473
14545908868
14545913018
14545917535
14545923577
14545928765
14545933587
14545936944
14545941705
14545947198
14545952508
14545957208
14545964349
14545970086
14545975213
14545978997
14545984490
14545989373
14545993340
14545999017
14546008416
14546014641
14546021294
14546026604
14546032036
14546038018
14546044488
14546049492
14546054925
14546059929
14546064690
14546068413
14546073968
14546077630
14546082085
14546086663
14546091362
14546094841
14546099480
14546104302
14546108696
14546113579
14546118401
14546122368
14546127129
14546132134
14546137444
14546143486
14546146965
14546152336
14546157891
14546163811
14546169609
14546175469
14546181633
14546186821
14546192497
14546197685
14546204399
14546209282
14546214958
14546219597
14546225884
14546231255
14546236870
14546242485
14546248711
14546254143
14546259697
14546264824
14546268425
14546275566
14546281609
14546286736
14546292107
14546300102
14546306023
14546313713
14546319023
14546324638
14546330376
14546334526
14546340813
14546346794
14546353813
14546358208
14546364921
14546369926
14546376762
14546383415
14546388725
14546395012
14546400993
14546405265
14546411735
14546417106
14546423820
14546429435
14546437187
14546441093
14546449211
14546455314
14546460746
14546465995
14546470024
14546476982
14546483390
14546489677
14546496025
14546501762
14546507987
14546515067
14546521720
14546527091
14546534660
14546541557
14546548759
14546554374
14546560050
14546566215
14546570365
14546576713
14546583244
14546594474
14546601554
14546610709
14546623771
14546631278
14546639274
14546646842
14546656425
14546664603
14546675406
14546682914
14546689750
14546698050
14546705497
14546713187
14546720877
14546730521
14546738028
14546745902
14546753531
14546761283
14546768790
14546776236
14546783621
14546791617
14546796744
14546801261
14546806449
14546811026
14546816763
14546821707
14546828726
14546834036
14546840872
14546845938
14546849722
14546855948
14546861868
14546866934
14546872794
14546878470
14546885184
14546891531
14546897269
14546903372
14546909170
14546914480
14546920035
14546925223
14546930594
14546938528
14546943411
14546949942
14546955008
14546961233
14546965750
14546971426
14546977957
14546982718
14546989615
14546995657
14547001211
14547006765
14547011953
14547018118
14547022818
14547028067
14547036917
14547041738
14547047171
14547052175
14547058462
14547064810
14547068655
14547076223
14547082205
14547087210
14547091665
14547099966
14547106802
14547111990
14547116323
14547123586
14547130422
14547136160
14547143972
14547149892
14547155508
14547162099
14547169241
14547176443
14547182363
14547187734
14547194814
14547200979
14547206960
14547211233
14547219289
14547224599
14547230581
14547235341
14547244069
14547249685
14547256399
14547263234
14547269094
14547276845
14547284047
14547291127
14547298513
14547303701
14547310476
14547315603
14547320729
14547325429
14547332448
14547338185
14547342214
14547346913
14547352773
14547358510
14547364797
14547369191
14547375112
14547379323
14547384938
14547390248
14547396413
14547402638
14547409169
14547413808
14547419484
14547424428
14547429738
14547435475
14547439748
14547447804
14547452809
14547458546
14547464650
14547471974
14547477528
14547483266
14547489918
14547496449
14547504018
14547509633
14547515370
14547520619
14547526417
14547531727
14547537037
14547542409
14547547230
14547553395
14547559437
14547565053
14547570668
14547576222
14547580311
14547585927
14547592457
14547599171
14547603077
14547610585
14547616261
14547621632
14547627858
14547633534
14547638234
14547642811
14547649342
14547655812
14547662586
14547669911
14547676564
14547685230
14547691944
14547700428
14547708302
14547715504
14547725453
14547733204
14547739918
14547747242
14547752674
14547761646
14547767262
14547775867
14547784473
14547792225
14547799976
14547806873
14547814503
14547822925
14547829090
14547837330
14547842823
14547852344
14547860035
14547865345
14547874866
14547881763
14547889148
14547896045
14547903309
14547912403
14547920154
14547926380
14547934497
14547939197
14547949634
14547955493
14547960315
14547965015
14547969715
14547974781
14547978748
14547984363
14547989917
14547994800
14548000171
14548004810
14548009693
14548014453
14548019031
14548024097
14548031787
14548036914
14548042712
14548048145
14548054004
14548059009
14548065417
14548071704
14548077930
14548083972
14548089404
14548095325
14548100818
14548106067
14548110766
14548115954
14548121020
14548126514
14548131579
14548137927
14548144885
14548148852
14548155383
14548160937
14548168872
14548174060
14548180102
14548186389
14548191943
14548197802
14548203906
14548209460
14548216479
14548222461
14548226916
14548233386
14548238757
14548245837
14548249743
14548255908
14548262072
14548268420
14548275805
14548280566
14548285571
14548292101
14548296984
14548303820
14548309130
14548314318
14548320605
14548326586
14548332629
14548338793
14548343920
14548347765
14548355029
14548360644
14548368578
14548373888
14548378771
14548383959
14548388232
14548395495
14548401476
14548407458
14548412279
14548418688
14548424731
14548429613
14548435290
14548440844
14548446703
14548450976
14548458117
14548465929
14548476305
14548483385
14548492418
14548498156
14548506578
14548514513
14548520189
14548526293
14548532335
14548537950
14548543199
14548548571
14548553820
14548559252
14548565050
14548570543
14548575609
14548580431
14548585131
14548589586
14548594896
14548602525
14548605821
14548612047
14548615526
14548622545
14548627001
14548631700
14548637621
14548644029
14548648790
14548655321
14548660326
14548666612
14548670946
14548674181
14548680589
14548685594
14548692247
14548697923
14548702867
14548709703
14548713914
14548724657
14548732896
14548739976
14548747178
14548756151
14548763353
14548770982
14548778184
14548783983
14548792772
14548801316
14548807542
14548815843
14548823716
14548832200
14548840013
14548846299
14548855943
14548861070
14548870774
14548875840
14548880845
14548891343
14548901353
14548908311
14548913560
14548921128
14548926865
14548933274
14548938279
14548945115
14548949815
14548958176
14548962815
14548969163
14548975693
14548980759
14548984360
14548992295
14548996384
14549001816
14549007127
14549012986
14549019700
14549025620
14549032395
14549037461
14549041489
14549046616
14549051865
14549057480
14549064377
14549072190
14549075852
14549082871
14549090317
14549095627
14549099350
14549108078
14549113694
14549119309
14549128159
14549133774
14549140244
14549145859
14549152024
14549158310
14549164292
14549169113
14549174851
14549179184
14549183945
14549188828
14549193955
14549199692
14549205124
14549210129
14549215378
14549221970
14549227097
14549232590
14549237717
14549241684
14549246628
14549255295
14549258652
14549264511
14549269211
14549275925
14549280502
14549286301
14549291244
14549299423
14549304611
14549311386
14549315781
14549321396
14549327804
14549333847
14549337997
14549343918
14549349472
14549355392
14549364303
14549371078
14549375839
14549381759
14549386947
14549392135
14549398666
14549403610
14549408859
14549415145
14549420211
14549427047
14549430648
14549436264
14549442245
14549448410
14549454452
14549460006
14549465743
14549471603
14549476425
14549482894
14549489425
14549495651
14549501266
14549506454
14549511825
14549516891
14549523300
14549528793
14549533859
14549540206
14549544967
14549552596
14549557723
14549563216
14549569259
14549574752
14549580672
14549587936
14549593307
14549599044
14549604110
14549610030
14549615951
14549621505
14549626754
14549631698
14549638717
14549642318
14549649032
14549654036
14549660567
14549665816
14549672835
14549678573
14549684981
14549690963
14549699508
14549705550
14549713179
14549719344
14549727340
14549734175
14549742537
14549748397
14549755477
14549761275
14549767623
14549773909
14549778975
14549785689
14549791304
14549800704
14549806319
14549813765
14549820662
14549830367
14549839339
14549845992
14549853621
14549862593
14549869551
14549878157
14549885359
14549892134
14549901106
14549907881
14549915327
14549924360
14549930342
14549937544
14549948164
14549956404
14549964888
14549972700
14549979048
14549985457
14549991438
14549996077
14550001509
14550006392
14550012922
14550019880
14550025312
14550030378
14550034101
14550042280
14550048262
14550052778
14550059004
14550064436
14550070051
14550075361
14550081037
14550087202
14550092939
14550097883
14550104963
14550110273
14550115827
14550122175
14550125776
14550133100
14550138044
14550143903
14550148908
14550156660
14550161542
14550167280
14550171796
14550178449
14550183454
14550189069
14550194685
14550202009
14550207502
14550212995
14550217512
14550223676
14550229658
14550234418
14550239972
14550245466
14550252424
14550257123
14550260663
14550267682
14550273664
14550278119
14550284528
14550290509
14550295881
14550301862
14550308026
14550315229
14550319989
14550325788
14550331464
14550337628
14550344647
14550352216
14550357648
14550364972
14550369916
14550376142
14550382367
14550389813
14550394635
14550402326
14550407819
14550412640
14550417523
14550422589
14550428265
14550434430
14550440900
14550447186
14550452374
14550457501
14550462628
14550467023
14550472211
14550478253
14550482953
14550488934
14550493390
14550499188
14550503766
14550510174
14550515790
14550520978
14550525616
14550532513
14550538128
14550543805
14550549664
14550555645
14550560467
14550566082
14550571881
14550578289
14550584332
14550587933
14550593914
14550598919
14550606549
14550611981
14550618878
14550624981
14550631268
14550638226
14550643963
14550649090
14550655804
14550661541
14550667584
14550674359
14550680096
14550685650
14550693218
14550698589
14550702129
14550709637
14550714275
14550720745
14550728436
14550733257
14550738873
14550745953
14550750652
14550757122
14550761272
14550768047
14550771648
14550778484
14550783672
14550789898
14550794598
14550801006
14550806499
14550810222
14550817119
14550821636
14550828716
14550833355
14550839214
14550844768
14550850689
14550857158
14550864544
14550874675
14550880962
14550889019
14550896465
14550904094
14550909221
14550919170
14550928691
14550935161
14550943462
14550952312
14550961101
14550968669
14550977519
14550985271
14550994670
14551004436
14551013347
14551024822
14551038493
14551047038
14551053691
14551061198
14551070720
14551077312
14551083964
14551089580
14551093181
14551101237
14551105022
14551111064
14551116862
14551122355
14551128825
14551135722
14551140422
14551146159
14551151774
14551156718
14551163066
14551168864
14551173808
14551180949
14551184611
14551191081
14551196635
14551203349
14551208415
14551215068
14551220011
14551224101
14551229899
14551236064
14551242167
14551248271
14551254191
14551260050
14551265055
14551270976
14551276591
14551282572
14551287943
14551293437
14551299540
14551304301
14551310221
14551316691
14551322672
14551329630
14551333292
14551339518
14551345560
14551352335
14551357890
14551362894
14551369974
14551375956
14551381632
14551386881
14551393595
14551398356
14551403910
14551411356
14551417521
14551423502
14551428446
14551435099
14551441446
14551447550
14551453531
14551460001
14551466044
14551470438
14551477701
14551484232
14551490641
14551495829
14551501932
14551508341
14551512735
14551520182
14551525797
14551533792
14551539225
14551545023
14551551554
14551557291
14551564127
14551570291
14551574930
14551583780
14551589578
14551596658
14551601968
14551607401
14551615518
14551622598
14551627664
14551636453
14551646585
14551652811
14551658853
14551665140
14551671915
14551678934
14551684610
14551691507
14551696512
14551701822
14551708108
14551713174
14551719949
14551725564
14551729715
14551736551
14551743753
14551749368
14551753885
14551759256
14551764505
14551770974
14551776162
14551779763
14551785684
14551790384
14551796365
14551802468
14551808877
14551814065
14551818154
14551824807
14551831582
14551837564
14551843240
14551848062
14551853921
14551859353
14551866677
14551872109
14551877297
14551884255
14551888101
14551895730
14551902078
14551907693
14551913186
14551919595
14551925637
14551930886
14551937600
14551943826
14551949990
14551956399
14551961953
14551965798
14551972329
14551978005
14551985573
14551991555
14551999734
14552007363
14552012429
14552021584
14552029702
14552037942
14552044106
14552052895
14552061684
14552068337
14552076027
14552082070
14552090859
14552097206
14552104226
14552113686
14552118813
14552129189
14552136452
14552143715
14552151772
14552157631
14552167031
14552173866
14552183205
14552189186
14552196266
14552200661
14552206398
14552212502
14552216469
14552221413
14552229164
14552235024
14552239601
14552243324
14552250038
14552255104
14552260719
14552266090
14552269752
14552275734
14552284523
14552288856
14552297462
14552304542
14552313209
14552321205
14552329811
14552335426
14552342201
14552349342
14552355446
14552360939
14552365089
14552370399
14552376991
14552380775
14552386146
14552391029
14552396278
14552400856
14552406776
14552412757
14552418129
14552423378
14552429237
14552435707
14552439979
14552445655
14552452796
14552458900
14552464149
14552469154
14552472938
14552478614
14552483619
14552488319
14552494544
14552501991
14552506507
14552513953
14552518958
14552526710
14552531165
14552538734
14552543922
14552551063
14552557227
14552562110
14552569129
14552574317
14552578590
14552586280
14552590674
14552597144
14552603614
14552609717
14552614173
14552620154
14552626075
14552631507
14552635718
14552644019
14552650062
14552657325
14552662696
14552669593
14552674598
14552680274
14552686316
14552693518
14552698828
14552702430
14552708655
14552713111
14552720557
14552724341
14552731177
14552738318
14552743384
14552749671
14552754370
14552760291
14552765662
14552771033
14552775672
14552781958
14552788184
14552792822
14552797949
14552805884
14552811072
14552816931
14552823462
14552829443
14552837744
14552843665
14552849524
14552855017
14552861914
14552867651
14552874365
14552881811
14552889990
14552896643
14552902014
14552906531
14552915625
14552919653
14552925390
14552931372
14552937536
14552943091
14552948706
14552953955
14552959265
14552964453
14552969336
14552974768
14552979773
14552985693
14552990637
14552995703
14553001074
14553006262
14553012548
14553017919
14553022619
14553027319
14553033789
14553038793
14553044103
14553052404
14553057958
14553066259
14553071874
14553082311
14553087011
14553094824
14553102270
14553110693
14553118383
14553126623
14553132482
14553141759
14553150304
14553157812
14553163061
14553172460
14553179845
14553187902
14553197240
14553203222
14553214147
14553219274
14553228795
14553235082
14553244298
14553252538
14553260473
14553267675
14553273168
14553279210
14553285131
14553290197
14553295812
14553300817
14553307286
14553311742
14553316381
14553323339
14553328527
14553334142
14553339879
14553345372
14553351476
14553357213
14553363194
14553368627
14553374303
14553379308
14553384801
14553390965
14553396153
14553402379
14553408238
14553413976
14553419041
14553424657
14553430272
14553435948
14553441258
14553446812
14553452916
14553456700
14553465428
14553468907
14553476109
14553481114
14553487157
14553491551
14553497166
14553503575
14553508214
14553513524
14553519383
14553525487
14553531956
14553537327
14553545689
14553552159
14553556614
14553564915
14553571751
14553577488
14553585728
14553592015
14553597386
14553602208
14553606785
14553613072
14553618260
14553623143
14553627903
14553634251
14553639500
14553644688
14553651036
14553656773
14553661656
14553667332
14553672093
14553677403
14553681919
14553687534
14553692967
14553698704
14553703465
14553709019
14553715733
14553720005
14553727695
14553731236
14553738316
14553743626
14553751865
14553755588
14553761814
14553766086
14553772007
14553777073
14553782627
14553789036
14553796726
14553801792
14553808079
14553812961
14553818638
14553823520
14553828830
14553834263
14553839328
14553845737
14553850620
14553856418
14553863010
14553868992
14553873874
14553879612
14553885410
14553889865
14553895237
14553901462
14553907505
14553913425
14553919345
14553925022
14553930149
14553937351
14553942295
14553946994
14553952609
14553959567
14553963840
14553970737
14553976413
14553981296
14553993503
14554000522
14554006442
14554012363
14554017734
14554023227
14554028781
14554035068
14554039890
14554046420
14554052219
14554057956
14554063449
14554069430
14554074863
14554079684
14554087070
14554093600
14554099338
14554105197
14554110873
14554115512
14554121005
14554126864
14554133456
14554140414
14554149691
14554158175
14554166964
14554174838
14554182162
14554192477
14554200839
14554210238
14554217990
14554226046
14554232638
14554237582
14554248141
14554255770
14554261813
14554269930
14554277621
14554285738
14554294405
14554300265
14554309359
14554317416
14554324435
14554332247
14554341402
14554349093
14554358431
14554364107
14554368319
14554374361
14554380526
14554386202
14554393160
14554400362
14554405977
14554410616
14554416720
14554421908
14554427706
14554433321
14554440401
14554445894
14554451998
14554456759
14554461885
14554469271
14554474337
14554479769
14554485994
14554492525
14554497347
14554501070
14554509127
14554515352
14554520418
14554526338
14554530855
14554537569
14554542513
14554548128
14554553682
14554559725
14554564668
14554570528
14554576936
14554580354
14554587373
14554592928
14554600130
14554605684
14554609895
14554618196
14554624361
14554630037
14554635713
14554641939
14554648103
14554653841
14554660005
14554667024
14554672395
14554675935
14554682405
14554691194
14554696748
14554701875
14554707002
14554712861
14554718416
14554724153
14554730012
14554740815
14554752534
14554759675
14554767976
14554776704
14554786409
14554796785
14554806794
14554815217
14554823945
14554835542
14554844209
14554852998
14554861299
14554869966
14554878755
14554886079
14554893342
14554902619
14554912568
14554918671
14554925629
14554932587
14554940705
14554948395
14554956391
14554964265
14554971711
14554979706
14554987824
14554997895
14555006867
14555015046
14555022431
14555030304
14555038727
14555045502
14555053864
14555061005
14555070099
14555077546
14555084381
14555092194
14555102265
14555107270
14555118073
14555125397
14555134552
14555139679
14555150910
14555159332
14555166107
14555173309
14555182160
14555191254
14555198700
14555208160
14555215668
14555224457
14555231903
14555242462
14555250214
14555259064
14555266754
14555276703
14555284881
14555293793
14555303741
14555311676
14555319061
14555328827
14555337005
14555347686
14555356414
14555365814
14555373260
14555383819
14555391998
14555400116
14555408233
14555415069
14555422943
14555431610
14555439544
14555447967
14555457183
14555462859
14555471221
14555476653
14555483428
14555492767
14555501067
14555507171
14555516326
14555526092
14555534576
14555540984
14555548919
14555556243
14555564544
14555571990
14555581206
14555589507
14555595977
14555603728
14555612212
14555619842
14555627898
14555637359
14555644500
14555653289
14555662993
14555672087
14555681426
14555690398
14555697661
14555712554
14555720549
14555728057
14555738249
14555744536
14555754485
14555760649
14555773284
14555780852
14555789153
14555796660
14555804655
14555812224
14555820403
14555828581
14555837309
14555845366
14555853117
14555863310
14555870573
14555878752
14555888640
14555896818
14555905729
14555913603
14555924040
14555932829
14555939909
14555949614
14555956389
14555964201
14555973600
14555980864
14555988066
14555998014
14556005827
14556014433
14556022795
14556030790
14556035551
14556040373
14556045988
14556052274
14556057768
14556062223
14556069364
14556074857
14556079557
14556085539
14556090849
14556095365
14556101286
14556105802
14556110563
14556116056
14556119718
14556125578
14556129362
14556134672
14556138334
14556142179
14556149381
14556153654
14556158597
14556162992
14556167264
14556172636
14556177213
14556180814
14556186857
14556191129
14556194974
14556200712
14556204801
14556209379
14556214628
14556220060
14556225004
14556229703
14556233121
14556238920
14556242399
14556247770
14556252591
14556256925
14556261808
14556266141
14556271817
14556278226
14556282621
14556287931
14556294156
14556301053
14556307096
14556312039
14556317472
14556323026
14556327786
14556332791
14556337552
14556342618
14556347440
14556352506
14556357266
14556363004
14556365811
14556373380
14556380399
14556385159
14556390042
14556395169
14556399258
14556406033
14556413174
14556418179
14556424954
14556430447
14556434842
14556438992
14556443936
14556448636
14556453580
14556458401
14556463650
14556468472
14556474026
14556479092
14556483792
14556489529
14556494717
14556500027
14556504849
14556509549
14556514554
14556519314
14556524502
14556529812
14556534695
14556540005
14556545132
14556549832
14556554654
14556559353
14556564236
14556568875
14556573819
14556579373
14556585110
14556591091
14556596585
14556601834
14556608059
14556613919
14556618496
14556625637
14556630459
14556635769
14556642483
14556648281
14556653103
14556658230
14556662991
14556668301
14556673977
14556681118
14556685757
14556691250
14556697353
14556702786
14556708401
14556714321
14556721340
14556726345
14556733791
14556738674
14556744778
14556749966
14556756496
14556761501
14556767361
14556773586
14556779262
14556784084
14556789882
14556795131
14556801662
14556807155
14556817653
14556824245
14556830959
14556837307
14556843837
14556849697
14556855373
14556861660
14556871914
14556876552
14556881374
14556885341
14556889980
14556895778
14556903224
14556908718
14556914577
14556919277
14556924587
14556928432
14556935573
14556941554
14556947109
14556955043
14556959926
14556964870
14556969692
14556973598
14556980434
14556986476
14556991237
14556997096
14557003200
14557008632
14557014064
14557020045
14557025417
14557031337
14557036159
14557041713
14557047023
14557053554
14557058192
14557064418
14557069179
14557074611
14557081264
14557085414
14557093410
14557097255
14557104396
14557110011
14557116237
14557121791
14557125758
14557131923
14557138697
14557143702
14557149684
14557156092
14557161219
14557168055
14557171901
14557180140
14557186976
14557192469
14557198268
14557203211
14557209193
14557215357
14557220729
14557226588
14557232447
14557239771
14557244959
14557252589
14557258692
14557264246
14557268885
14557275172
14557281397
14557286158
14557291834
14557298182
14557304469
14557310511
14557317164
14557323084
14557328577
14557335535
14557340967
14557346094
14557350062
14557358362
14557366175
14557372462
14557379114
14557384363
14557391199
14557396937
14557401270
14557408167
14557416529
14557423548
14557430811
14557438074
14557445093
14557452967
14557460169
14557466455
14557473230
14557480188
14557486597
14557491053
14557496118
14557503687
14557509119
14557516077
14557521265
14557526636
14557531397
14557537561
14557544946
14557550195
14557556116
14557562647
14557567468
14557573511
14557577844
14557584436
14557591394
14557596643
14557603296
14557609155
14557616235
14557621728
14557628686
14557633081
14557639246
14557645654
14557650720
14557656640
14557663293
14557668542
14557674158
14557680017
14557685998
14557690759
14557697656
14557702844
14557708703
14557714624
14557721643
14557727746
14557733728
14557738794
14557746118
14557752526
14557756372
14557762414
14557768335
14557774865
14557780358
14557787011
14557792443
14557799523
14557805688
14557809960
14557817407
14557823327
14557828393
14557834374
14557839623
14557847680
14557853845
14557858788
14557865746
14557872765
14557879296
14557883141
14557890221
14557894677
14557903893
14557907738
14557913476
14557920678
14557926049
14557931481
14557938073
14557944970
14557952050
14557957970
14557964867
14557969628
14557976525
14557983544
14557989403
14557995080
14558001977
14558008751
14558014061
14558019310
14558026513
14558033287
14558039574
14558045617
14558051720
14558057396
14558066124
14558074852
14558081261
14558087181
14558095665
14558101952
14558110131
14558116234
14558126244
14558131310
14558136803
14558141747
14558146691
14558152184
14558157005
14558164696
14558170128
14558175133
14558180565
14558185814
14558192223
14558197227
14558202721
14558209496
14558215294
14558221764
14558227257
14558233421
14558238548
14558243126
14558248558
14558257591
14558263512
14558267479
14558273521
14558280357
14558287315
14558291893
14558297691
14558303978
14558310081
14558313865
14558321739
14558327598
14558333030
14558337913
14558344688
14558350853
14558355613
14558360618
14558367515
14558375145
14558381248
14558388023
14558392295
14558398399
14558406089
14558411460
14558417320
14558422935
14558429649
14558436485
14558441917
14558447471
14558455406
14558460655
14558467674
14558473228
14558479697
14558484946
14558491599
14558496848
14558501548
14558512168
14558516135
14558522849
14558527976
14558534507
14558540671
14558545798
14558552695
14558559043
14558563376
14558569114
14558574851
14558581504
14558586387
14558592490
14558598594
14558604331
14558610984
14558616355
14558623008
14558629111
14558635581
14558640830
14558646018
14558652854
14558659262
14558663657
14558670493
14558678000
14558683371
14558690634
14558698569
14558707541
14558714438
14558720053
14558723960
14558730612
14558735190
14558741660
14558748984
14558756003
14558761801
14558766318
14558772360
14558778220
14558783041
14558790121
14558795065
14558802267
14558808188
14558814413
14558820700
14558827292
14558831686
14558837607
14558844321
14558850119
14558855917
14558861410
14558866781
14558871969
14558878073
14558883932
14558887533
14558895285
14558900778
14558906332
14558910605
14558918051
14558923483
14558929770
14558935202
14558940268
14558947165
14558953634
14558959921
14558966024
14558970724
14558977072
14558983663
14558987631
14558995626
14559015158
14559018148
14559020346
14559022787
14559025595
14559028646
14559031942
14559034139
14559036886
14559039144
14559041830
14559044210
14559046407
14559048788
14559051107
14559053060
14559055196
14559057760
14559059774
14559061849
14559064352
14559066610
14559068746
14559071249
14559073507
14559076254
14559079366
14559081991
14559084493
14559086813
14559089437
14559091573
14559094076
14559096517
14559099264
14559105062
14559107748
14559109823
14559111837
14559114523
14559116720
14559119161
14559121480
14559123739
14559126058
14559128988
14559131673
14559135396
14559137655
14559139913
14559141927
14559144613
14559146871
14559149373
14559151510
14559154012
14559156026
14559158346
14559160482
14559162740
14559164998
14559167196
14559169576
14559172872
14559178243
14559180440
14559182821
14559185079
14559187337
14559189473
14559191732
14559194173
14559196187
14559198568
14559200460
14559202840
14559205465
14559207662
14559210347
14559212545
14559214681
14559217000
14559219075
14559221578
14559223714
14559226033
14559228292
14559230428
14559232808
14559234945
14559237081
14559239400
14559242147
14559245321
14559248738
14559251729
14559254110
14559256307
14559258687
14559260884
14559263448
14559265584
14559267903
14559270467
14559272542
14559275289
14559277425
14559279500
14559282003
14559284078
14559286458
14559288838
14559290731
14559292867
14559295003
14559297628
14559299581
14559301839
14559304402
14559306539
14559309041
14559311055
14559313008
14559316487
14559319356
14559322225
14559325032
14559327229
14559329549
14559331746
14559334187
14559336629
14559339192
14559341451
14559343587
14559345967
14559348042
14559350545
14559352803
14559354817
14559357442
14559359578
14559361958
14559364278
14559366231
14559368855
14559370870
14559373433
14559375691
14559378072
14559380452
14559382649
14559385152
14559389363
14559392354
14559395467
14559398213
14559400410
14559402852
14559405354
14559407857
14559410603
14559413167
14559415974
14559417989
14559420674
14559422871
14559425008
14559427144
14559429219
14559431721
14559433858
14559435933
14559438740
14559440938
14559443196
14559445332
14559447591
14559450154
14559452229
14559454487
14559456624
14559459248
14559462361
14559464924
14559468098
14559470540
14559473103
14559475545
14559477803
14559479939
14559481953
14559484456
14559486653
14559489094
14559491353
14559493611
14559496357
14559498555
14559501179
14559503376
14559505452
14559507527
14559509663
14559512349
14559514546
14559516987
14559519124
14559521077
14559523396
14559525654
14559528401
14559530415
14559532978
14559536030
14559538899
14559541829
14559544148
14559546284
14559548359
14559550618
14559553059
14559555317
14559557698
14559560139
14559562397
14559564900
14559567219
14559569477
14559571614
14559573628
14559576069
14559578083
14559580342
14559582539
14559584980
14559587483
14559589558
14559592121
14559594197
14559596455
14559598713
14559600727
14559604450
14559607014
14559610005
14559612934
14559615559
14559618183
14559620503
14559622883
14559625691
14559627705
14559630268
14559632527
14559635090
14559637715
14559639973
14559641987
14559644367
14559646748
14559649128
14559651447
14559653401
14559655537
14559658222
14559660359
14559662556
14559665363
14559667439
14559669758
14559671894
14559674397
14559676472
14559678974
14559682148
14559685017
14559687641
14559690632
14559694294
14559696491
14559698994
14559701923
14559703938
14559706623
14559709064
14559711140
14559713581
14559715778
14559717792
14559720051
14559722126
14559724506
14559726459
14559728657
14559731281
14559733417
14559735615
14559737934
14559740559
14559742878
14559745441
14559748310
14559750934
14559752888
14559755695
14559758930
14559761860
14559764911
14559767353
14559769916
14559772297
14559774555
14559777729
14559781696
14559783954
14559786274
14559788654
14559790912
14559793354
14559795551
14559797748
14559800312
14559802570
14559805011
14559807331
14559809467
14559811969
14559814167
14559816852
14559819111
14559821552
14559823810
14559825885
14559828388
14559830646
14559833759
14559836689
14559839557
14559842487
14559844745
14559847309
14559849689
14559851642
14559853900
14559856830
14559858966
14559861225
14559863605
14559865863
14559867939
14559870502
14559872638
14559874958
14559878864
14559881183
14559883625
14559886127
14559888568
14559890888
14559893268
14559895648
14559897968
14559901630
14559904071
14559906879
14559912311
14559914874
14559917804
14559919940
14559922077
14559924335
14559926349
14559928546
14559930499
14559933063
14559935504
14559937702
14559940143
14559942096
14559944354
14559946979
14559949115
14559951740
14559954059
14559956867
14559959064
14559961200
14559963641
14559965656
14559967792
14559969928
14559972186
14559974628
14559976947
14559980121
14559983417
14559985980
14559989154
14559991107
14559993732
14559995685
14559997882
14559999957
14560002155
14560004718
14560006915
14560008990
14560011310
14560013507
14560015948
14560018085
14560020221
14560022723
14560025348
14560027667
14560029925
14560031940
14560034015
14560036273
14560038287
14560040362
14560042682
14560044879
14560047137
14560049335
14560051898
14560055499
14560058185
14560060992
14560063251
14560065387
14560068072
14560070209
14560072589
14560074908
14560076861
14560079547
14560082049
14560084063
14560086505
14560089496
14560092181
14560094439
14560097003
14560099078
14560101397
14560103595
14560106219
14560108355
14560110675
14560112811
14560114886
14560117144
14560119708
14560121722
14560123736
14560126971
14560129840
14560133075
14560135699
14560137835
14560140033
14560142352
14560145770
14560148211
14560151202
14560153521
14560155780
14560158099
14560160296
14560162921
14560165057
14560167315
14560169390
14560171710
14560173968
14560176165
14560178057
14560180499
14560182513
14560185076
14560187152
14560189776
14560191790
14560193988
14560196307
14560199053
14560202166
14560204913
14560207842
14560209979
14560212176
14560214617
14560216632
14560218768
14560221026
14560223406
14560226092
14560228533
14560230792
14560233416
14560235430
14560237689
14560239886
14560242083
14560244219
14560246600
14560248736
14560250872
14560253375
14560255511
14560257525
14560260027
14560262042
14560264788
14560267107
14560269183
14560272479
14560275408
14560278338
14560280840
14560282916
14560285296
14560287615
14560289874
14560292132
14560294817
14560296893
14560299212
14560301165
14560303240
14560305682
14560307635
14560309832
14560311846
14560314043
14560316241
14560318560
14560320818
14560323077
14560325091
14560327532
14560329729
14560332049
14560334490
14560336504
14560338763
14560343462
14560346026
14560348833
14560350847
14560353106
14560355547
14560357683
14560360186
14560362444
14560364580
14560367510
14560369585
14560372210
14560374285
14560376421
14560379656
14560382769
14560386431
14560389788
14560392168
14560394304
14560396868
14560399370
14560401751
14560404192
14560406328
14560408465
14560411333
14560413591
14560416094
14560419634
14560422258
14560424944
14560427202
14560429888
14560432207
14560434221
14560436663
14560439226
14560441607
14560443743
14560446123
14560448137
14560450273
14560452349
14560454546
14560456926
14560459001
14560461321
14560463701
14560465837
14560469011
14560471147
14560473650
14560476274
14560478838
14560481523
14560484453
14560486589
14560488909
14560491960
14560495195
14560497820
14560501604
14560504289
14560506548
14560509233
14560511675
14560514055
14560516191
14560518328
14560520891
14560522905
14560525408
14560527605
14560529619
14560531572
14560533952
14560536516
14560538774
14560540971
14560543047
14560545183
14560547929
14560550249
14560552507
14560554704
14560557024
14560559282
14560561357
14560564287
14560567156
14560570390
14560573320
14560575761
14560578142
14560580461
14560582597
14560584978
14560587785
14560590715
14560594438
14560596941
14560599382
14560602006
14560604021
14560606401
14560608720
14560610551
14560613298
14560615312
14560617631
14560620317
14560622514
14560624467
14560626726
14560628984
14560631242
14560633440
14560635576
14560637956
14560641557
14560644792
14560647478
14560650529
14560652543
14560655168
14560657365
14560659562
14560661699
14560663774
14560665971
14560668107
14560670488
14560672563
14560675187
14560677507
14560679704
14560682268
14560684343
14560686662
14560688920
14560691118
14560693376
14560695390
14560697465
14560699846
14560701982
14560704057
14560706498
14560709001
14560711808
14560714738
14560717180
14560720231
14560722673
14560724931
14560727128
14560729264
14560731645
14560734147
14560736222
14560738359
14560740495
14560742692
14560745256
14560747453
14560749589
14560752031
14560754411
14560757218
14560759477
14560761369
14560763627
14560765763
14560767839
14560770097
14560772782
14560774858
14560777177
14560779435
14560781999
14560784989
14560788285
14560790971
14560792985
14560795182
14560797441
14560801530
14560807755
14560812516
14560816422
14560819535
14560821427
14560824174
14560826249
14560828752
14560831071
14560833329
14560835771
14560837968
14560840348
14560842606
14560844865
14560847001
14560849259
14560851823
14560854203
14560856339
14560858903
14560861222
14560863664
14560866959
14560870194
14560872636
14560875382
14560877641
14560879960
14560882340
14560884965
14560887467
14560890092
14560892472
14560894913
14560896928
14560899735
14560901932
14560904130
14560906632
14560908707
14560911210
14560913529
14560915726
14560917924
14560920365
14560922684
14560925004
14560927750
14560930070
14560932267
14560934769
14560936906
14560940140
14560942948
14560945817
14560948258
14560950577
14560952958
14560955094
14560957352
14560959916
14560962235
14560964432
14560967057
14560969987
14560972245
14560974564
14560976700
14560978715
14560980912
14560983048
14560985245
14560987565
14560989518
14560991593
14560993790
14560996293
14560998490
14561000748
14561002945
14561004899
14561007523
14561010575
14561013382
14561016190
14561019059
14561021622
14561023819
14561026078
14561028214
14561030472
14561033097
14561035477
14561038041
14561040482
14561042862
14561045121
14561047379
14561049881
14561052140
14561054398
14561056473
14561058792
14561061539
14561063736
14561066300
14561068375
14561070877
14561073258
14561075699
14561077774
14561079972
14561083145
14561085587
14561088089
14561090958
14561093094
14561095474
14561097672
14561100357
14561102738
14561104996
14561107620
14561110428
14561112992
14561115494
14561117691
14561120011
14561122208
14561124649
14561126724
14561129105
14561131180
14561133255
14561135880
14561138260
14561140701
14561142777
14561144974
14561147537
14561149613
14561151810
14561154923
14561157242
14561160049
14561162735
14561165115
14561167557
14561170059
14561172256
14561174942
14561177017
14561179092
14561181778
14561183914
14561186050
14561188309
14561190628
14561193008
14561195450
14561198135
14561200272
14561203018
14561205337
14561207413
14561209915
14561211929
14561214798
14561217544
14561220291
14561222549
14561224747
14561227798
14561230423
14561233597
14561236221
14561238479
14561240860
14561242935
14561245560
14561247696
14561250198
14561252762
14561255081
14561257278
14561259537
14561261734
14561264236
14561266311
14561268875
14561271133
14561273758
14561276138
14561278213
14561280411
14561282852
14561285232
14561287735
14561290054
14561292251
14561294204
14561296646
14561299453
14561302627
14561305435
14561307876
14561310257
14561312576
14561314834
