14150330230
14150334929
14150338652
14150341521
14150347503
14150352568
14150357207
14150361052
14150366545
14150371978
14150377288
14150382109
14150387175
14150393828
14150399687
14150404631
14150411101
14150416045
14150423613
14150430693
14150436858
14150444243
14150450774
14150456023
14150461760
14150470549
14150478301
14150487212
14150497527
14150504301
14150513029
14150519865
14150528715
14150539519
14150545988
14150557280
14150565153
14150573088
14150581022
14150586577
14150595610
14150601530
14150611052
14150618193
14150626432
14150633818
14150640776
14150646696
14150653410
14150660185
14150666044
14150671720
14150676359
14150683744
14150688688
14150695707
14150700895
14150709196
14150712858
14150723783
14150728910
14150736173
14150740690
14150747770
14150753935
14150760954
14150765836
14150773222
14150778532
14150785917
14150793668
14150799223
14150804594
14150808012
14150812711
14150816068
14150821500
14150825956
14150830167
14150832731
14150840787
14150845121
14150851102
14150855741
14150860319
14150864957
14150870084
14150874174
14150880582
14150884488
14150890104
14150895475
14150900480
14150904386
14150908841
14150914701
14150919217
14150924161
14150927762
14150933805
14150937223
14150943570
14150947721
14150951749
14150955472
14150960294
14150964872
14150969327
14150974637
14150979215
14150984159
14150988614
14150993802
14150999845
14151004605
14151008878
14151014920
14151019498
14151025785
14151031949
14151037137
14151042142
14151047269
14151051053
14151056302
14151060086
14151066861
14151071195
14151077603
14151082181
14151085843
14151090543
14151095425
14151102689
14151106290
14151110806
14151114102
14151118985
14151123563
14151127835
14151131863
14151137967
14151141873
14151146146
14151150906
14151155667
14151160916
14151165249
14151171841
14151175931
14151181363
14151186917
14151191617
14151195096
14151199490
14151203579
14151209744
14151213711
14151218228
14151223660
14151228970
14151233792
14151238308
14151243618
14151249478
14151254849
14151258694
14151262295
14151267605
14151272976
14151277066
14151284939
14151289883
14151294766
14151300259
14151305630
14151311123
14151316372
14151321865
14151328152
14151333645
14151339321
14151345974
14151350857
14151355984
14151359402
14151368862
14151372585
14151379482
14151384243
14151388882
14151393581
14151399380
14151405849
14151411831
14151417385
14151423183
14151427395
14151433315
14151438015
14151443264
14151447597
14151453579
14151458279
14151464138
14151468044
14151472072
14151477382
14151482937
14151488308
14151494716
14151501003
14151505825
14151516506
14151521877
14151532375
14151538295
14151548610
14151557949
14151563747
14151570095
14151579433
14151586635
14151596462
14151606655
14151614162
14151622035
14151631984
14151639797
14151648342
14151654262
14151660549
14151667323
14151674709
14151683131
14151690517
14151699489
14151706142
14151711574
14151719142
14151723598
14151728847
14151735194
14151741847
14151746181
14151751002
14151756557
14151762538
14151767421
14151773341
14151778773
14151783351
14151787562
14151792323
14151796840
14151802028
14151806727
14151812526
14151819789
14151824733
14151829310
14151833888
14151838649
14151844386
14151847255
14151854579
14151859034
14151866420
14151869715
14151877284
14151881800
14151886622
14151890406
14151896083
14151901576
14151907069
14151911769
14151917811
14151920558
14151927699
14151932765
14151937831
14151944483
14151949793
14151955531
14151959376
14151964015
14151971095
14151975428
14151979762
14151986475
14151991541
14151996790
14152001856
14152006922
14152012415
14152018397
14152022608
14152028529
14152036158
14152042078
14152048792
14152054102
14152058680
14152063746
14152068995
14152075037
14152080225
14152087977
14152091334
14152098963
14152104883
14152110254
14152114527
14152120508
14152123621
14152132654
14152138208
14152145716
14152150537
14152156702
14152161524
14152165308
14152171839
14152178064
14152182703
14152190271
14152194666
14152199365
14152204248
14152209375
14152214502
14152220789
14152225977
14152230310
14152234766
14152240686
14152245813
14152249536
14152254480
14152260828
14152265894
14152271082
14152275598
14152280847
14152285913
14152291345
14152296899
14152303552
14152309228
14152315515
14152320215
14152327478
14152331323
14152337488
14152341943
14152347803
14152352685
14152356714
14152362268
14152366784
14152372766
14152377466
14152382837
14152386987
14152392358
14152397424
14152402673
14152408532
14152413842
14152418298
14152427087
14152432214
14152438501
14152442590
14152447473
14152452417
14152456689
14152462304
14152467858
14152472924
14152478540
14152482385
14152488000
14152493005
14152498193
14152504663
14152515527
14152522363
14152530175
14152536340
14152543420
14152551354
14152558556
14152567712
14152574059
14152581445
14152589196
14152595910
14152603356
14152611291
14152615807
14152625329
14152632897
14152640404
14152647362
14152656273
14152662926
14152670128
14152676110
14152684960
14152692223
14152699730
14152706688
14152710167
14152717553
14152721642
14152727440
14152733178
14152738671
14152745385
14152751976
14152757714
14152761864
14152767662
14152772606
14152780419
14152784935
14152792992
14152797936
14152804161
14152808739
14152814720
14152818505
14152823204
14152827355
14152833458
14152838585
14152842613
14152848168
14152851891
14152855797
14152861473
14152869652
14152874657
14152877770
14152884117
14152886681
14152892845
14152898949
14152903587
14152907982
14152914818
14152919456
14152927086
14152931663
14152937340
14152942284
14152948387
14152953148
14152959251
14152964317
14152970787
14152974876
14152979576
14152983482
14152988731
14152993309
14152999412
14153003807
14153010093
14153014000
14153019554
14153023521
14153029503
14153033653
14153038902
14153043357
14153049217
14153053001
14153057640
14153061363
14153068077
14153072959
14153080955
14153085227
14153092185
14153096763
14153103294
14153107322
14153113487
14153117759
14153124717
14153128867
14153134055
14153138084
14153142539
14153148032
14153153159
14153157920
14153165855
14153172935
14153176475
14153182822
14153188438
14153194053
14153196738
14153203635
14153209006
14153214622
14153220725
14153224753
14153229026
14153235862
14153240684
14153244895
14153251914
14153257590
14153264853
14153272239
14153277488
14153285117
14153289451
14153295920
14153300620
14153306052
14153313254
14153318564
14153325583
14153333091
14153336997
14153341208
14153347068
14153353354
14153358542
14153362632
14153368186
14153372702
14153378562
14153383444
14153389304
14153394431
14153400107
14153404685
14153411032
14153416342
14153422141
14153426047
14153432028
14153436667
14153442404
14153448386
14153454123
14153458090
14153465109
14153468832
14153475913
14153483725
14153489218
14153495016
14153504660
14153511923
14153519919
14153526755
14153533957
14153541403
14153548422
14153556051
14153563742
14153571676
14153578085
14153586935
14153594992
14153604025
14153610556
14153617209
14153624777
14153633444
14153639181
14153647238
14153654806
14153664450
14153671041
14153679464
14153686849
14153693197
14153697714
14153702474
14153710958
14153716024
14153720846
14153726278
14153731100
14153735433
14153740926
14153747091
14153752828
14153756918
14153762106
14153767233
14153772726
14153777792
14153786642
14153789449
14153798116
14153802877
14153808675
14153812276
14153817892
14153821554
14153826925
14153832418
14153837728
14153843954
14153847616
14153853109
14153857747
14153863363
14153868429
14153873006
14153879903
14153884359
14153889180
14153893453
14153900106
14153905111
14153909444
14153917135
14153921224
14153925252
14153929342
14153933614
14153937581
14153943624
14153947713
14153953328
14153957723
14153963399
14153967610
14153972005
14153975545
14153980855
14153986653
14153992208
14153995626
14154001241
14154005635
14154010823
14154015645
14154019978
14154026326
14154030171
14154035664
14154040608
14154044392
14154049886
14154054463
14154060140
14154065572
14154070882
14154075337
14154080830
14154086385
14154091145
14154095723
14154100911
14154106160
14154110615
14154116475
14154121358
14154125691
14154131123
14154135213
14154140889
14154146626
14154151021
14154156026
14154160786
14154164631
14154170003
14154173665
14154178975
14154185566
14154190876
14154195088
14154200398
14154204304
14154210164
14154214497
14154218769
14154224568
14154230793
14154235432
14154241841
14154245625
14154251484
14154255146
14154260701
14154269612
14154274739
14154279804
14154285420
14154290058
14154295185
14154299153
14154305866
14154310444
14154317585
14154322712
14154328632
14154333759
14154339069
14154344624
14154349751
14154357075
14154362873
14154367878
14154374958
14154380085
14154386860
14154390827
14154396564
14154403950
14154410053
14154415241
14154422138
14154426655
14154432636
14154437153
14154442707
14154449665
14154458210
14154463520
14154470539
14154476520
14154485553
14154489399
14154500507
14154504596
14154516132
14154522785
14154529010
14154535236
14154543171
14154550373
14154556781
14154566364
14154573627
14154580280
14154588214
14154593769
14154601581
14154608783
14154615131
14154623493
14154631976
14154636005
14154641254
14154645038
14154650287
14154654376
14154660236
14154665118
14154672443
14154676288
14154680560
14154686664
14154691486
14154696246
14154701495
14154707904
14154712482
14154716998
14154725299
14154732379
14154738177
14154744342
14154748675
14154754352
14154758502
14154765460
14154769610
14154777118
14154782916
14154787066
14154792193
14154799518
14154805743
14154811725
14154817645
14154822894
14154827838
14154833148
14154839251
14154846148
14154851397
14154856036
14154860247
14154865618
14154870196
14154875140
14154880816
14154887225
14154891741
14154896319
14154901202
14154907733
14154912188
14154918231
14154925860
14154930865
14154934100
14154940203
14154945757
14154950152
14154956622
14154961565
14154969561
14154974749
14154981341
14154984637
14154992693
14154998370
14155005205
14155012713
14155017107
14155023333
14155028704
14155033343
14155036150
14155044634
14155050310
14155056231
14155061602
14155066057
14155071734
14155076677
14155082171
14155088518
14155093645
14155099871
14155107073
14155112200
14155118303
14155124834
14155129351
14155136126
14155141314
14155145525
14155150103
14155154863
14155159441
14155166460
14155170977
14155177324
14155183122
14155187517
14155192827
14155196184
14155201433
14155207598
14155213274
14155218096
14155224138
14155228594
14155232866
14155236894
14155243303
14155248186
14155254228
14155258684
14155265398
14155270586
14155275957
14155280717
14155286333
14155290910
14155295366
14155300249
14155305742
14155312089
14155316545
14155323137
14155327409
14155332597
14155338579
14155344621
14155349687
14155356401
14155362748
14155368791
14155373735
14155381181
14155388383
14155394426
14155398759
14155406633
14155413835
14155420854
14155428788
14155433671
14155443925
14155452470
14155460710
14155465104
14155475175
14155482926
14155491044
14155497819
14155504777
14155512223
14155523759
14155532426
14155541154
14155547196
14155556718
14155565324
14155574052
14155588334
14155597977
14155603348
14155607438
14155612565
14155617814
14155622941
14155627091
14155633988
14155636674
14155644364
14155652665
14155657487
14155661881
14155665665
14155670731
14155674332
14155680863
14155683609
14155691727
14155695878
14155700638
14155705155
14155709732
14155715104
14155719193
14155725480
14155729752
14155734391
14155740433
14155745865
14155750199
14155754471
14155760269
14155766007
14155771439
14155775772
14155779434
14155784256
14155787918
14155793472
14155798844
14155803848
14155809586
14155814469
14155818863
14155823807
14155828934
14155833817
14155836380
14155843216
14155849075
14155854080
14155858597
14155865372
14155870682
14155875198
14155881790
14155888077
14155893692
14155896683
14155904556
14155909683
14155915237
14155918289
14155926468
14155932144
14155937881
14155942093
14155947159
14155951004
14155956131
14155960586
14155968399
14155973465
14155978653
14155982803
14155987625
14155991287
14155997268
14156003494
14156010940
14156014297
14156020218
14156024612
14156029922
14156038040
14156043899
14156051284
14156055496
14156060562
14156064163
14156071121
14156078079
14156085281
14156092117
14156097061
14156102310
14156107253
14156113052
14156118240
14156122634
14156130142
14156135574
14156141006
14156143813
14156149978
14156153945
14156159927
14156163772
14156171828
14156177444
14156182021
14156187698
14156192702
14156196609
14156201369
14156205459
14156211745
14156215652
14156221572
14156225905
14156233108
14156237258
14156243484
14156247756
14156252883
14156258559
14156263625
14156268142
14156274428
14156279006
14156284438
14156291030
14156297744
14156303115
14156309157
14156315505
14156320449
14156326186
14156332106
14156337600
14156344313
14156351943
14156358168
14156367263
14156373427
14156381728
14156388198
14156398329
14156405776
14156417677
14156424452
14156433302
14156439833
14156447157
14156455275
14156462965
14156472121
14156480421
14156487807
14156495558
14156501662
14156507094
14156517287
14156524122
14156532667
14156544386
14156550734
14156556715
14156561415
14156564955
14156570692
14156575148
14156581190
14156588026
14156591932
14156599928
14156606581
14156611036
14156616102
14156622145
14156626417
14156633314
14156638380
14156646254
14156651808
14156659681
14156663282
14156668592
14156675062
14156683973
14156690321
14156696302
14156700392
14156706190
14156710645
14156715162
14156719618
14156722975
14156727613
14156732557
14156737135
14156741224
14156747083
14156752760
14156757398
14156763075
14156768018
14156772962
14156777601
14156782728
14156788526
14156792371
14156797925
14156802015
14156807386
14156811780
14156818067
14156824110
14156828321
14156834608
14156838941
14156844556
14156849317
14156852674
14156858777
14156863172
14156868299
14156872815
14156876905
14156881238
14156885572
14156889844
14156892774
14156900342
14156905103
14156910169
14156914624
14156923902
14156929639
14156933301
14156939771
14156944776
14156949475
14156954419
14156959912
14156965344
14156968213
14156976148
14156982373
14156987927
14156992200
14156997693
14157003858
14157009961
14157014356
14157019055
14157025281
14157030835
14157037854
14157043042
14157047864
14157053052
14157058057
14157060925
14157069531
14157073315
14157080334
14157088147
14157092541
14157096936
14157103894
14157110120
14157114880
14157120984
14157127820
14157132763
14157138562
14157143445
14157148572
14157155407
14157161450
14157168835
14157175122
14157183606
14157188855
14157196118
14157200756
14157207714
14157215832
14157221447
14157227673
14157234021
14157238720
14157244580
14157248547
14157256298
14157261730
14157266064
14157273754
14157281750
14157286694
14157292370
14157297436
14157302807
14157308178
14157313610
14157320385
14157325695
14157330273
14157336620
14157343395
14157349255
14157354931
14157363049
14157369946
14157378735
14157387463
14157393200
14157398937
14157407116
14157415844
14157423534
14157429760
14157437572
14157444591
14157452770
14157460705
14157467052
14157474315
14157480846
14157489269
14157499096
14157506054
14157512157
14157518993
14157525951
14157531993
14157540416
14157545360
14157550792
14157556957
14157561717
14157565441
14157571483
14157575084
14157582103
14157588817
14157594371
14157600414
14157605907
14157611827
14157616832
14157621532
14157626781
14157632762
14157637462
14157642711
14157647472
14157650035
14157656383
14157661449
14157666942
14157669994
14157677257
14157681529
14157686290
14157691234
14157697093
14157701182
14157706737
14157712474
14157718272
14157723826
14157729442
14157734263
14157739085
14157741954
14157749095
14157753795
14157761851
14157767283
14157771983
14157778392
14157784800
14157789134
14157795420
14157801707
14157807139
14157813243
14157818858
14157825328
14157832164
14157836741
14157842845
14157846080
14157851756
14157857310
14157862071
14157867564
14157871897
14157876780
14157881846
14157887339
14157892405
14157898020
14157903941
14157908213
14157913767
14157917979
14157925059
14157931468
14157935313
14157941172
14157945811
14157951060
14157955332
14157961619
14157966196
14157974314
14157978770
14157985361
14157990794
14157994944
14158006113
14158011973
14158018320
14158022288
14158028330
14158033213
14158037913
14158043711
14158048655
14158054697
14158060068
14158067331
14158072702
14158077158
14158082712
14158087900
14158093027
14158095957
14158102488
14158108347
14158115061
14158119944
14158126291
14158130381
14158134714
14158141550
14158145639
14158152109
14158157114
14158162241
14158167856
14158173227
14158178476
14158183176
14158186106
14158192880
14158199594
14158205576
14158208933
14158215280
14158220834
14158226877
14158232614
14158238596
14158243723
14158251718
14158256540
14158262888
14158268503
14158273813
14158278451
14158284250
14158291513
14158298776
14158304208
14158307260
14158315500
14158320444
14158326852
14158331613
14158340036
14158346017
14158357187
14158366769
14158371957
14158381723
14158387460
14158396920
14158404550
14158415109
14158422860
14158433541
14158442514
14158449716
14158454049
14158464242
14158470712
14158480355
14158487618
14158498239
14158504525
14158512093
14158520516
14158529366
14158537484
14158542672
14158552071
14158559335
14158566720
14158573617
14158580270
14158584237
14158591012
14158594125
14158601571
14158607308
14158612679
14158617379
14158624215
14158628731
14158633675
14158640145
14158644906
14158650033
14158657967
14158662728
14158668160
14158675057
14158679757
14158684700
14158689827
14158695321
14158702279
14158707894
14158713814
14158719124
14158723580
14158728035
14158735421
14158739510
14158744454
14158750984
14158758370
14158763558
14158767647
14158772103
14158779305
14158783394
14158789375
14158796333
14158803108
14158807869
14158813851
14158818916
14158824837
14158827644
14158834175
14158839241
14158845345
14158850960
14158856209
14158860237
14158867195
14158871590
14158877937
14158882942
14158888801
14158893867
14158900154
14158904671
14158910469
14158914680
14158920662
14158928169
14158933662
14158939461
14158944649
14158948982
14158954902
14158959907
14158965828
14158971565
14158977485
14158984321
14158988105
14158994758
14159000190
14159006538
14159012825
14159017952
14159025825
14159033699
14159039741
14159053291
14159059516
14159064216
14159070075
14159073493
14159078193
14159083442
14159089912
14159094062
14159100532
14159106452
14159114143
14159120796
14159125434
14159131843
14159137824
14159144233
14159150275
14159155952
14159159492
14159164313
14159170234
14159175727
14159180976
14159186103
14159190681
14159195746
14159201118
14159206489
14159211616
14159217414
14159220649
14159228278
14159233405
14159239448
14159244330
14159251777
14159257026
14159263312
14159265998
14159274665
14159282172
14159287238
14159292609
14159297858
14159303717
14159309333
14159313788
14159319464
14159322699
14159332648
14159337531
14159343451
14159349250
14159354926
14159360297
14159365790
14159372382
14159376166
14159381293
14159385932
14159396308
14159402960
14159412482
14159420538
14159427679
14159431769
14159444342
14159452460
14159459845
14159464178
14159473151
14159479254
14159489569
14159497381
14159505377
14159511969
14159518072
14159527228
14159535223
14159542792
14159550726
14159557989
14159565435
14159572760
14159581549
14159589483
14159595953
14159602484
14159609747
14159615484
14159621038
14159626043
14159631781
14159636297
14159643255
14159647894
14159659979
14159665716
14159671270
14159676519
14159680364
14159685919
14159688909
14159696783
14159701483
14159707342
14159712347
14159718145
14159722540
14159728887
14159734563
14159739874
14159744512
14159749212
14159754461
14159758184
14159763799
14159769109
14159773687
14159778020
14159784002
14159786870
14159793951
14159796819
14159804021
14159808965
14159815923
14159821966
14159826116
14159831853
14159838201
14159843816
14159851507
14159856572
14159863286
14159869207
14159874578
14159879461
14159884465
14159889531
14159895513
14159901067
14159907109
14159912847
14159918096
14159922856
14159926763
14159932866
14159937322
14159943547
14159948430
14159955693
14159961919
14159966558
14159972966
14159976994
14159983525
14159988713
14159992986
14160000188
14160004887
14160009892
14160016606
14160021123
14160025884
14160031194
14160036504
14160042241
14160048833
14160054387
14160059880
14160063420
14160069829
14160072697
14160080693
14160086003
14160091557
14160096318
14160101933
14160106938
14160112248
14160116337
14160122258
14160127385
14160134648
14160141362
14160145939
14160152531
14160159184
14160164555
14160170903
14160177433
14160183476
14160192204
14160197758
14160204228
14160211796
14160217778
14160226078
14160235356
14160239994
14160249394
14160254948
14160259342
14160264958
14160268681
14160276188
14160280583
14160285038
14160290104
14160294193
14160299015
14160304508
14160311161
14160315617
14160323734
14160329533
14160333988
14160340092
14160344791
14160350834
14160355106
14160359989
14160366154
14160370792
14160376957
14160381473
14160387821
14160393619
14160401859
14160407718
14160416202
14160422794
14160430485
14160436771
14160445011
14160452396
14160460148
14160466922
14160470829
14160479496
14160487674
14160495487
14160501957
14160510624
14160517337
14160523502
14160531253
14160537967
14160544986
14160554019
14160560306
14160568973
14160575931
14160582401
14160586978
14160592532
14160599185
14160606021
14160610416
14160616885
14160622684
14160628604
14160633609
14160640445
14160645145
14160649966
14160656192
14160661807
14160667361
14160672549
14160677188
14160683658
14160689151
14160694400
14160702212
14160707828
14160713809
14160719546
14160725100
14160730533
14160737246
14160742740
14160749698
14160755191
14160762637
14160767764
14160773867
14160780398
14160786868
14160792788
14160798953
14160806094
14160810916
14160817569
14160822146
14160827639
14160833438
14160838259
14160843264
14160850039
14160855654
14160861331
14160866335
14160871707
14160876162
14160881899
14160888003
14160893496
14160899844
14160905825
14160910952
14160916201
14160920718
14160926699
14160932314
14160939394
14160944704
14160949892
14160955874
14160960696
14160968203
14160972781
14160979555
14160984988
14160989687
14160995425
14161001589
14161006777
14161012514
14161017702
14161023440
14161028750
14161035219
14161040468
14161047976
14161052675
14161058718
14161064455
14161070803
14161075563
14161081118
14161086916
14161093081
14161098574
14161104433
14161109987
14161113039
14161121096
14161126467
14161134889
14161139406
14161146425
14161151552
14161157778
14161163088
14161168886
14161175539
14161180300
14161186891
14161191835
14161197878
14161203066
14161209963
14161214174
14161220522
14161227846
14161233156
14161237978
14161244142
14161250734
14161256471
14161261720
14161267641
14161274415
14161279542
14161285768
14161289674
14161297365
14161303285
14161308534
14161314149
14161320314
14161324464
14161330995
14161338075
14161344667
14161350831
14161357728
14161364320
14161370546
14161375612
14161381288
14161386171
14161394838
14161401490
14161407106
14161415345
14161421449
14161427980
14161431886
14161438172
14161442750
14161449647
14161454041
14161463502
14161470826
14161479432
14161486268
14161494141
14161502442
14161509095
14161516785
14161523499
14161530824
14161537476
14161545350
14161555176
14161559144
14161568848
14161574525
14161584778
14161588807
14161599000
14161607239
14161614075
14161623353
14161630677
14161638611
14161645936
14161653321
14161661072
14161664368
14161672120
14161677491
14161684266
14161690796
14161695313
14161701844
14161706665
14161715393
14161720642
14161725220
14161730225
14161737732
14161741822
14161748169
14161751282
14161759278
14161766968
14161774170
14161778381
14161784668
14161790894
14161797424
14161800720
14161808960
14161814087
14161820129
14161827087
14161831360
14161838562
14161844482
14161849731
14161856323
14161861755
14161869568
14161875671
14161881225
14161887085
14161890076
14161898254
14161905395
14161910217
14161915466
14161924133
14161929504
14161935852
14161941894
14161946899
14161952148
14161957519
14161964721
14161969604
14161975097
14161981445
14161986694
14161990051
14161997070
14162003295
14162010253
14162016601
14162026367
14162031249
14162038452
14162043334
14162049499
14162055053
14162063476
14162075256
14162079894
14162085143
14162089538
14162091918
14162098510
14162103027
14162108032
14162112060
14162116698
14162121215
14162128051
14162133971
14162139587
14162145324
14162152221
14162157104
14162162170
14162166869
14162176147
14162184753
14162192382
14162200744
14162209350
14162216002
14162224425
14162229857
14162238585
14162246093
14162254149
14162262084
14162268554
14162277404
14162283019
14162290709
14162294799
14162300109
14162306761
14162311766
14162316649
14162319884
14162324889
14162328734
14162336119
14162340636
14162344725
14162349425
14162354735
14162358885
14162364379
14162368712
14162373839
14162378783
14162381346
14162387694
14162391234
14162397276
14162402220
14162406004
14162411009
14162416441
14162421324
14162425230
14162429564
14162433714
14162439513
14162446043
14162450926
14162455260
14162460570
14162465330
14162471312
14162476805
14162481993
14162486937
14162494383
14162500181
14162507506
14162515562
14162522032
14162529722
14162536863
14162542662
14162551512
14162557676
14162566282
14162572569
14162580809
14162586302
14162594969
14162600401
14162608946
14162616941
14162624082
14162632261
14162641294
14162648435
14162655088
14162660642
14162669859
14162675779
14162683225
14162686826
14162691404
14162696653
14162702696
14162706785
14162713010
14162721189
14162726682
14162732603
14162738157
14162743955
14162749754
14162752622
14162760374
14162764890
14162772886
14162777402
14162782773
14162788328
14162793882
14162798826
14162804136
14162808835
14162814206
14162819944
14162824949
14162830564
14162837949
14162844358
14162848996
14162854612
14162860776
14162866330
14162871518
14162877317
14162883420
14162889157
14162894895
14162900693
14162906308
14162911801
14162917295
14162922238
14162930173
14162936704
14162940427
14162947507
14162952268
14162959287
14162964780
14162970944
14162975522
14162981320
14162986997
14162993649
14162999143
14163004514
14163010068
14163016232
14163022885
14163026120
14163036191
14163041867
14163047238
14163054074
14163058469
14163063351
14163070859
14163076657
14163083737
14163088742
14163096432
14163101193
14163105832
14163113095
14163118222
14163123959
14163130917
14163136410
14163141903
14163147763
14163153866
14163160519
14163163937
14163171505
14163177914
14163187252
14163190853
14163199704
14163204586
14163211911
14163217404
14163224545
14163231076
14163244198
14163249569
14163255490
14163262203
14163267086
14163272213
14163278744
14163284054
14163286984
14163293636
14163298153
14163305050
14163310482
14163315121
14163321651
14163327816
14163333187
14163338741
14163343319
14163349728
14163354549
14163361263
14163366024
14163373348
14163377621
14163384151
14163389156
14163395565
14163401241
14163404903
14163411922
14163416134
14163423519
14163429805
14163435177
14163439998
14163445858
14163448909
14163458187
14163462825
14163468868
14163474910
14163481136
14163487239
14163491695
14163496456
14163503597
14163508724
14163515316
14163520442
14163525753
14163532649
14163537166
14163543025
14163550533
14163557735
14163565791
14163573055
14163580135
14163588191
14163595638
14163604121
14163613521
14163619563
14163626216
14163639094
14163643367
14163652888
14163661800
14163667415
14163675227
14163683040
14163689631
14163700129
14163708369
14163716121
14163723262
14163731013
14163738948
14163746577
14163753779
14163761287
14163765315
14163773371
14163778071
14163783442
14163786494
14163794062
14163800654
14163807734
14163813288
14163818415
14163823115
14163830134
14163835871
14163842768
14163848384
14163854121
14163860896
14163866267
14163871516
14163880000
14163885737
14163893244
14163898188
14163905146
14163909846
14163916682
14163921503
14163928034
14163932856
14163937983
14163942988
14163948176
14163954340
14163958979
14163966120
14163972285
14163977839
14163981806
14163987848
14163995417
14164000605
14164006159
14164012873
14164017573
14164023615
14164028559
14164035090
14164040094
14164046564
14164052057
14164056879
14164063837
14164070063
14164075434
14164081598
14164086908
14164094294
14164099543
14164104120
14164112055
14164116876
14164122980
14164128168
14164134943
14164141474
14164148126
14164154108
14164159418
14164166071
14164171686
14164176386
14164181818
14164189508
14164194452
14164201715
14164206781
14164212335
14164218561
14164224481
14164230402
14164235773
14164241449
14164247308
14164253351
14164258050
14164263605
14164270318
14164275140
14164281244
14164286493
14164293939
14164299127
14164306024
14164310846
14164316156
14164322076
14164328302
14164333734
14164339715
14164345392
14164351617
14164358087
14164362786
14164368524
14164373773
14164379754
14164387262
14164392266
14164399346
14164405084
14164409906
14164414971
14164422784
14164428094
14164435052
14164441949
14164447869
14164451714
14164462762
14164466851
14164472833
14164477715
14164485650
14164492730
14164503655
14164511041
14164515557
14164522759
14164529168
14164533318
14164539239
14164544366
14164549798
14164554925
14164561272
14164567010
14164571831
14164575799
14164581902
14164586968
14164593072
14164597222
14164604180
14164608819
14164615593
14164619988
14164624993
14164630059
14164637444
14164642632
14164650750
14164658867
14164667534
14164673699
14164683342
14164689873
14164699272
14164705986
14164715203
14164723625
14164730828
14164737908
14164746636
14164754326
14164762627
14164770500
14164779350
14164786675
14164795158
14164803520
14164810844
14164818901
14164825981
14164837517
14164845146
14164853264
14164861015
14164865715
14164872795
14164878593
14164885246
14164889702
14164896110
14164900688
14164908378
14164912163
14164919243
14164925590
14164931144
14164936271
14164942070
14164949455
14164955375
14164959953
14164965690
14164971611
14164978202
14164984123
14164988517
14164993522
14165000602
14165005851
14165012016
14165016715
14165022880
14165028984
14165035392
14165041984
14165047172
14165052543
14165058036
14165063957
14165070670
14165075370
14165083122
14165088920
14165094657
14165100822
14165105521
14165113334
14165119559
14165125419
14165132377
14165139396
14165146537
14165151054
14165161307
14165168510
14165174552
14165180350
14165187064
14165193717
14165198722
14165205253
14165210013
14165215018
14165220755
14165226249
14165231925
14165236991
14165242545
14165248160
14165254264
14165259818
14165265006
14165269950
14165276419
14165281302
14165287101
14165292716
14165297843
14165303153
14165307791
14165313224
14165320182
14165325064
14165330252
14165335745
14165341422
14165347647
14165353079
14165358939
14165362418
14165375174
14165382132
14165388052
14165393057
14165399283
14165404349
14165408865
14165417471
14165423331
14165428763
14165434073
14165439444
14165445059
14165450796
14165454825
14165461050
14165467154
14165473746
14165478750
14165485342
14165491629
14165496451
14165501639
14165508047
14165512442
14165519705
14165524832
14165531973
14165536856
14165543325
14165547659
14165553762
14165558279
14165563101
14165567862
14165574575
14165579702
14165585501
14165591238
14165596914
14165602224
14165608938
14165615225
14165621267
14165625967
14165632192
14165636892
14165642874
14165648855
14165655325
14165660146
14165666860
14165674062
14165679617
14165684255
14165689565
14165695852
14165706960
14165714223
14165722280
14165728384
14165733816
14165736806
14165748952
14165755727
14165765371
14165774587
14165781484
14165790212
14165797231
14165804189
14165813283
14165820485
14165828359
14165834890
14165841359
14165850820
14165857656
14165866323
14165872975
14165880178
14165887807
14165895803
14165902394
14165908803
14165915151
14165919240
14165928578
14165936635
14165943288
14165949452
14165954396
14165959889
14165964467
14165969716
14165977284
14165982106
14165987965
14165990834
14165997182
14166001515
14166007741
14166012746
14166020314
14166024709
14166030019
14166036183
14166039906
14166044789
14166051259
14166056630
14166063283
14166068898
14166072560
14166079335
14166083363
14166089223
14166094655
14166099965
14166103566
14166112050
14166115162
14166121632
14166126149
14166132801
14166137379
14166142750
14166147328
14166155751
14166160450
14166166615
14166172352
14166179371
14166184803
14166192372
14166197682
14166203297
14166209828
14166215626
14166220448
14166227040
14166231556
14166237538
14166242726
14166249928
14166255970
14166262013
14166269215
14166276844
14166280872
14166289661
14166296253
14166300404
14166307667
14166315418
14166320423
14166326466
14166334827
14166340809
14166344349
14166350941
14166358509
14166364734
14166372303
14166379261
14166385608
14166390491
14166395801
14166400745
14166406116
14166412098
14166414844
14166422962
14166429554
14166434986
14166439808
14166445362
14166448291
14166456348
14166460804
14166467823
14166473194
14166480518
14166484973
14166490772
14166495532
14166500598
14166504444
14166509143
14166515125
14166520618
14166524890
14166529468
14166535388
14166541370
14166545581
14166549854
14166556690
14166562732
14166569385
14166575305
14166581836
14166586780
14166593372
14166598682
14166604358
14166611499
14166617236
14166622790
14166628406
14166633350
14166639087
14166643970
14166648547
14166656299
14166662890
14166669299
14166673572
14166679858
14166684314
14166688952
14166695727
14166703296
14166708056
14166714587
14166718737
14166724292
14166729724
14166734912
14166739184
14166746753
14166752490
14166758471
14166766284
14166773303
14166777392
14166788806
14166797106
14166804553
14166812426
14166822009
14166829577
14166837451
14166845507
14166852648
14166861010
14166868884
14166877795
14166885790
14166895068
14166903857
14166908739
14166919604
14166929858
14166936938
14166943774
14166959154
14166967943
14166973253
14166978930
14166984057
14166987902
14166998888
14167009325
14167011828
14167019823
14167025255
14167030565
14167037706
14167042589
14167048876
14167054308
14167058519
14167065172
14167068956
14167075304
14167080980
14167088365
14167096056
14167103258
14167110887
14167118028
14167122728
14167129137
14167134020
14167139696
14167143358
14167148302
14167152391
14167158189
14167162889
14167168932
14167174486
14167180467
14167188341
14167195238
14167199937
14167208421
14167213304
14167219591
14167223497
14167229906
14167235582
14167240159
14167245103
14167250963
14167255235
14167261583
14167266832
14167272020
14167278001
14167282701
14167287523
14167293138
14167298204
14167305101
14167307725
14167314927
14167319078
14167325486
14167331712
14167336107
14167341661
14167348741
14167354783
14167359788
14167364000
14167369554
14167375413
14167380418
14167386521
14167390122
14167396592
14167400987
14167407517
14167413072
14167418687
14167423875
14167429490
14167434678
14167440782
14167445481
14167451890
14167456407
14167462632
14167468858
14167472886
14167480088
14167484422
14167491380
14167495713
14167501206
14167506211
14167519456
14167527207
14167533250
14167537400
14167543992
14167548936
14167554185
14167559800
14167566392
14167571030
14167578171
14167583726
14167591721
14167595810
14167601975
14167607346
14167612717
14167617417
14167625657
14167632492
14167638108
14167642380
14167647263
14167651841
14167657517
14167659958
14167666123
14167671128
14167676682
14167681320
14167685837
14167689926
14167695847
14167699692
14167705734
14167712021
14167718003
14167721848
14167728256
14167733261
14167739670
14167744980
14167750229
14167756027
14167760666
14167765976
14167770676
14167773422
14167781662
14167787094
14167791183
14167800400
14167805954
14167811874
14167820969
14167829147
14167836410
14167843979
14167850937
14167858627
14167864548
14167873092
14167881027
14167887375
14167895126
14167903000
14167910934
14167918319
14167927841
14167935714
14167942367
14167950729
14167957199
14167966354
14167975021
14167983078
14167989486
14167998336
14168003463
14168009017
14168015609
14168020004
14168026351
14168029830
14168037399
14168042098
14168049178
14168054000
14168059737
14168064803
14168070235
14168076156
14168081710
14168086898
14168090682
14168097396
14168102340
14168107833
14168113570
14168118636
14168123458
14168130965
14168134749
14168142745
14168149154
14168156051
14168163131
14168169539
14168175521
14168179793
14168186751
14168193221
14168198836
14168208663
14168214461
14168221297
14168226912
14168231551
14168239669
14168242354
14168249373
14168253646
14168259993
14168264083
14168270369
14168275496
14168281783
14168286360
14168291732
14168297103
14168301680
14168307295
14168312178
14168318831
14168323165
14168329085
14168332747
14168338667
14168344405
14168349959
14168355513
14168361189
14168367537
14168372969
14168377791
14168383589
14168388228
14168395247
14168401167
14168406599
14168411848
14168417830
14168422163
14168427229
14168434248
14168439802
14168444807
14168448836
14168456221
14168460859
14168466780
14168472700
14168478132
14168483992
14168488081
14168494490
14168500532
14168505354
14168512678
14168517073
14168521650
14168528120
14168533491
14168540205
14168544477
14168550947
14168557539
14168563093
14168567427
14168574385
14168579817
14168584150
14168591108
14168595869
14168602217
14168608686
14168613203
14168618818
14168624861
14168630903
14168635236
14168640241
14168646589
14168651960
14168658796
14168664167
14168669355
14168672285
14168680341
14168685835
14168691450
14168694746
14168703168
14168708112
14168715192
14168720319
14168726545
14168734968
14168741376
14168749433
14168753156
14168759565
14168764997
14168770124
14168776960
14168783429
14168789899
14168798078
14168804548
14168810834
14168814435
14168820722
14168826154
14168830854
14168835248
14168840680
14168845929
14168852887
14168857526
14168866010
14168873700
14168880719
14168884442
14168894635
14168902875
14168910199
14168914533
14168925214
14168931622
14168940778
14168949201
14168956830
14168965924
14168974469
14168980817
14168988507
14168995709
14169003217
14169012433
14169020550
14169028119
14169032635
14169042340
14169048810
14169059308
14169065533
14169074017
14169078595
14169085125
14169090558
14169095013
14169101544
14169106183
14169113018
14169118634
14169123883
14169129193
14169134625
14169140789
14169146771
14169151593
14169157391
14169161969
14169168255
14169174115
14169179486
14169183941
14169191082
14169196392
14169202923
14169207989
14169213543
14169218853
14169223919
14169229595
14169235882
14169241436
14169245831
14169252422
14169256878
14169263043
14169269451
14169276409
14169280987
14169286419
14169292828
14169298809
14169304424
14169310039
14169315044
14169320721
14169325176
14169332500
14169338726
14169344341
14169348919
14169355388
14169361004
14169366741
14169371685
14169378826
14169385540
14169391643
14169396831
14169403301
14169410564
14169417095
14169422405
14169427898
14169432903
14169439617
14169446819
14169454204
14169460552
14169468975
14169473186
14169480144
14169484355
14169490154
14169496196
14169501506
14169506877
14169510600
14169516643
14169521221
14169528118
14169534099
14169541057
14169545757
14169550823
14169556377
14169562175
14169566570
14169573650
14169578777
14169585002
14169589275
14169595866
14169600261
14169606975
14169611369
14169616984
14169623820
14169629619
14169634807
14169640910
14169646281
14169649089
14169657207
14169662639
14169668620
14169671733
14169678142
14169684306
14169689372
14169695170
14169700786
14169705485
14169710185
14169716655
14169721904
14169727580
14169733317
14169738444
14169743388
14169749491
14169755717
14169761332
14169764323
14169771525
14169778361
14169782450
14169789652
14169795573
14169801005
14169807108
14169813395
14169816752
14169829691
14169839091
14169846720
14169854166
14169861491
14169867838
14169875040
14169881754
14169888163
14169892741
14169898478
14169903605
14169909037
14169913676
14169919779
14169926432
14169931925
14169936808
14169942423
14169947428
14169953287
14169958048
14169964274
14169972147
14169979532
14169987223
14169994730
14170002115
14170010599
14170018412
14170026163
14170035929
14170044779
14170051126
14170061136
14170069315
14170082926
14170092203
14170098978
14170105814
14170114908
14170121866
14170128763
14170134927
14170142252
14170148416
14170153970
14170158731
14170162759
14170168985
14170171854
14170178751
14170183206
14170191141
14170196024
14170201517
14170206705
14170211343
14170215799
14170221292
14170225931
14170231851
14170243081
14170248147
14170254983
14170260476
14170266153
14170272012
14170276590
14170280923
14170286477
14170291360
14170297220
14170302713
14170308084
14170313089
14170317605
14170323098
14170327615
14170332498
14170338052
14170343179
14170349527
14170355081
14170360635
14170365701
14170371438
14170376504
14170379434
14170386392
14170393350
14170398843
14170404153
14170408181
14170412515
14170418740
14170423257
14170429482
14170434060
14170440041
14170446999
14170450784
14170456826
14170462258
14170467202
14170472451
14170477273
14170485146
14170490395
14170495400
14170500527
14170506142
14170511330
14170514260
14170521645
14170525551
14170532448
14170538064
14170543191
14170547707
14170553506
14170558144
14170563881
14170569008
14170574807
14170582741
14170589577
14170594948
14170602822
14170606057
14170615273
14170621560
14170630104
14170636940
14170644753
14170650124
14170654518
14170660683
14170665261
14170671486
14170675637
14170681374
14170685951
14170690590
14170697060
14170701821
14170705727
14170712013
14170716530
14170722023
14170726967
14170731606
14170736061
14170740090
14170746193
14170752052
14170756264
14170760719
14170766640
14170771889
14170776527
14170782082
14170788368
14170796181
14170801491
14170806435
14170811378
14170817116
14170822182
14170826454
14170832252
14170838539
14170844154
14170847938
14170854774
14170860023
14170865577
14170870460
14170875587
14170881263
14170886696
14170889991
14170897865
14170900978
14170908363
14170913856
14170917762
14170922096
14170929054
14170934303
14170940834
14170943946
14170952064
14170958229
14170964027
14170969398
14170976600
14170981666
14170987708
14170992652
14170998939
14171003272
14171009071
14171013709
14171019935
14171026405
14171031104
14171036475
14171042640
14171047401
14171052650
14171059180
14171065284
14171071876
14171077491
14171082435
14171087806
14171092506
14171097938
14171103614
14171110938
14171116798
14171121863
14171125831
14171132422
14171137305
14171142310
14171151771
14171157569
14171165748
14171170264
14171178565
14171181983
14171191871
14171196265
14171206275
14171213599
14171219825
14171225867
14171230872
14171235389
14171240699
14171243750
14171250952
14171257300
14171263404
14171270606
14171275977
14171281836
14171287940
14171294348
14171300086
14171306799
14171311743
14171314734
14171322180
14171325110
14171331824
14171337622
14171343543
14171349585
14171355322
14171359717
14171365820
14171370154
14171376929
14171381873
14171386877
14171391089
14171397497
14171404394
14171408362
14171413367
14171419165
14171423132
14171428442
14171433142
14171439429
14171444311
14171450293
14171454870
14171459814
14171466406
14171470801
14171476172
14171481665
14171488134
14171494299
14171501623
14171507177
14171514135
14171519079
14171523962
14171529821
14171535864
14171540686
14171545813
14171551306
14171556188
14171562170
14171566076
14171570715
14171578100
14171584326
14171588598
14171593115
14171600073
14171604162
14171609106
14171616308
14171623022
14171628820
14171632971
14171638647
14171642858
14171649511
14171653600
14171659826
14171665685
14171671545
14171677953
14171683507
14171691137
14171697423
14171703344
14171711278
14171716711
14171720678
14171732641
14171739965
14171745092
14171749792
14171756811
14171763341
14171768407
14171775426
14171781774
14171788732
14171793370
14171798436
14171803258
14171807653
14171813756
14171818700
14171824010
14171828405
14171834874
14171839818
14171845189
14171850438
14171856298
14171862157
14171867467
14171873387
14171878514
14171884740
14171889562
14171895726
14171901158
14171905797
14171912816
14171918126
14171922460
14171928990
14171933263
14171938207
14171945165
14171951024
14171956944
14171962193
14171967870
14171974217
14171977818
14171986668
14171993626
14172001073
14172004063
14172010716
14172016698
14172021641
14172028660
14172033299
14172039647
14172045506
14172051182
14172056859
14172063878
14172069066
14172074742
14172082066
14172088475
14172095677
14172101170
14172106968
14172112584
14172115330
14172122654
14172127049
14172134556
14172139988
14172148411
14172154331
14172160069
14172164768
14172170201
14172175083
14172182224
14172187718
14172194676
14172199742
14172206577
14172212376
14172217381
14172223911
14172228184
14172234837
14172240452
14172246555
14172251438
14172258945
14172264011
14172269138
14172274509
14172281773
14172289158
14172295261
14172302830
14172309421
14172316318
14172324253
14172328647
14172339390
14172347996
14172360508
14172367710
14172373996
14172382053
14172395847
14172408603
14172423618
14172432651
14172449680
14172462863
14172474033
14172484104
14172496433
14172510715
14172519931
14172529086
14172538791
14172547824
14172556125
14172564792
14172573886
14172583408
14172589877
14172598239
14172605685
14172614780
14172623141
14172631625
14172639560
14172648776
14172657870
14172665622
14172673922
14172682223
14172690524
14172698825
14172706820
14172715304
14172723971
14172732333
14172741671
14172750033
14172759371
14172766452
14172775729
14172784823
14172790988
14172800204
14172806857
14172817843
14172821993
14172832674
14172840609
14172850558
14172858920
14172866061
14172875887
14172885104
14172892855
14172902132
14172910860
14172917696
14172928072
14172932589
14172946322
14172951143
14172964083
14172974703
14172982943
14172993868
14173000948
14173010836
14173017855
14173026705
14173035860
14173044893
14173052400
14173061739
14173072115
14173080293
14173086702
14173096041
14173104524
14173112398
14173118807
14173126863
14173136629
14173142976
14173151643
14173159517
14173168672
14173176607
14173183809
14173189912
14173197237
14173210237
14173220308
14173227754
14173235383
14173243501
14173251314
14173260530
14173268098
14173277498
14173286897
14173295259
14173303315
14173310395
14173318391
14173326265
14173334321
14173343171
14173350495
14173359345
14173366853
14173375215
14173383027
14173390595
14173398286
14173406526
14173412446
14173422334
14173428620
14173436005
14173444428
14173452790
14173462251
14173468415
14173477387
14173484833
14173493439
14173501191
14173509003
14173517121
14173525117
14173534394
14173541169
14173549347
14173556428
14173565278
14173571259
14173579560
14173589447
14173595002
14173603302
14173611298
14173620392
14173628083
14173636689
14173644928
14173652436
14173659943
14173667511
14173676911
14173685578
14173694122
14173699677
14173709931
14173717682
14173724762
14173732880
14173739471
14173748749
14173754730
14173759796
14173762482
14173769989
14173774567
14173779510
14173784515
14173790253
14173795502
14173800384
14173805450
14173810455
14173814056
14173819549
14173824920
14173828827
14173835113
14173841034
14173844757
14173851898
14173857879
14173864288
14173866913
14173875641
14173878387
14173886505
14173891021
14173898346
14173905487
14173911407
14173915924
14173919891
14173927337
14173932464
14173937774
14173942596
14173949310
14173953643
14173959197
14173962676
14173968048
14173973358
14173977142
14173983978
14173988128
14173992767
14173997588
14174001678
14174006988
14174012054
14174017913
14174022125
14174028045
14174032073
14174036834
14174041412
14174045379
14174049895
14174055389
14174060332
14174064666
14174069671
14174073577
14174078765
14174081634
14174090484
14174096099
14174101226
14174105987
14174111663
14174115996
14174121001
14174128020
14174134429
14174138823
14174144866
14174149077
14174155181
14174160125
14174166472
14174172820
14174178252
14174183562
14174187529
14174193023
14174196502
14174203521
14174207915
14174214080
14174224089
14174229460
14174234526
14174239165
14174244597
14174250151
14174255644
14174261870
14174266997
14174271819
14174277434
14174284514
14174289519
14174294341
14174300444
14174305388
14174309111
14174315703
14174320769
14174327727
14174332854
14174339629
14174344572
14174351775
14174356779
14174364043
14174370756
14174377592
14174383208
14174387968
14174392119
14174397856
14174408842
14174417814
14174423186
14174429045
14174433561
14174439360
14174442900
14174449736
14174453703
14174460600
14174465788
14174472563
14174477873
14174483061
14174490202
14174495146
14174499662
14174503324
14174508940
14174512968
14174517851
14174523405
14174528837
14174533659
14174540373
14174544096
14174549223
14174553678
14174558744
14174564054
14174568571
14174574552
14174578275
14174583036
14174589323
14174594999
14174601042
14174608183
14174614103
14174619474
14174624601
14174629301
14174635709
14174640653
14174646085
14174652311
14174658292
14174665311
14174670438
14174673917
14174682706
14174688566
14174694425
14174697599
14174704862
14174710843
14174714933
14174721586
14174726835
14174734525
14174739042
14174745450
14174751310
14174756437
14174763456
14174769864
14174774808
14174781705
14174787137
14174790738
14174799344
14174805326
14174811368
14174816983
14174824124
14174828824
14174834439
14174839688
14174846463
14174851529
14174859159
14174864835
14174870023
14174876676
14174884793
14174889493
14174894925
14174901395
14174904874
14174914884
14174919400
14174927274
14174933438
14174940091
14174945218
14174952115
14174957059
14174963345
14174968899
14174976346
14174983975
14174990079
14174995267
14174999661
14175005765
14175010159
14175015164
14175022244
14175027615
14175034024
14175039578
14175044766
14175049466
14175055569
14175061490
14175068203
14175074002
14175079678
14175086453
14175092129
14175097317
14175103360
14175107510
14175113491
14175119656
14175125393
14175130947
14175135159
14175141567
14175146389
14175152615
14175159085
14175163052
14175168728
14175175137
14175180386
14175187344
14175194302
14175200100
14175206204
14175212002
14175217678
14175224941
14175229946
14175235928
14175241726
14175246731
14175253078
14175259243
14175265285
14175270657
14175276150
14175281399
14175287563
14175293117
14175300991
14175305446
14175312160
14175316860
14175323940
14175329433
14175333950
14175340603
14175345669
14175352565
14175358059
14175364345
14175369960
14175376247
14175381374
14175386928
14175393703
14175399501
14175405971
14175411464
14175417812
14175423061
14175429409
14175435146
14175441310
14175446559
14175453578
14175458888
14175466823
14175473842
14175480312
14175486720
14175493190
14175500575
14175506130
14175516628
14175525844
14175531337
14175535854
14175542018
14175548000
14175554347
14175560817
14175566371
14175569423
14175577663
14175584010
14175590236
14175595668
14175601344
14175608668
14175613917
14175621058
14175627345
14175633449
14175636317
14175644008
14175649257
14175654689
14175660182
14175665553
14175669093
14175675135
14175681178
14175686854
14175693385
14175699366
14175704921
14175709925
14175718226
14175723597
14175731410
14175736720
14175743373
14175748072
14175753749
14175758814
14175763270
14175770472
14175776454
14175782008
14175786891
14175792750
14175799220
14175805995
14175811305
14175817225
14175821619
14175829066
14175834132
14175839442
14175845362
14175849818
14175858118
14175862879
14175868128
14175873255
14175879725
14175884791
14175891199
14175896876
14175901392
14175907740
14175914087
14175920252
14175925501
14175931910
14175937037
14175942652
14175949854
14175954615
14175959070
14175966578
14175970362
14175977137
14175981958
14175988672
14175994410
14176001245
14176008020
14176012598
14176017664
14176023401
14176032007
14176037012
14176042932
14176049219
14176056543
14176064905
14176073877
14176082971
14176087732
14176095667
14176099024
14176107324
14176114160
14176123193
14176127832
14176133203
14176139307
14176144189
14176148279
14176154321
14176162256
14176166894
14176170618
14176177942
14176181970
14176189233
14176193017
14176198266
14176202966
14176209558
14176215112
14176220056
14176226831
14176231164
14176237634
14176242090
14176248498
14176254907
14176259668
14176265039
14176271753
14176278222
14176283838
14176289758
14176294458
14176299096
14176306237
14176312280
14176318017
14176322473
14176328393
14176334802
14176340966
14176346826
14176354150
14176358727
14176364892
14176371606
14176378320
14176383447
14176389977
14176394860
14176401696
14176409448
14176414269
14176421227
14176427148
14176432641
14176438378
14176444543
14176450829
14176456994
14176462487
14176468957
14176473901
14176480797
14176487084
14176492638
14176499047
14176505334
14176509972
14176516076
14176521447
14176527245
14176533288
14176539086
14176545434
14176552697
14176558617
14176562829
14176569786
14176575707
14176582970
14176587975
14176594017
14176599511
14176606591
14176614098
14176619042
14176624718
14176632286
14176637718
14176643151
14176648949
14176654198
14176662132
14176669640
14176676109
14176684776
14176690514
14176697044
14176702538
14176710289
14176715477
14176721214
14176728600
14176731834
14176742821
14176746483
14176753807
14176758995
14176765587
14176769798
14176775902
14176781883
14176787742
14176793297
14176797996
14176802574
14176810020
14176814415
14176820030
14176825950
14176832115
14176838279
14176843956
14176848411
14176853904
14176861473
14176867637
14176872398
14176878502
14176885460
14176898216
14176914329
14176923240
14176934226
14176943748
14176952049
14176960410
14176968894
14176979392
14176985008
14176990257
14176996299
14177002525
14177007774
14177013145
14177018821
14177024741
14177031028
14177036033
14177041343
14177047996
14177053672
14177061301
14177066794
14177074119
14177078269
14177084495
14177088523
14177095725
14177099814
14177107261
14177111960
14177118857
14177123801
14177130149
14177134787
14177139975
14177144187
14177150840
14177157248
14177163901
14177169455
14177174277
14177180686
14177185691
14177190757
14177197531
14177202780
14177209128
14177215232
14177219321
14177224997
14177230368
14177235556
14177242087
14177248068
14177254355
14177259787
14177264426
14177271262
14177277121
14177282858
14177288779
14177297873
14177305136
14177310934
14177314780
14177321494
14177326010
14177334860
14177339987
14177350058
14177354819
14177360556
14177365866
14177371664
14177377341
14177382040
14177389731
14177394186
14177399130
14177404501
14177409811
14177412802
14177420187
14177423361
14177430929
14177437155
14177443136
14177448385
14177454672
14177459250
14177465719
14177469992
14177475973
14177481771
14177487753
14177494223
14177499411
14177506552
14177513082
14177519430
14177524923
14177531393
14177536703
14177542990
14177547994
14177554952
14177560201
14177568258
14177572836
14177578146
14177584493
14177589681
14177594015
14177600668
14177606161
14177610799
14177616842
14177624532
14177628255
14177636617
14177642049
14177649374
14177654989
14177661092
14177668355
14177674337
14177679769
14177684835
14177694234
14177701131
14177705404
14177711446
14177715902
14177722249
14177727987
14177733297
14177737752
14177744100
14177748800
14177754903
14177759542
14177764241
14177771138
14177776937
14177782064
14177788900
14177793660
14177798909
14177804586
14177810201
14177814962
14177820577
14177826131
14177834432
14177841085
14177848042
14177852559
14177859761
14177866353
14177872029
14177880635
14177887044
14177893758
14177899434
14177907857
14177914388
14177920552
14177927388
14177932088
14177937886
14177941914
14177947346
14177952595
14177957478
14177963887
14177969197
14177976643
14177981038
14177988118
14177993916
14178000081
14178006184
14178011555
14178019185
14178024556
14178029683
14178036213
14178041340
14178046772
14178051167
14178058125
14178063862
14178069050
14178074421
14178080708
14178085835
14178091084
14178095600
14178102681
14178108174
14178113545
14178119770
14178125935
14178132466
14178138569
14178143757
14178149677
14178155415
14178161213
14178166218
14178172138
14178177570
14178183735
14178189289
14178195332
14178201069
14178208759
14178211750
14178219990
14178225544
14178231464
14178238483
14178244953
14178251728
14178257648
14178262836
14178268513
14178273151
14178279072
14178283710
14178290912
14178297931
14178303913
14178310077
14178316059
14178321186
14178327411
14178333515
14178339435
14178345722
14178351276
14178357807
14178362262
14178368427
14178374408
14178379901
14178385883
14178392658
14178399128
14178402607
14178410114
14178414691
14178421771
14178427326
14178434345
14178439777
14178448444
14178456134
14178461749
14178466449
14178473041
14178477496
14178483112
14178490558
14178499469
14178503864
14178511005
14178517474
14178523151
14178527789
14178534320
14178539325
14178547198
14178552325
14178559100
14178565326
14178571429
14178575885
14178582599
14178587237
14178595477
14178600482
14178606647
14178612628
14178616961
14178623370
14178629046
14178635394
14178642169
14178647967
14178653704
14178657977
14178663836
14178669879
14178677691
14178685687
14178693011
14178700579
14178705706
14178712054
14178717730
14178725421
14178732806
14178738360
14178744708
14178749590
14178755328
14178761614
14178767779
14178772112
14178778643
14178783892
14178789385
14178796099
14178801226
14178806780
14178811541
14178814532
14178822222
14178826983
14178835406
14178840716
14178846087
14178850909
14178856585
14178861529
14178868487
14178873186
14178881670
14178886492
14178892229
14178898272
14178904009
14178908404
14178914507
14178918535
14178927080
14178933245
14178937395
14178944414
14178948504
14178955217
14178960894
14178966387
14178973345
14178979692
14178984209
14178990313
14178995684
14179001177
14179006914
14179011309
14179020220
14179027117
14179032183
14179039018
14179045427
14179052263
14179059038
14179067766
14179075762
14179083330
14179093523
14179100114
14179110429
14179117204
14179124040
14179128862
14179135393
14179140398
14179145708
14179152299
14179157243
14179161760
14179168657
14179174638
14179180437
14179188066
14179193742
14179198808
14179209367
14179216386
14179224504
14179230302
14179235551
14179240861
14179244706
14179249894
14179254899
14179258500
14179264482
14179269853
14179273759
14179279069
14179284257
14179289628
14179294755
14179300248
14179304521
14179310502
14179316789
14179321611
14179328568
14179332963
14179339311
14179343156
14179349503
14179354081
14179360612
14179365373
14179372147
14179375932
14179381303
14179386979
14179391984
14179397538
14179402360
14179406632
14179412492
14179417680
14179423417
14179427811
14179434281
14179441056
14179446610
14179451920
14179456132
14179462845
14179467667
14179474747
14179478531
14179485489
14179492386
14179497635
14179502030
14179509232
14179515214
14179521073
14179525040
14179532608
14179539078
14179545304
14179548111
14179557022
14179561417
14179567521
14179572098
14179578995
14179583756
14179591141
14179595963
14179601212
14179607193
14179613175
14179619278
14179624954
14179631180
14179640824
14179646744
14179655106
14179659317
14179664139
14179670426
14179676224
14179683243
14179690689
14179696487
14179704239
14179708450
14179713943
14179719559
14179726456
14179731827
14179739029
14179745621
14179750259
14179755020
14179760147
14179765030
14179769668
14179774612
14179781082
14179783645
14179791580
14179796036
14179800796
14179805679
14179810379
14179815140
14179821548
14179826858
14179832473
14179838699
14179844131
14179850357
14179854507
14179862564
14179867752
14179872512
14179877273
14179882400
14179886489
14179893081
14179897781
14179904068
14179909988
14179914810
14179920364
14179925857
14179931655
14179936843
14179942336
14179948806
14179953262
14179959304
14179965103
14179969375
14179975295
14179979202
14179985183
14179990371
14179996719
14180002029
14180007339
14180011245
14180017410
14180022231
14180028640
14180036269
14180042007
14180046645
14180052383
14180057754
14180062209
14180068252
14180073928
14180080825
14180086257
14180091872
14180096938
14180102675
14180108352
14180113357
14180118972
14180123916
14180132949
14180136245
14180143691
14180148330
14180155410
14180161696
14180165908
14180172683
14180180861
14180186965
14180192702
14180199111
14180206435
14180211562
14180217787
14180223220
14180228591
14180234877
