14341974698
14341978482
14341982388
14341986538
14341990872
14341994229
14341998135
14342001980
14342006131
14342010220
14342014309
14342018582
14342022732
14342027005
14342032131
14342037442
14342042568
14342046780
14342051724
14342057095
14342062466
14342067715
14342072659
14342078457
14342085842
14342093594
14342099941
14342105557
14342112087
14342119412
14342125576
14342131008
14342137722
14342144680
14342150417
14342158779
14342164638
14342168911
14342175991
14342184231
14342193508
14342201320
14342206631
14342215786
14342223476
14342231289
14342238186
14342245022
14342253200
14342259487
14342266262
14342272976
14342279079
14342286342
14342294399
14342301479
14342307766
14342312892
14342323329
14342326992
14342337062
14342345180
14342351345
14342358547
14342366115
14342371608
14342378505
14342386745
14342395473
14342401332
14342407619
14342413600
14342416286
14342422755
14342428798
14342434657
14342439723
14342445766
14342451442
14342455714
14342459926
14342465114
14342469936
14342474147
14342478786
14342483424
14342488246
14342492213
14342497218
14342500758
14342505763
14342510097
14342515162
14342519740
14342523036
14342528590
14342532374
14342537501
14342541896
14342548060
14342552455
14342557216
14342562098
14342567775
14342572047
14342576869
14342581019
14342587062
14342592494
14342597682
14342602259
14342606776
14342610682
14342615077
14342620875
14342625758
14342630213
14342635951
14342640467
14342645533
14342649684
14342654505
14342658106
14342662928
14342667323
14342672328
14342676905
14342680750
14342685938
14342690211
14342695094
14342698756
14342703455
14342707423
14342712428
14342716273
14342721827
14342726649
14342731898
14342736964
14342742945
14342747279
14342754359
14342758753
14342763453
14342769190
14342774012
14342779688
14342785609
14342793787
14342799830
14342806849
14342812098
14342816736
14342823023
14342827601
14342834009
14342841578
14342846399
14342850245
14342854700
14342858851
14342863306
14342868433
14342872217
14342878382
14342882227
14342887049
14342891809
14342896692
14342900415
14342905237
14342909571
14342918177
14342925135
14342931421
14342937036
14342941858
14342947595
14342954065
14342959009
14342963526
14342969202
14342974573
14342978418
14342984216
14342988550
14342995447
14343001123
14343005823
14343010217
14343014185
14343019373
14343024438
14343030664
14343036218
14343041895
14343046838
14343052637
14343059045
14343063867
14343068811
14343073816
14343079431
14343084619
14343090784
14343096338
14343101953
14343106408
14343114465
14343122583
14343129480
14343136255
14343143762
14343151147
14343158593
14343164331
14343173364
14343179284
14343186120
14343194665
14343201745
14343210534
14343218530
14343225000
14343233300
14343240136
14343249963
14343256066
14343263879
14343269677
14343274194
14343284081
14343288781
14343297570
14343304284
14343309594
14343311730
14343319177
14343325341
14343330224
14343336449
14343341943
14343349023
14343353783
14343360863
14343366967
14343373620
14343380639
14343386498
14343392785
14343399865
14343404076
14343410790
14343415429
14343421593
14343427208
14343433373
14343438317
14343445397
14343449669
14343455468
14343460778
14343465905
14343471703
14343477684
14343481835
14343487877
14343491967
14343498497
14343503624
14343509056
14343512841
14343519615
14343524803
14343531517
14343537682
14343542504
14343548424
14343553917
14343559349
14343564415
14343569359
14343577049
14343581261
14343587303
14343591393
14343597801
14343602379
14343609093
14343614098
14343621422
14343627281
14343633568
14343638206
14343641685
14343648888
14343654930
14343659813
14343666038
14343674339
14343677818
14343684410
14343689354
14343695396
14343700035
14343707908
14343715233
14343721580
14343726707
14343733238
14343738792
14343743919
14343748497
14343755272
14343759971
14343768211
14343773216
14343780235
14343784874
14343790123
14343795982
14343800499
14343808616
14343815086
14343820396
14343823631
14343831748
14343836082
14343842796
14343847984
14343854026
14343860374
14343867332
14343872093
14343878135
14343882896
14343889427
14343894248
14343900169
14343905906
14343912132
14343918418
14343924155
14343929282
14343936240
14343940940
14343948264
14343955344
14343961387
14343968467
14343974082
14343980857
14343986594
14343991294
14343998252
14344002769
14344010947
14344016684
14344021079
14344026511
14344031577
14344037436
14344040732
14344048056
14344054404
14344060447
14344065574
14344071311
14344074424
14344081382
14344086692
14344090720
14344098288
14344102805
14344108664
14344112693
14344117881
14344123313
14344128440
14344134299
14344140097
14344145651
14344149008
14344157919
14344164877
14344172751
14344177512
14344186728
14344194968
14344204733
14344211386
14344219687
14344226767
14344233664
14344242209
14344249594
14344257651
14344264548
14344273459
14344280783
14344286581
14344295737
14344302023
14344306723
14344317892
14344326010
14344334189
14344341269
14344349264
14344354208
14344359823
14344365683
14344370626
14344377035
14344383200
14344387533
14344393393
14344397604
14344403158
14344409506
14344414938
14344421163
14344426168
14344432211
14344437277
14344442709
14344447286
14344454550
14344459005
14344467794
14344473043
14344477255
14344483053
14344488790
14344493734
14344498800
14344506673
14344511068
14344517477
14344521322
14344527914
14344532125
14344537740
14344544942
14344550375
14344556600
14344563497
14344569784
14344576253
14344581380
14344588216
14344595724
14344602071
14344608236
14344614461
14344619527
14344624349
14344630513
14344636068
14344641500
14344648336
14344653402
14344658651
14344663167
14344669271
14344673848
14344679708
14344684957
14344691426
14344696004
14344701436
14344705953
14344711629
14344718526
14344723287
14344729451
14344734700
14344738790
14344745015
14344751119
14344755940
14344762105
14344767049
14344772420
14344780660
14344785298
14344791890
14344796346
14344802510
14344810078
14344814412
14344820576
14344827412
14344832417
14344835774
14344843648
14344849263
14344853963
14344859334
14344865925
14344870442
14344878499
14344882100
14344889302
14344894856
14344900227
14344906453
14344911580
14344916646
14344923848
14344929280
14344934712
14344941487
14344946736
14344951130
14344957539
14344963643
14344970356
14344979084
14344985920
14344992878
14345000447
14345007710
14345013508
14345019490
14345024800
14345029316
14345033894
14345038410
14345042622
14345047566
14345053364
14345057758
14345062580
14345067280
14345072041
14345076618
14345080708
14345087116
14345091877
14345096272
14345102009
14345104755
14345112263
14345116291
14345124348
14345131977
14345138203
14345143330
14345148884
14345154560
14345160053
14345165974
14345173237
14345179645
14345186603
14345192890
14345198322
14345205036
14345211933
14345218403
14345224201
14345232502
14345236164
14345244587
14345251972
14345258808
14345264972
14345272174
14345279254
14345284870
14345292804
14345297748
14345305255
14345312519
14345319782
14345326251
14345333148
14345339618
14345344257
14345348224
14345353900
14345356647
14345363361
14345370563
14345375873
14345380939
14345386066
14345390460
14345396137
14345400775
14345405780
14345412433
14345417682
14345423297
14345429217
14345433551
14345440021
14345444720
14345451312
14345457110
14345462787
14345468097
14345472613
14345477923
14345482318
14345488849
14345497088
14345503863
14345508990
14345514300
14345521319
14345526202
14345532550
14345537494
14345543719
14345547625
14345555743
14345562945
14345567889
14345574115
14345580584
14345586200
14345594256
14345597857
14345604815
14345610614
14345616900
14345621539
14345629595
14345631854
14345640093
14345645281
14345651080
14345656451
14345662005
14345666644
14345672930
14345679827
14345684466
14345692278
14345697955
14345706499
14345712481
14345719317
14345725359
14345729510
14345737933
14345742144
14345750323
14345754412
14345761553
14345766497
14345773943
14345779314
14345785540
14345790362
14345796221
14345802447
14345806719
14345813189
14345819231
14345824480
14345831316
14345835650
14345842730
14345847246
14345853472
14345859880
14345865801
14345872026
14345878679
14345883257
14345889666
14345895464
14345900225
14345906633
14345912859
14345917314
14345921465
14345929033
14345935320
14345940325
14345944109
14345953264
14345957659
14345965288
14345969255
14345975725
14345982011
14345987871
14345992693
14345999040
14346003740
14346009294
14346016496
14346021623
14346028642
14346035295
14346040239
14346046220
14346050920
14346057634
14346063493
14346070146
14346074968
14346078691
14346086992
14346093156
14346098832
14346104143
14346110063
14346116899
14346123491
14346128251
14346135392
14346141252
14346147233
14346151811
14346157853
14346163896
14346172319
14346177079
14346180802
14346188615
14346195817
14346204850
14346211808
14346219377
14346228044
14346236100
14346243119
14346249223
14346258073
14346266435
14346273087
14346278520
14346290849
14346299638
14346308305
14346314713
14346321244
14346330704
14346337540
14346344865
14346352250
14346360123
14346368058
14346375077
14346384354
14346390763
14346400223
14346407242
14346416825
14346423050
14346432816
14346437699
14346443070
14346448319
14346454117
14346458634
14346464127
14346471268
14346477372
14346482376
14346488053
14346493180
14346497147
14346502762
14346507889
14346515457
14346521256
14346527359
14346532974
14346539993
14346544815
14346550614
14346556412
14346563370
14346570633
14346575577
14346583511
14346588272
14346593033
14346599686
14346607010
14346613846
14346618851
14346624832
14346632095
14346636795
14346643082
14346648575
14346654312
14346661880
14346666702
14346670791
14346682998
14346689285
14346695328
14346700577
14346707046
14346712845
14346718277
14346724014
14346732010
14346737259
14346742569
14346749405
14346754837
14346763137
14346768386
14346773330
14346780654
14346786026
14346792495
14346796890
14346804031
14346808914
14346815750
14346820693
14346824172
14346831741
14346835342
14346843887
14346847305
14346854385
14346861404
14346868423
14346873306
14346879409
14346884963
14346890823
14346895339
14346900893
14346908462
14346913955
14346920242
14346925735
14346932021
14346937636
14346942580
14346946364
14346956008
14346959975
14346967971
14346971389
14346979323
14346985122
14346992385
14346998610
14347006423
14347013442
14347020034
14347025588
14347031691
14347038405
14347044265
14347048720
14347055373
14347060378
14347066726
14347072829
14347078444
14347082839
14347088515
14347093337
14347096633
14347105666
14347110793
14347117629
14347121047
14347128188
14347134108
14347139174
14347144240
14347151015
14347154799
14347161452
14347165236
14347171706
14347176955
14347182936
14347188185
14347195876
14347200697
14347206313
14347213210
14347219435
14347224135
14347229811
14347235365
14347239332
14347246474
14347252150
14347258803
14347264540
14347270399
14347275709
14347281325
14347286390
14347293776
14347299391
14347306715
14347313246
14347318556
14347329725
14347335035
14347345167
14347350111
14347360365
14347365858
14347374891
14347382215
14347390394
14347399244
14347406935
14347414930
14347420729
14347429151
14347435987
14347445081
14347451917
14347458814
14347467848
14347474256
14347482496
14347489332
14347499281
14347507032
14347513990
14347520277
14347523817
14347531019
14347534498
14347540235
14347545545
14347552259
14347557569
14347563550
14347570081
14347575941
14347581678
14347588331
14347593824
14347600110
14347605848
14347610120
14347615552
14347621473
14347627759
14347633802
14347641736
14347647474
14347654065
14347659314
14347664197
14347672193
14347676343
14347685315
14347691724
14347698438
14347701490
14347709302
14347714917
14347720654
14347723889
14347731641
14347735364
14347742200
14347745496
14347752026
14347756726
14347763013
14347767896
14347775159
14347782361
14347786572
14347789807
14347797681
14347802075
14347809155
14347812512
14347822034
14347827405
14347835644
14347839429
14347846509
14347851391
14347857068
14347861889
14347868176
14347872998
14347880627
14347885937
14347892041
14347897107
14347903454
14347909192
14347914135
14347918896
14347926526
14347932934
14347938549
14347944104
14347949963
14347954785
14347959607
14347965344
14347972973
14347977856
14347982800
14347989636
14347994824
14347999829
14348006176
14348011791
14348018566
14348024792
14348031384
14348035534
14348041393
14348048107
14348053173
14348059399
14348065014
14348071789
14348078259
14348080212
14348088268
14348091747
14348099865
14348103405
14348110363
14348116222
14348123058
14348128063
14348135021
14348140514
14348145824
14348150402
14348157116
14348162548
14348169201
14348174267
14348182140
14348186107
14348192089
14348197155
14348204174
14348208873
14348216259
14348221019
14348227123
14348232677
14348236644
14348245922
14348252452
14348261608
14348270763
14348276805
14348285717
14348290477
14348297985
14348304943
14348310314
14348314952
14348320873
14348326793
14348331615
14348336131
14348341808
14348348277
14348353343
14348361278
14348366405
14348372569
14348378307
14348383311
14348389781
14348397655
14348404491
14348411021
14348418101
14348426463
14348433238
14348439159
14348446788
14348452403
14348461558
14348468699
14348476939
14348485667
14348493907
14348499827
14348508250
14348514842
14348520091
14348531749
14348539683
14348548045
14348552867
14348561717
14348568675
14348577464
14348584117
14348590403
14348594676
14348602793
14348609385
14348614085
14348620555
14348626597
14348631968
14348639109
14348644663
14348651438
14348657298
14348662608
14348668528
14348675059
14348680125
14348686350
14348693430
14348696604
14348703379
14348709116
14348713755
14348719004
14348725535
14348733897
14348739756
14348746226
14348750620
14348756296
14348762339
14348767100
14348773630
14348779429
14348784800
14348790659
14348797068
14348803965
14348807077
14348813486
14348818308
14348826853
14348831491
14348837534
14348843821
14348850107
14348855173
14348862802
14348869699
14348875559
14348879465
14348888437
14348892832
14348900522
14348906076
14348914133
14348919748
14348928842
14348934030
14348938364
14348943186
14348949777
14348954355
14348960275
14348966196
14348971811
14348976450
14348981821
14348987619
14348993051
14348998239
14349004770
14349009958
14349018137
14349023508
14349028879
14349035043
14349040353
14349045175
14349051523
14349056894
14349063424
14349066903
14349073556
14349078317
14349084176
14349089792
14349098031
14349103402
14349109323
14349115243
14349122079
14349125375
14349132272
14349137399
14349142892
14349151254
14349156076
14349160897
14349167794
14349172860
14349179330
14349184640
14349189340
14349196603
14349201242
14349206063
14349212411
14349217050
14349222848
14349227731
14349234322
14349240243
14349247079
14349253365
14349257943
14349263802
14349269173
14349275277
14349281014
14349285897
14349292245
14349298775
14349303353
14349309273
14349315133
14349320199
14349325021
14349333382
14349340096
14349344979
14349348458
14349356698
14349360177
14349367623
14349373116
14349378975
14349383187
14349392342
14349396187
14349402718
14349409188
14349415047
14349419991
14349425789
14349431649
14349440438
14349447213
14349455330
14349461495
14349470406
14349478462
14349486641
14349493782
14349505013
14349511849
14349520088
14349527962
14349530647
14349542793
14349547920
14349558113
14349563301
14349574776
14349579842
14349590401
14349595772
14349607063
14349611763
14349621162
14349629768
14349637276
14349646370
14349652473
14349657417
14349663704
14349668709
14349674568
14349679817
14349686897
14349690315
14349697456
14349700935
14349708687
14349712471
14349720955
14349725288
14349732917
14349737678
14349743232
14349748115
14349754341
14349760017
14349767524
14349774848
14349781318
14349786567
14349791511
14349798103
14349802558
14349809516
14349816963
14349823249
14349828315
14349832588
14349838203
14349843757
14349849372
14349854743
14349861152
14349868903
14349871894
14349878181
14349882636
14349887946
14349892280
14349898627
14349905524
14349911567
14349916755
14349923041
14349927497
14349932990
14349937079
14349943976
14349950690
14349955390
14349961249
14349967292
14349972602
14349977424
14349982367
14349987189
14349994635
14349999640
14350007148
14350011603
14350017341
14350022895
14350027167
14350033759
14350039496
14350044257
14350050238
14350056098
14350060736
14350066596
14350070563
14350079169
14350085822
14350091437
14350098761
14350104254
14350110785
14350117255
14350122992
14350131598
14350137335
14350144171
14350149909
14350156012
14350161200
14350166632
14350172003
14350179083
14350185187
14350189764
14350196356
14350202765
14350207648
14350213507
14350218329
14350225104
14350231390
14350236517
14350243109
14350247687
14350252630
14350259955
14350265265
14350269903
14350277044
14350282293
14350288824
14350294378
14350299261
14350304449
14350311224
14350316778
14350321478
14350328375
14350333502
14350338690
14350344976
14350350225
14350356207
14350362249
14350366827
14350374761
14350381109
14350387091
14350392279
14350398443
14350403875
14350408697
14350414984
14350421026
14350427191
14350432134
14350438360
14350443304
14350448919
14350455206
14350460516
14350466131
14350473882
14350478704
14350484808
14350491216
14350495306
14350503179
14350508672
14350518499
14350528081
14350535528
14350540471
14350551092
14350558294
14350566167
14350572759
14350581914
14350589605
14350599370
14350606389
14350614263
14350620244
14350629583
14350636113
14350645024
14350651433
14350660710
14350666875
14350674932
14350680913
14350691045
14350697209
14350704595
14350711003
14350716008
14350721684
14350726933
14350731877
14350738286
14350745427
14350752324
14350758489
14350767033
14350772954
14350779790
14350784917
14350788518
14350796696
14350802739
14350808842
14350816045
14350821904
14350823735
14350831853
14350835148
14350842961
14350848881
14350853459
14350859318
14350864506
14350869511
14350876652
14350882206
14350888127
14350893132
14350898320
14350905461
14350911259
14350916447
14350921513
14350927555
14350933598
14350940007
14350945683
14350950566
14350955937
14350962406
14350966130
14350972660
14350977665
14350985661
14350990544
14350997563
14351003666
14351008854
14351015568
14351020634
14351026981
14351032292
14351036686
14351043949
14351048954
14351054936
14351060795
14351066349
14351070560
14351075443
14351083073
14351086857
14351094059
14351100468
14351106327
14351111759
14351117557
14351122135
14351128422
14351133488
14351140629
14351145267
14351152103
14351156620
14351162540
14351168827
14351174320
14351180240
14351183841
14351190738
14351194706
14351202579
14351208255
14351213932
14351219913
14351225895
14351230838
14351238407
14351243473
14351248966
14351255497
14351261966
14351266300
14351272281
14351278141
14351282047
14351289920
14351297672
14351302982
14351309024
14351315555
14351322513
14351327396
14351334415
14351339908
14351347904
14351353702
14351361209
14351367679
14351374026
14351378177
14351386661
14351393375
14351398624
14351404605
14351411624
14351416568
14351423221
14351428348
14351434390
14351439456
14351445743
14351452334
14351458438
14351463077
14351468936
14351474063
14351480655
14351485537
14351491336
14351496158
14351502505
14351507449
14351513980
14351519778
14351524783
14351530581
14351536502
14351541323
14351548037
14351555056
14351558596
14351566836
14351570193
14351576907
14351582400
14351588870
14351594851
14351603274
14351609927
14351617739
14351624209
14351632205
14351638308
14351646792
14351653933
14351663638
14351671572
14351678591
14351684695
14351689150
14351700869
14351705813
14351715578
14351722719
14351730471
14351737063
14351745058
14351753908
14351760500
14351766482
14351775576
14351782595
14351791323
14351797365
14351805178
14351809389
14351815187
14351820742
14351825624
14351831545
14351837404
14351842104
14351848024
14351853578
14351860414
14351865419
14351871950
14351876284
14351883608
14351888307
14351895510
14351901552
14351907350
14351911379
14351919374
14351924135
14351931093
14351936891
14351941164
14351944643
14351952211
14351956728
14351963441
14351968813
14351973756
14351979555
14351986330
14351992555
14351999025
14352006166
14352013307
14352021120
14352027894
14352033815
14352040590
14352047365
14352053712
14352059022
14352066530
14352071290
14352076417
14352081239
14352087037
14352093629
14352099366
14352104371
14352110780
14352115724
14352119325
14352127687
14352133180
14352138551
14352142335
14352150392
14352154176
14352162477
14352166200
14352173219
14352179200
14352185121
14352190370
14352196229
14352201173
14352208863
14352213929
14352220826
14352225709
14352231202
14352237855
14352244080
14352249146
14352253236
14352261842
14352266419
14352272645
14352279176
14352284364
14352289796
14352296815
14352301758
14352306885
14352313111
14352319092
14352324341
14352330750
14352335694
14352341858
14352347901
14352353577
14352360413
14352366578
14352373597
14352380005
14352384827
14352388550
14352396729
14352400574
14352408326
14352415650
14352420838
14352426758
14352432618
14352436097
14352442871
14352447876
14352455994
14352462830
14352471314
14352476807
14352483093
14352488709
14352494934
14352501831
14352508362
14352513794
14352520447
14352525757
14352531555
14352536621
14352542175
14352548401
14352554260
14352560913
14352567688
14352572632
14352579895
14352585449
14352591125
14352596191
14352603943
14352610229
14352619629
14352626037
14352633911
14352639099
14352646362
14352651733
14352658569
14352665588
14352672058
14352677246
14352683654
14352688293
14352696167
14352702392
14352709716
14352718933
14352727966
14352732421
14352741760
14352748779
14352755310
14352761413
14352769287
14352776123
14352785339
14352793029
14352800537
14352807800
14352816039
14352820800
14352831054
14352836730
14352847778
14352852660
14352863403
14352868102
14352878173
14352884887
14352889098
14352896117
14352902282
14352908691
14352912902
14352918517
14352924621
14352929259
14352936584
14352942260
14352946959
14352953429
14352958190
14352965697
14352968749
14352976806
14352983092
14352989379
14352994506
14352999755
14353004882
14353012755
14353019225
14353024291
14353030272
14353035460
14353042174
14353047057
14353053527
14353059264
14353065367
14353070861
14353078978
14353082457
14353089659
14353095824
14353100951
14353106078
14353113707
14353117857
14353125121
14353130187
14353136351
14353141539
14353148558
14353153563
14353159972
14353166380
14353173216
14353178282
14353185423
14353190550
14353196471
14353201414
14353207945
14353213377
14353221251
14353225035
14353232115
14353237791
14353244078
14353249998
14353258360
14353264769
14353272520
14353279356
14353284910
14353289976
14353296507
14353301817
14353308470
14353315672
14353320066
14353323118
14353330687
14353334776
14353342344
14353348448
14353352720
14353358763
14353364683
14353370115
14353375669
14353380674
14353386167
14353391783
14353397886
14353403196
14353407346
14353413572
14353419126
14353424680
14353428770
14353434446
14353440794
14353449155
14353454771
14353461118
14353465696
14353471616
14353478696
14353484251
14353490110
14353497983
14353503049
14353509336
14353515806
14353521299
14353525754
14353531736
14353538267
14353544736
14353551511
14353557065
14353561460
14353569211
14353573667
14353579404
14353586179
14353591977
14353596982
14353604062
14353608457
14353614560
14353619077
14353626584
14353631589
14353639341
14353644284
14353650632
14353655149
14353661374
14353667295
14353673825
14353679135
14353685971
14353692380
14353698789
14353703427
14353709958
14353715878
14353721249
14353726621
14353736142
14353743222
14353752255
14353761166
14353769101
14353775693
14353780637
14353792416
14353803647
14353810605
14353819821
14353827450
14353832211
14353842160
14353846860
14353859433
14353869504
14353876400
14353881283
14353893185
14353898251
14353908688
14353913571
14353924008
14353932858
14353941891
14353951229
14353955624
14353961788
14353967770
14353972531
14353978573
14353984738
14353991390
14353996823
14354001766
14354007565
14354012264
14354019100
14354025204
14354031246
14354036495
14354042233
14354048153
14354053585
14354058773
14354064449
14354072018
14354077206
14354083675
14354088985
14354094662
14354098019
14354104610
14354111324
14354117367
14354123348
14354127498
14354133541
14354139034
14354144405
14354152767
14354158870
14354164119
14354169857
14354175411
14354181575
14354187862
14354192806
14354196651
14354206783
14354214229
14354218502
14354225154
14354229732
14354235652
14354240169
14354247249
14354253902
14354259334
14354265132
14354269710
14354275203
14354282100
14354288509
14354295040
14354301509
14354306636
14354312557
14354317684
14354324580
14354331599
14354338130
14354339961
14354349971
14354356075
14354362178
14354368098
14354376277
14354383174
14354389033
14354394954
14354401790
14354407161
14354412471
14354419124
14354424983
14354432063
14354435908
14354443721
14354447627
14354457942
14354462703
14354473018
14354478816
14354488582
14354497065
14354504145
14354511348
14354516963
14354522578
14354528315
14354534663
14354539546
14354546748
14354552607
14354557185
14354563105
14354568598
14354574031
14354579463
14354584345
14354590937
14354595820
14354602473
14354607478
14354613947
14354621455
14354626032
14354632563
14354637995
14354643427
14354649348
14354653925
14354659907
14354666804
14354672114
14354675471
14354683405
14354689631
14354694147
14354697871
14354707514
14354714045
14354720453
14354725947
14354731806
14354736689
14354744501
14354751642
14354757074
14354764887
14354769648
14354773249
14354780939
14354788019
14354793879
14354801508
14354809137
14354817377
14354823236
14354832392
14354838251
14354846430
14354854059
14354860407
14354868158
14354877130
14354883966
14354892877
14354899103
14354906610
14354913324
14354922601
14354930475
14354940546
14354945856
14354956354
14354963251
14354971307
14354978021
14354985162
14354991937
14354997919
14355003473
14355009149
14355015253
14355020807
14355027093
14355033868
14355039544
14355044793
14355051874
14355054864
14355062311
14355065912
14355074334
14355081781
14355088433
14355096917
14355103021
14355110284
14355115960
14355124627
14355128411
14355137139
14355141595
14355149224
14355154717
14355159295
14355164300
14355170098
14355177423
14355183343
14355187127
14355193780
14355197259
14355205316
14355212151
14355219048
14355225152
14355230950
14355237847
14355244805
14355251214
14355258477
14355263299
14355271294
14355276299
14355283074
14355288140
14355294366
14355299248
14355303948
14355309930
14355314751
14355320977
14355326470
14355333489
14355339348
14355344475
14355349480
14355355889
14355361748
14355367608
14355371270
14355377861
14355381585
14355391106
14355399285
14355404107
14355410942
14355418084
14355423088
14355429497
14355438347
14355442925
14355449333
14355455864
14355463555
14355469170
14355474907
14355478386
14355485100
14355490227
14355495171
14355503410
14355511223
14355518120
14355523674
14355529472
14355534966
14355541679
14355546806
14355552422
14355558220
14355563652
14355568230
14355574211
14355579887
14355584953
14355590752
14355597160
14355601921
14355608330
14355613518
14355618461
14355622978
14355630852
14355636528
14355642448
14355647575
14355651664
14355656913
14355663505
14355669975
14355676872
14355682975
14355689323
14355695366
14355700981
14355707206
14355711540
14355718315
14355722953
14355729057
14355733390
14355739677
14355742485
14355749015
14355753166
14355759635
14355766227
14355771232
14355775566
14355780448
14355786125
14355789848
14355795646
14355803825
14355810600
14355816520
14355825187
14355833366
14355839652
14355847831
14355853751
14355862174
14355869498
14355875663
14355885490
14355891837
14355898429
14355904471
14355912101
14355922172
14355929496
14355933951
14355942496
14355948661
14355957755
14355963858
14355970694
14355981070
14355987601
14355992362
14356002066
14356006888
14356012686
14356018973
14356025992
14356031424
14356036673
14356043204
14356048819
14356054312
14356057669
14356065360
14356070853
14356077078
14356082083
14356087637
14356094107
14356098319
14356104544
14356110831
14356119254
14356122794
14356129385
14356135428
14356140799
14356144278
14356152579
14356158682
14356164847
14356171133
14356176932
14356181876
14356186819
14356193411
14356198721
14356205618
14356211050
14356216726
14356222220
14356227896
14356233511
14356238028
14356244497
14356250113
14356257681
14356265005
14356272696
14356278494
14356287100
14356291372
14356299429
14356303640
14356311392
14356317556
14356323965
14356330313
14356335379
14356343130
14356348013
14356355154
14356359976
14356363882
14356372061
14356377554
14356384329
14356389272
14356395132
14356400198
14356406362
14356412222
14356418691
14356424062
14356430410
14356437002
14356442373
14356449636
14356454397
14356460256
14356466299
14356471853
14356478384
14356484365
14356489553
14356495595
14356501760
14356508291
14356513906
14356520009
14356526540
14356532216
14356538442
14356543691
14356548452
14356554372
14356560598
14356566091
14356573598
14356580251
14356587026
14356593129
14356597768
14356603688
14356610219
14356614064
14356621694
14356627553
14356634389
14356639882
14356646535
14356653127
14356658071
14356664418
14356672536
14356677663
14356682546
14356689565
14356693105
14356700673
14356706654
14356711720
14356719472
14356724294
14356730641
14356736623
14356743398
14356749135
14356755788
14356764271
14356770131
14356773732
14356779957
14356785268
14356792592
14356796376
14356802601
14356809376
14356815968
14356819996
14356827443
14356831410
14356841481
14356847645
14356860890
14356866627
14356877308
14356888295
14356895375
14356901417
14356912831
14356918080
14356926869
14356934864
14356942982
14356950428
14356960804
14356966114
14356975758
14356982777
14356990833
14356998585
14357005421
14357014210
14357021412
14357028370
14357036915
14357044056
14357051685
14357058887
14357065662
14357069508
14357077137
14357083301
14357087940
14357094593
14357100025
14357106067
14357112415
14357117054
14357123157
14357128528
14357133594
14357141102
14357148670
14357154773
14357159778
14357165394
14357170948
14357175647
14357185352
14357190967
14357198841
14357206104
14357212513
14357217517
14357225879
14357229602
14357237659
14357243396
14357251392
14357257129
14357263904
14357268482
14357275379
14357280750
14357287647
14357295764
14357306873
14357316211
14357326709
14357335620
14357345874
14357357654
14357366870
14357372302
14357376269
14357384692
14357390002
14357397204
14357401721
14357410022
14357415515
14357421130
14357429309
14357434985
14357439441
14357445361
14357451953
14357454150
14357462024
14357465869
14357473437
14357480090
14357485888
14357491381
14357496814
14357503588
14357508410
14357513598
14357519091
14357524340
14357532031
14357539904
14357547167
14357553027
14357562182
14357570788
14357577746
14357585864
14357588976
14357597888
14357603991
14357609667
14357614306
14357620470
14357627001
14357631823
14357638476
14357644213
14357650072
14357655199
14357662218
14357668078
14357673937
14357679796
14357684618
14357691027
14357697069
14357701586
14357707751
14357713610
14357718859
14357725268
14357732409
14357737841
14357744677
14357749926
14357756517
14357761522
14357768847
14357773668
14357780077
14357786364
14357792162
14357799059
14357806261
14357811510
14357816820
14357824022
14357829088
14357835192
14357841112
14357846361
14357854051
14357858934
14357862474
14357871629
14357878282
14357883043
14357890245
14357895372
14357902513
14357908556
14357915086
14357919603
14357926012
14357932909
14357938463
14357946825
14357953111
14357960619
14357967088
14357975389
14357982957
14357990953
14357998582
14358004991
14358009813
14358022203
14358030259
14358036851
14358046312
14358054368
14358061143
14358069688
14358078050
14358086412
14358093980
14358101792
14358108750
14358117540
14358120469
14358133348
14358142808
14358150987
14358159410
14358163865
14358169908
14358177110
14358182969
14358190110
14358197068
14358204514
14358210679
14358217576
14358219956
14358228623
14358234299
14358241380
14358247056
14358251633
14358257432
14358262925
14358268479
14358274338
14358278916
14358285081
14358290330
14358294968
14358300950
14358306870
14358311875
14358318101
14358324143
14358330735
14358336655
14358343308
14358348984
14358354050
14358360276
14358364609
14358370591
14358377304
14358382737
14358389511
14358394822
14358399277
14358406540
14358411606
14358419236
14358424912
14358431015
14358437485
14358442185
14358448593
14358453354
14358459763
14358465439
14358470505
14358477585
14358484299
14358490891
14358496506
14358503647
14358507614
14358517197
14358522751
14358528549
14358534286
14358540329
14358546677
14358551254
14358557663
14358564499
14358570969
14358577438
14358583114
14358587692
14358594711
14358599716
14358603439
14358612777
14358620529
14358627304
14358632736
14358639938
14358644455
14358653305
14358657028
14358664352
14358672653
14358679062
14358682663
14358689804
14358694870
14358701522
14358706344
14358711898
14358719589
14358724594
14358729476
14358735397
14358740402
14358747238
14358752181
14358757919
14358765304
14358772994
14358777633
14358787216
14358793380
14358800155
14358805648
14358812850
14358819198
14358826278
14358831283
14358838973
14358844283
14358849776
14358853011
14358861434
14358867599
14358873519
14358877486
14358884200
14358889510
14358894942
14358900191
14358905868
14358911910
14358917220
14358922408
14358926680
14358933272
14358937484
14358943770
14358950301
14358956710
14358963057
14358967696
14358973861
14358978499
14358984542
14358990157
14358995345
14359002791
14359007552
14359012252
14359018294
14359024947
14359031783
14359040328
14359047103
14359057601
14359064498
14359071944
14359079024
14359086409
14359093245
14359101973
14359110823
14359119124
14359125960
14359133955
14359141463
14359147566
14359155806
14359165266
14359170515
14359182112
14359188826
14359196821
14359204939
14359210859
14359218550
14359224287
14359231917
14359238569
14359244734
14359249006
14359254683
14359260481
14359265425
14359272200
14359279097
14359282454
14359290388
14359296003
14359301619
14359306196
14359311933
14359318281
14359325056
14359330061
14359335981
14359340559
14359346601
14359352827
14359357038
14359366071
14359371076
14359376936
14359381208
14359387190
14359393903
14359402143
14359410810
14359415754
14359421247
14359426740
14359433942
14359440168
14359444990
14359454938
14359460676
14359465620
14359470746
14359476850
14359481733
14359487775
14359493329
14359498578
14359505414
14359510053
14359515851
14359521222
14359526227
14359536603
14359543683
14359550214
14359556012
14359557904
14359565961
14359569318
14359576703
14359580121
14359588117
14359593915
14359598249
14359601544
14359608991
14359612348
14359620465
14359625409
14359632916
14359638104
14359644269
14359649640
14359655866
14359658002
14359666730
14359671613
14359678693
14359684735
14359691388
14359698651
14359704816
14359710004
14359716107
14359721539
14359728314
14359734845
14359740155
14359744122
14359753583
14359755719
14359764935
14359771710
14359777020
14359781659
14359790204
14359797772
14359804425
14359810223
14359817303
14359819684
14359829571
14359833844
14359842633
14359848187
14359854351
14359857708
14359865826
14359871807
14359876568
14359881695
14359890240
14359895977
14359902020
14359905682
14359913677
14359917401
14359924786
14359931866
14359936688
14359943646
14359948162
14359954754
14359959149
14359964092
14359971661
14359978863
14359984966
14359989666
14359997723
14360005169
14360012310
14360017132
14360026104
14360033733
14360040264
14360045757
14360051983
14360057415
14360063152
14360067913
14360073833
14360079998
14360088238
14360094707
14360102703
14360109722
14360115459
14360123638
14360132366
14360140484
14360146892
14360154338
14360160564
14360168865
14360175273
14360183757
14360190715
14360198589
14360204692
14360213848
14360220867
14360227397
14360234050
14360244914
14360250774
14360261821
14360269512
14360287029
14360292339
14360301067
14360307964
14360313335
14360320964
14360326518
14360333781
14360337993
14360347087
14360353252
14360358317
14360365398
14360368938
14360376201
14360381511
14360387797
14360394084
14360400371
14360405620
14360409709
14360415568
14360419597
14360425578
14360431804
14360436320
14360442729
14360448161
14360453898
14360458293
14360464030
14360467997
14360472941
14360485392
14360491130
14360496318
14360501506
14360507365
14360513713
14360518656
14360524027
14360531657
14360537394
14360542338
14360546977
14360553813
14360558756
14360565531
14360571879
14360576945
14360583659
14360589335
14360594706
14360601176
14360606181
14360611796
14360617533
14360628214
14360633952
14360640971
14360651469
14360658610
14360664530
14360670145
14360676005
14360681498
14360686259
14360691691
14360696634
14360701456
14360705729
14360712198
14360717631
14360722513
14360726786
14360732828
14360737101
14360742533
14360747660
14360753214
14360755777
14360764383
14360768229
14360776041
14360781046
14360790567
14360796488
14360803018
14360808267
14360813822
14360817057
14360823404
14360829202
14360833719
14360838663
14360849710
14360857401
14360863199
14360868692
14360874307
14360879495
14360884805
14360890237
14360895731
14360902750
14360909036
14360914835
14360919473
14360924966
14360929666
14360935220
14360941873
14360948831
14360952371
14360960000
14360964151
14360972024
14360978738
14360983865
14360991861
14360999185
14361005349
14361011392
14361015054
14361021768
14361027932
14361032876
14361039895
14361044595
14361050515
14361056436
14361060220
14361067117
14361073220
14361077859
14361083352
14361092324
14361097146
14361101846
14361108743
14361115457
14361121072
14361129678
14361134988
14361145120
14361151467
14361159646
14361164468
14361173989
14361178994
14361188210
14361197976
14361208108
14361213357
14361225014
14361232522
14361239358
14361245156
14361255349
14361269326
14361278481
14361287209
14361294472
14361303567
14361310830
14361319497
14361327004
14361332802
14361339150
14361343422
14361349160
14361353859
14361360146
14361367226
14361373330
14361380043
14361384682
14361393593
14361399758
14361405190
14361411354
14361416603
14361422524
14361427834
14361432778
14361437477
14361444679
14361449623
14361455361
14361462807
14361470314
14361476112
14361480995
14361484169
14361492958
14361500160
14361507851
14361512856
14361518837
14361522133
14361529396
14361533485
14361540443
14361547096
14361551979
14361559730
14361566322
14361571327
14361577247
14361582619
14361588966
14361592384
14361599891
14361603737
14361611549
14361617408
14361622291
14361627540
14361633949
14361640968
14361645729
14361653053
14361658546
14361663063
14361668800
14361675087
14361681007
14361685462
14361692359
14361698341
14361705177
14361712135
14361717567
14361724098
14361728309
14361735694
14361741187
14361747779
14361754432
14361761634
14361767433
14361773963
14361780433
14361787147
14361792518
14361799171
14361804298
14361814124
14361819801
14361826209
14361832008
14361837562
14361843421
14361848304
14361856605
14361865760
14361870032
14361875770
14361883277
14361891089
14361896522
14361905066
14361910560
14361916907
14361922034
14361927527
14361932593
14361939002
14361944800
14361950415
14361953955
14361959693
14361964942
14361971106
14361976599
14361983130
14361988135
14361993445
14361998267
14362004920
14362011450
14362017981
14362023352
14362028662
14362033972
14362040259
14362046301
14362051672
14362057532
14362065711
14362070410
14362074439
14362082800
14362086707
14362094214
14362099646
14362106116
14362113806
14362122290
14362128638
14362134619
14362139258
14362145239
14362149756
14362156103
14362161963
14362169165
14362175818
14362181372
14362187292
14362192297
14362198401
14362202124
14362208288
14362214941
14362222937
14362227636
14362237646
14362244787
14362252417
14362258947
14362265295
14362275610
14362283361
14362290014
14362297827
14362306066
14362313574
14362321386
14362327551
14362336218
14362345739
14362352331
14362360754
14362368627
14362375341
14362383276
14362388219
14362397192
14362405370
14362416051
14362420629
14362430578
14362436986
14362441503
14362447240
14362453954
14362461400
14362467870
14362469884
14362478917
14362483861
14362489965
14362495458
14362501867
14362508397
14362513463
14362519933
14362525792
14362534703
14362541539
14362547399
14362553502
14362560888
14362566930
14362575109
14362580968
14362588414
14362593297
14362598729
14362603307
14362608617
14362614659
14362620397
14362626317
14362631139
14362636632
14362641515
14362647435
14362652745
14362660314
14362664769
14362671910
14362676549
14362682652
14362687779
14362694798
14362701451
14362706700
14362713719
14362717625
14362724522
14362730992
14362736607
14362741978
14362747410
14362753697
14362761632
14362765782
14362773472
14362779759
14362785435
14362790562
14362795628
14362802708
14362807469
14362814671
14362821385
14362826390
14362830113
14362837681
14362841710
14362848423
14362854100
14362859898
14362865757
14362873020
14362878453
14362883702
14362888951
14362895420
14362900364
14362907139
14362912266
14362915928
14362923252
14362929844
14362936009
14362940037
14362946629
14362952671
14362959568
14362965000
14362970493
14362976231
14362982639
14362988316
14363000401
14363007420
14363015903
14363022434
14363028355
14363033176
14363039768
14363046421
14363051792
14363058445
14363065098
14363071567
14363076938
14363081943
14363088474
14363095554
14363099338
14363107029
14363112766
14363119114
14363125461
14363132114
14363137546
14363143222
14363150791
14363158725
14363166782
14363174778
14363180759
14363186435
14363191318
14363198459
14363204257
14363209873
14363216587
14363223300
14363228427
14363234714
14363239108
14363244357
14363248935
14363255161
14363260410
14363266818
14363271213
14363276828
14363281528
14363286838
14363294101
14363297702
14363304172
14363310336
14363315524
14363322238
14363332309
14363339694
14363350802
14363357150
14363370883
14363378024
14363386691
14363394626
14363402560
14363417514
14363425448
14363434604
14363444003
14363453219
14363463107
14363470492
14363478793
14363486605
14363494235
14363502169
14363508822
14363518527
14363526705
14363535677
14363543368
14363552584
14363560458
14363569125
14363576876
14363584689
14363593295
14363601046
14363609103
14363618502
14363625643
14363633517
14363641512
14363647066
14363658236
14363663546
14363674166
14363683504
14363689791
14363698092
14363706331
14363711336
14363720980
14363729586
14363738131
14363745882
14363754305
14363761995
14363770601
14363779390
14363786104
14363794893
14363805330
14363813448
14363820589
14363830416
14363837373
14363847872
14363855745
14363865022
14363873018
14363882234
14363890230
14363901643
14363909517
14363924715
14363931917
14363940401
14363951143
14363956575
14363967134
14363975679
14363981904
14363990510
14363998750
14364007295
14364016328
14364024690
14364032563
14364043061
14364049836
14364057405
14364065889
14364072908
14364082002
14364089631
14364098237
14364108369
14364118318
14364125947
14364133271
14364141023
14364148774
14364156526
14364163728
14364172395
14364180329
14364188813
14364197114
14364204560
14364211823
14364219514
14364227692
14364236054
14364245087
14364252289
14364261567
14364269379
14364275788
14364283722
14364292084
14364300629
14364309113
14364315217
14364325470
14364331757
14364341767
14364347870
14364355988
14364364838
14364372040
14364380646
14364387238
14364395478
14364402558
14364411530
14364418549
14364427094
14364435028
14364444550
14364451996
14364459625
14364467560
14364475678
14364483673
14364491608
14364499847
14364507477
14364515350
14364523590
14364529632
14364539154
14364547821
14364556427
14364563019
14364572784
14364579254
14364588104
14364594574
14364603363
14364608917
14364618072
14364624908
14364628997
14364633514
14364638214
14364643524
14364652557
14364656097
14364662078
14364666839
14364671905
14364676727
14364683563
14364690643
14364696197
14364701507
14364706024
14364712493
14364717010
14364722930
14364727813
14364733734
14364739288
14364744476
14364748626
14364753265
14364757171
14364761993
14364766570
14364771209
14364775359
14364780669
14364784881
14364790496
14364793426
14364800323
14364804229
14364809661
14364814788
14364818511
14364823089
14364827849
14364833160
14364837676
14364843658
14364849212
14364854644
14364858977
14364865142
14364871123
14364876433
14364881682
14364886809
14364891387
14364897796
14364903350
14364908965
14364914153
14364918364
14364923308
14364929412
14364935210
14364942168
14364947356
14364953582
14364958403
14364963774
14364969634
14364975188
14364979888
14364984709
14364989287
14364995146
14365000273
14365005217
14365015105
14365020110
14365026030
14365030242
14365036711
14365041167
14365046538
14365052031
14365058073
14365062834
14365069182
14365072539
14365079131
14365082671
14365088652
14365095000
14365100310
14365104033
14365111723
14365115324
14365121550
14365126616
14365132414
14365136503
14365144194
14365147856
14365156157
14365159880
14365168913
14365173369
14365181486
14365190275
14365195097
14365201445
14365207853
14365213896
14365219023
14365225309
14365230070
14365235807
14365241545
14365247038
14365251249
14365258207
14365263456
14365269987
14365274687
14365280546
14365284696
14365290800
14365295805
14365302824
14365307585
14365312773
14365318876
14365324796
14365330473
14365332609
14365341947
14365345609
14365352812
14365356352
14365363187
14365366911
14365374479
14365378507
14365386747
14365390287
14365398161
14365402311
14365409879
14365413847
14365421171
14365427274
14365433744
14365438993
14365443571
14365449918
14365454740
14365460660
14365467557
14365473722
14365478422
14365483732
14365487760
14365497159
14365501920
14365510892
14365515775
14365522428
14365526456
14365535306
14365539884
14365547635
14365553006
14365558683
14365565457
14365573148
14365576993
14365584256
14365589627
14365595243
14365600431
14365606473
14365615262
14365620877
14365626065
14365633328
14365637906
14365644864
14365650723
14365656155
14365662686
14365667386
14365673428
14365678433
14365683987
14365691556
14365696439
14365700711
14365708585
14365714139
14365719510
14365724881
14365731900
14365737637
14365743924
14365748562
14365755704
14365763455
14365769436
14365777310
14365784329
14365790616
14365798184
14365802151
14365811428
14365819119
14365825222
14365831143
14365836331
14365842129
14365847561
14365853604
14365861965
14365866543
14365870877
14365877468
14365882168
14365888699
14365894192
14365899868
14365906155
14365911709
14365917263
14365923672
14365928616
14365934414
14365940884
14365946255
14365953396
14365959072
14365965359
14365971096
14365977444
14365982937
14365989284
14365994045
14365999783
14366007229
14366012966
14366019375
14366024074
14366029446
14366036770
14366042202
14366047634
14366053676
14366059170
14366064113
14366072048
14366077663
14366084926
14366089931
14366095791
14366101406
14366108730
14366114284
14366123500
14366130214
14366134365
14366143703
14366150295
14366157436
14366162685
14366167507
14366175075
14366182826
14366188564
14366193935
14366199916
14366207057
14366213832
14366219570
14366224086
14366230739
14366235133
14366239345
14366246791
14366252895
14366260463
14366266322
14366271144
14366276759
14366281764
14366287135
14366296474
14366302272
14366306056
14366313624
14366318507
14366324367
14366330165
14366335414
14366342433
14366348170
14366356044
14366364100
14366374293
14366382167
14366385463
14366402369
14366410853
14366422633
14366428187
14366440638
14366448329
14366451503
14366464991
14366467738
14366480006
14366486354
14366495997
14366503077
14366510462
14366516993
14366522669
14366530421
14366536524
14366541895
14366549403
14366554469
14366561427
14366565516
14366571864
14366576380
14366583216
14366587794
14366595484
14366600916
14366606592
14366611231
14366617335
14366623194
14366628321
14366634547
14366640528
14366647425
14366652979
14366657557
14366664454
14366669092
14366676355
14366681299
14366688135
14366693079
14366699488
14366705591
14366711512
14366715967
14366722010
14366728296
14366735620
14366740747
14366748011
14366752649
14366758997
14366763697
14366771021
14366777185
14366785059
14366789881
14366795740
14366801782
14366807520
14366813867
14366818506
14366824976
14366831323
14366836328
14366842981
14366847803
14366854273
14366857507
14366864465
14366872766
14366878809
14366884424
14366888757
14366894678
14366901025
14366905969
14366911584
14366919824
14366923547
14366930627
14366936181
14366942407
14366948633
14366953515
14366959619
14366966211
14366971948
14366976709
14366983606
14366987329
14366994958
14367000879
14367012048
14367018457
14367028161
14367032190
14367040551
14367048486
14367053613
14367062097
14367069604
14367074609
14367080163
14367085534
14367091210
14367097253
14367105065
14367112084
14367116967
14367123742
14367128198
14367134240
14367140344
14367145654
14367151940
14367157861
14367164513
14367169701
14367175744
14367180688
14367186425
14367192651
14367197167
14367204613
14367211083
14367213280
14367221520
14367228112
14367232506
14367238488
14367244897
14367251854
14367256493
14367263146
14367267846
14367274743
14367281823
14367287804
14367294762
14367303002
14367308251
14367312401
14367320763
14367328026
14367333397
14367341027
14367347863
14367353478
14367359642
14367365380
14367371605
14367377770
14367382408
14367388878
14367393639
14367400841
14367407982
14367413048
14367418907
14367425255
14367431114
14367436424
14367441429
14367449364
14367455956
14367461388
14367467491
14367473595
14367478050
14367484520
14367490868
14367496178
14367502891
14367508751
14367515404
14367519188
14367526878
14367532677
14367539146
14367543358
14367551292
14367554710
14367562828
14367569420
14367574241
14367580772
14367585350
14367593101
14367598167
14367604820
14367609520
14367617454
14367622581
14367628074
14367637046
14367644615
14367651756
14367658103
14367664390
14367670188
14367676597
14367682151
14367686607
14367693870
14367700157
14367705345
14367709556
14367716575
14367720908
14367726768
14367733177
14367738975
14367745017
14367751304
14367758567
14367764854
14367769798
14367775596
14367784019
14367788901
14367794334
14367800254
14367805015
14367811484
14367814719
14367822471
14367829185
14367835166
14367840720
14367846396
14367851523
14367857261
14367862266
14367868613
14367874473
14367880332
14367885764
14367891929
14367897239
14367903220
14367908286
14367914511
14367922019
14367926657
14367933371
14367938132
14367944297
14367950339
14367953940
14367962241
14367968589
14367975058
14367981040
14367985495
14367992209
14367996848
14368003134
14368007712
14368013205
14368021567
14368025046
14368033469
14368037131
14368045065
14368051047
14368057639
14368063681
14368070212
14368075583
14368081381
14368085959
14368092123
14368095908
14368104452
14368108420
14368116171
14368122336
14368128256
14368131857
14368139120
14368142416
14368150534
14368158713
14368163473
14368166952
14368175619
14368181784
14368186422
14368192160
14368198385
14368206686
14368214315
14368221273
14368226461
14368233358
14368240805
14368248434
14368254721
14368263754
14368269735
14368275656
14368281332
14368287069
14368291342
14368296835
14368303549
14368310385
14368314779
14368320944
14368326864
14368333028
14368337728
14368344442
14368349447
14368355672
14368362386
14368368673
14368373251
14368378622
14368384481
14368391134
14368396078
14368403890
14368410299
14368415365
14368421407
14368427572
14368432210
14368438558
14368445028
14368452047
14368456746
14368463277
14368468099
14368474630
14368480550
14368485128
14368493306
14368499410
14368505941
14368511617
14368517598
14368523336
14368528218
14368531697
14368540120
14368547567
14368553914
14368560018
14368564595
14368568196
14368576070
14368579549
14368588155
14368594991
14368599690
14368603047
14368612019
14368615498
14368623921
14368627644
14368636189
14368641866
14368648213
14368654195
14368658650
14368665242
14368671162
14368676228
14368682759
14368689290
14368694173
14368701314
14368705830
14368712117
14368718281
14368721760
14368729268
14368734028
14368743306
14368745381
14368753804
14368757222
14368765461
14368771199
14368775654
14368782002
14368788777
14368792378
14368799214
14368804829
14368813679
14368817524
14368828511
14368833515
14368843281
14368849995
14368857319
14368863789
14368871113
14368876911
14368881245
14368888874
14368893879
14368899922
14368905781
14368911274
14368917378
14368923481
14368928608
14368934956
14368941547
14368947285
14368953327
14368957905
14368963886
14368970051
14368976337
14368981831
14368988300
14368993977
14369000080
14369006367
14369011310
14369016620
14369022968
14369029621
14369034809
14369042011
14369046589
14369052631
14369058429
14369063740
14369070881
14369077839
14369082538
14369088581
14369094745
14369096698
14369105732
14369111225
14369117511
14369123737
14369130146
14369136005
14369142169
14369148090
14369152729
14369158832
14369163471
14369171405
14369177753
14369183368
14369187824
14369193500
14369199481
14369202838
14369211627
14369218402
14369223407
14369230365
14369236713
14369241412
14369247577
14369253802
14369260394
14369266925
14369271930
14369278644
14369283221
14369289081
14369295428
14369298846
14369307941
14369311847
14369320148
14369323810
14369331622
14369335162
14369342181
14369345538
14369354083
14369362506
14369367572
14369373736
14369379840
14369383441
14369390521
14369394061
14369402728
14369412799
14369420001
14369426409
14369433123
14369440142
14369445819
14369452655
14369458514
14369466448
14369474566
14369480486
14369485003
14369492327
14369496844
14369503436
14369510211
14369515399
14369521990
14369527911
14369533892
14369539935
14369544390
14369550372
14369556536
14369562823
14369567828
14369573809
14369579607
14369585772
14369590472
14369596392
14369602862
14369610247
14369615862
14369622454
14369626909
14369632586
14369638689
14369645159
14369649920
14369658098
14369664507
14369670061
14369676104
14369680681
14369686724
14369690203
14369698565
14369702837
14369710833
14369714312
14369722368
14369728289
14369734575
14369738298
14369745867
14369751604
14369759600
14369763079
14369771501
14369775041
14369783281
14369786943
14369796282
14369802141
14369810625
14369817888
14369825456
14369831682
14369839189
14369845476
14369851030
14369857317
14369862688
14369866960
14369872148
14369876665
14369881914
14369886919
14369893205
14369899187
14369904375
14369908830
14369915239
14369919755
14369924821
14369932145
14369937272
14369942644
14369948259
14369953508
14369957719
14369963701
14369970781
14369977067
14369982499
14369988237
14369994462
14370001481
14370008317
14370015275
14370021867
14370026872
14370033342
14370040727
14370045854
14370051591
14370057084
14370061296
14370067643
14370070390
14370077531
14370081620
14370086686
14370091630
14370097489
14370104264
14370109452
14370115250
14370120927
14370126481
14370132157
14370137589
14370144547
14370149796
14370155900
14370160966
14370165665
14370171586
14370175431
14370181534
14370188370
14370193986
14370200333
14370205948
14370210770
14370216019
14370222550
14370227982
14370233658
14370241654
14370246537
14370252884
14370259415
14370264420
14370271500
14370276993
14370281998
14370288407
14370294999
14370300553
14370305252
14370310990
14370316971
14370323929
14370330155
14370337357
14370343338
14370349686
14370354386
14370360672
14370367264
14370372452
14370378555
14370385391
14370390335
14370395584
14370401505
14370407547
14370413773
14370418717
14370425003
14370431473
14370438004
14370443436
14370449417
14370455154
14370459549
14370466446
14370472427
14370479568
14370486404
14370491470
14370497940
14370503738
14370507950
14370514602
14370521805
14370529251
14370534317
14370541458
14370548660
14370555069
14370562149
14370567642
14370576126
14370581497
14370590286
14370597732
14370604934
14370610488
14370617141
14370623489
14370629776
14370635696
14370641860
14370647842
14370654129
14370658279
14370667251
14370672317
14370679275
14370684524
14370691116
14370694839
14370703201
14370707229
14370715896
14370720107
14370727798
14370731826
14370739455
14370745925
14370752578
14370756667
14370763198
14370770766
14370777602
14370782973
14370790969
14370796767
14370803359
14370810744
14370816054
14370823440
14370830642
14370834731
14370842421
14370848403
14370854628
14370859450
14370867019
14370872573
14370880202
14370885451
14370893996
14370899367
14370905776
14370912246
14370918349
14370923415
14370931411
14370936476
14370940444
14370949416
14370953444
14370961501
14370967665
14370973342
14370980177
14370985365
14370990920
14370996779
14371003493
14371008620
14371014052
14371019911
14371025649
14371034438
14371040358
14371046584
14371052443
14371059767
14371066481
14371072340
14371077650
14371084669
14371089918
14371093581
14371102553
14371106337
14371113722
14371117995
14371125258
14371133009
14371139540
14371145155
14371151808
14371157240
14371163954
14371169691
14371175428
14371182753
14371189405
14371194532
14371200453
14371205336
14371212599
14371218702
14371226637
14371232435
14371240187
14371245680
14371249525
14371258497
14371263197
14371273023
14371277479
14371284254
14371290357
14371297376
14371303114
14371309522
14371315260
14371321851
14371326551
14371332716
14371338575
14371345472
14371351759
14371357313
14371362257
14371369642
14371374830
14371378614
14371386060
14371391859
14371401380
14371406690
14371411268
14371418653
14371425001
14371430555
14371435621
14371441480
14371449109
14371455335
14371462476
14371467115
14371472974
14371478711
14371482618
14371489759
14371496839
14371502515
14371508252
14371515210
14371518872
14371526258
14371531690
14371536939
14371541577
14371548535
14371553906
14371560681
14371567517
14371573682
14371578626
14371586255
14371593213
14371599927
14371605420
14371611646
14371616650
14371622449
14371629834
14371635144
14371641187
14371646313
14371653760
14371659253
14371665417
14371670056
14371673596
14371682080
14371686230
14371694165
14371701062
14371706738
14371710827
14371718152
14371721631
14371727917
14371733044
14371740674
14371745373
14371755139
14371759839
14371766064
14371770092
14371778698
14371782360
14371789441
14371793896
14371801892
14371805493
14371813916
14371817700
14371824414
14371828320
14371836437
14371847180
14371852307
14371860913
14371867382
14371873303
14371878124
14371885021
14371890942
14371899365
14371904186
14371911694
14371917065
14371922985
14371929760
14371934826
14371941235
14371947521
14371952404
14371958752
14371963573
14371970043
14371975719
14371982128
14371987133
14371991039
14371998669
14372003368
14372011425
14372015331
14372021496
14372026317
14372034557
14372041088
14372048046
14372052746
14372059093
14372063976
14372070202
14372075023
14372082531
14372088085
14372094188
14372101268
14372105358
14372115062
14372118663
14372126293
14372130504
14372138378
14372143932
14372150890
14372157726
14372164256
14372169200
14372177013
14372182384
14372189037
14372194103
14372200206
14372206737
14372212413
14372219127
14372223155
14372229625
14372235789
14372243175
14372248729
14372254527
14372260142
14372267161
14372271983
14372279002
14372284556
14372291820
14372298961
14372305003
14372310008
14372316417
14372323375
14372327159
14372334117
14372339671
14372347361
14372353770
14372360484
14372366038
14372373118
14372378672
14372385020
14372392161
14372398265
14372404979
14372409983
14372416575
14372422007
14372428782
14372432688
14372440074
14372446177
14372453135
14372459605
14372464854
14372472788
14372479258
14372484446
14372489573
14372496226
14372504588
14372510996
14372519358
14372523936
14372530894
14372539378
14372544627
14372550669
14372556040
14372562754
14372568796
14372575388
14372578806
14372586741
14372590281
14372597483
14372603953
14372610483
14372614512
14372621470
14372627451
14372634531
14372639841
14372645456
14372650522
14372656809
14372662729
14372669931
14372676279
14372681711
14372686533
14372692575
14372699961
14372705027
14372709909
14372716013
14372720896
14372727182
14372732431
14372738779
14372744638
14372749765
14372755930
14372762461
14372769174
14372774484
14372779245
14372784494
14372791879
14372796762
14372803171
14372808603
14372815622
14372820688
14372827707
14372832651
14372838388
14372845041
14372852426
14372857431
14372864267
14372870126
14372875070
14372881967
14372888559
14372893686
14372900278
