14213851612
14213857655
14213864125
14213869618
14213874745
14213880299
14213886158
14213891407
14213897389
14213902699
14213908680
14213913990
14213920521
14213925892
14213931080
14213935963
14213942188
14213948292
14213955311
14213960926
14213967274
14213972034
14213978199
14213986073
14213992847
14214000355
14214007130
14214014149
14214020252
14214027332
14214034473
14214039478
14214046436
14214054554
14214061024
14214068775
14214075611
14214080555
14214087147
14214094837
14214100025
14214106434
14214115223
14214123523
14214131946
14214136829
14214145191
14214150684
14214157337
14214162525
14214169361
14214174671
14214180530
14214187244
14214192615
14214199939
14214206043
14214212573
14214218921
14214224170
14214230090
14214236560
14214244251
14214250354
14214256336
14214266162
14214272693
14214280078
14214283923
14214289844
14214295642
14214299304
14214307910
14214314929
14214318286
14214324451
14214328967
14214334949
14214339770
14214344165
14214349109
14214354297
14214359424
14214363208
14214367908
14214374927
14214379199
14214382800
14214388232
14214393176
14214397571
14214400012
14214406909
14214413195
14214418444
14214423266
14214428454
14214433581
14214438830
14214443957
14214449511
14214454943
14214458850
14214464526
14214469592
14214473437
14214477587
14214482226
14214487597
14214491381
14214496447
14214501208
14214505053
14214511035
14214514819
14214521288
14214526171
14214530444
14214534899
14214539111
14214543505
14214547778
14214552477
14214559557
14214564257
14214570971
14214577197
14214582934
14214587817
14214592577
14214596850
14214603075
14214608202
14214613940
14214618334
14214623705
14214627489
14214632250
14214637255
14214642199
14214644335
14214651476
14214653673
14214658678
14214663317
14214667284
14214673021
14214677904
14214681872
14214685106
14214689562
14214693590
14214697252
14214701281
14214708361
14214710985
14214717943
14214723681
14214727770
14214732164
14214738024
14214744127
14214750841
14214755541
14214761034
14214766039
14214770861
14214777330
14214781175
14214786974
14214792101
14214797411
14214802416
14214806505
14214813280
14214817552
14214824266
14214829576
14214834459
14214838121
14214842638
14214847643
14214852159
14214858690
14214864122
14214868822
14214874071
14214879625
14214884935
14214887437
14214894151
14214899095
14214905382
14214909898
14214914903
14214920335
14214925035
14214930223
14214934556
14214939256
14214945482
14214950120
14214954759
14214960191
14214966600
14214973741
14214982286
14214988511
14214995408
14215001817
14215008470
14215015855
14215026353
14215033250
14215042100
14215049363
14215056749
14215061936
14215070115
14215076890
14215084397
14215088975
14215096543
14215103745
14215110887
14215118882
14215124314
14215130540
14215135667
14215144395
14215151902
14215157029
14215161363
14215166245
14215170701
14215176926
14215183213
14215187913
14215197800
14215210191
14215218796
14215229111
14215233750
14215240586
14215245713
14215250290
14215256821
14215262009
14215267930
14215271714
14215277512
14215282517
14215292283
14215298264
14215306504
14215313401
14215321152
14215327134
14215332871
14215338547
14215343735
14215356858
14215369126
14215381455
14215393784
14215408249
14215415390
14215428818
14215441025
14215452255
14215465744
14215478317
14215484848
14215491135
14215497177
14215502670
14215508224
14215514633
14215520676
14215525741
14215531235
14215536117
14215542465
14215547653
14215553879
14215560837
14215566696
14215571762
14215577682
14215582443
14215586715
14215594101
14215605453
14215611007
14215617843
14215622787
14215630050
14215636520
14215641403
14215646286
14215651474
14215659408
14215666793
14215673812
14215681930
14215690048
14215695541
14215700912
14215709091
14215714706
14215723800
14215730331
14215737777
14215756088
14215774215
14215799850
14215819686
14215840194
14215848800
14215860946
14215876265
14215893966
14215919539
14215940902
14215951094
14215958052
14215967147
14215976180
14215983504
14215992537
14216000411
14216008223
14216014205
14216027937
14216034773
14216043990
14216053389
14216059370
14216066328
14216073286
14216078047
14216083601
14216090498
14216102095
14216110457
14216123152
14216133833
14216139998
14216145918
14216150801
14216158125
14216161299
14216168013
14216174055
14216179487
14216186079
14216191633
14216200300
14216205366
14216211165
14216215498
14216225447
14216230452
14216235579
14216241377
14216248152
14216253096
14216271955
14216288252
14216304426
14216318342
14216334882
14216348982
14216368940
14216383527
14216399396
14216414533
14216426862
14216433027
14216438825
14216444745
14216451887
14216458722
14216464948
14216470990
14216477094
14216482709
14216492353
14216500104
14216504743
14216512311
14216517072
14216524884
14216530561
14216537213
14216543561
14216549604
14216556195
14216561383
14216567914
14216573529
14216578229
14216585004
14216590070
14216595136
14216600751
14216606061
14216611249
14216617841
14216622907
14216629559
14216634320
14216641156
14216645978
14216652264
14216657880
14216663434
14216668561
14216690778
14216703229
14216712018
14216719159
14216726178
14216733319
14216739056
14216749066
14216754681
14216764020
14216772015
14216777630
14216783429
14216789654
14216796551
14216804608
14216811139
14216820233
14216825543
14216833355
14216842205
14216849407
14216858013
14216869549
14216876751
14216888470
14216896893
14216908611
14216918499
14216928265
14216936810
14216946331
14216955730
14216963238
14216972088
14216980755
14216988995
14216997600
14217004925
14217012188
14217019085
14217027386
14217036663
14217041790
14217049541
14217061016
14217068279
14217073284
14217080120
14217086467
14217091533
14217096965
14217101543
14217105816
14217111065
14217116191
14217121990
14217125835
14217131145
14217136089
14217139263
14217144023
14217148906
14217153301
14217158672
14217164714
14217167400
14217174663
14217178325
14217183818
14217187847
14217193767
14217197795
14217204631
14217208904
14217215312
14217219585
14217223918
14217228313
14217234416
14217238811
14217244487
14217248882
14217254497
14217258952
14217263835
14217268535
14217274394
14217281230
14217286906
14217292155
14217297160
14217301738
14217307170
14217313029
14217318278
14217326152
14217331462
14217336894
14217343303
14217347636
14217353435
14217358012
14217363078
14217371501
14217375895
14217383220
14217387370
14217392070
14217397685
14217403422
14217407695
14217413249
14217418986
14217424296
14217429545
14217434855
14217440226
14217445719
14217450236
14217455607
14217461711
14217466349
14217473246
14217481181
14217487284
14217495280
14217503886
14217509501
14217517802
14217522929
14217531107
14217537333
14217542094
14217547648
14217551310
14217557963
14217563029
14217568522
14217572550
14217579264
14217584330
14217592203
14217598429
14217603373
14217608927
14217614237
14217618571
14217624430
14217629374
14217635111
14217641764
14217647684
14217653788
14217659159
14217663187
14217669108
14217674173
14217680277
14217687906
14217693583
14217700113
14217704447
14217709757
14217717142
14217722025
14217726725
14217733927
14217739420
14217744913
14217750284
14217755777
14217760843
14217767740
14217773905
14217780008
14217784952
14217790872
14217796427
14217801004
14217806436
14217814066
14217818826
14217822977
14217830911
14217835489
14217842325
14217845926
14217853128
14217860330
14217867838
14217872171
14217885599
14217893899
14217901956
14217909708
14217917459
14217925027
14217932535
14217937478
14217945840
14217956399
14217962198
14217970376
14217977701
14217984170
14217990457
14217999612
14218005899
14218016275
14218023904
14218033120
14218038858
14218048013
14218055337
14218062112
14218066506
14218072305
14218078530
14218083230
14218087502
14218094094
14218099099
14218104104
14218106912
14218116860
14218123086
14218131997
14218140176
14218143533
14218152139
14218157998
14218163857
14218169228
14218175820
14218181130
14218186928
14218191445
14218195779
14218201333
14218205300
14218211587
14218217019
14218221779
14218225991
14218230935
14218236184
14218242043
14218248574
14218255166
14218260598
14218267373
14218273171
14218277565
14218282387
14218290261
14218297097
14218302651
14218305947
14218312844
14218317910
14218325356
14218330605
14218335121
14218341713
14218348305
14218352455
14218357765
14218363747
14218369301
14218375099
14218378212
14218386818
14218393105
14218399391
14218405190
14218410011
14218416603
14218421852
14218426979
14218431923
14218439552
14218445351
14218450050
14218456703
14218462013
14218468666
14218474159
14218478126
14218484657
14218493019
14218499428
14218503883
14218509621
14218515785
14218522865
14218527687
14218533607
14218540382
14218547523
14218553688
14218558204
14218564674
14218569191
14218576210
14218580482
14218588417
14218593544
14218599464
14218603981
14218610450
14218615760
14218622108
14218625160
14218633766
14218639442
14218645118
14218648414
14218657630
14218662330
14218668800
14218674659
14218679847
14218686561
14218692481
14218697181
14218703834
14218710548
14218718116
14218724342
14218730079
14218736671
14218743140
14218749793
14218756263
14218764198
14218770667
14218776649
14218780921
14218788245
14218795081
14218800330
14218805457
14218811927
14218816810
14218822181
14218827491
14218833716
14218840125
14218844703
14218849341
14218856116
14218860389
14218864966
14218872535
14218876929
14218886023
14218893531
14218898780
14218903479
14218909827
14218915015
14218922644
14218926490
14218933692
14218941077
14218948157
14218956580
14218963355
14218971289
14218978064
14218984778
14218992468
14219001380
14219008948
14219012915
14219022070
14219030127
14219037390
14219041235
14219050940
14219060522
14219068335
14219074499
14219082007
14219088049
14219097204
14219103430
14219110815
14219119848
14219126990
14219134192
14219139197
14219144873
14219149328
14219153967
14219159643
14219165686
14219173010
14219181006
14219189428
14219194799
14219203650
14219211584
14219216467
14219221716
14219227209
14219232031
14219237036
14219241857
14219246374
14219251135
14219256323
14219261267
14219266332
14219270727
14219275427
14219279821
14219284216
14219290746
14219295629
14219299963
14219303564
14219307226
14219314245
14219320165
14219327306
14219333532
14219341650
14219346105
14219353124
14219359045
14219363805
14219369543
14219373449
14219379308
14219383398
14219387914
14219392797
14219398290
14219403661
14219408849
14219412633
14219418615
14219424291
14219427831
14219432592
14219439000
14219444127
14219448278
14219453283
14219457616
14219462072
14219467199
14219473974
14219479528
14219483739
14219488744
14219493993
14219498937
14219503759
14219510167
14219515233
14219521093
14219525548
14219531774
14219535985
14219542577
14219549413
14219554662
14219561009
14219565648
14219570348
14219575475
14219580358
14219585484
14219589696
14219596654
14219602452
14219607274
14219609960
14219616795
14219621007
14219628331
14219632970
14219639195
14219644139
14219648167
14219654454
14219658788
14219664342
14219669347
14219674046
14219680638
14219686619
14219691014
14219697850
14219702672
14219710972
14219716466
14219721104
14219726536
14219732945
14219738011
14219744175
14219750340
14219754612
14219762730
14219767369
14219773716
14219778721
14219783482
14219790074
14219795933
14219801243
14219808934
14219813511
14219819859
14219827488
14219834080
14219839817
14219845921
14219852879
14219859349
14219864964
14219870701
14219876255
14219883518
14219890843
14219897679
14219905308
14219913731
14219918552
14219926609
14219933445
14219941380
14219946934
14219954868
14219961948
14219968784
14219976414
14219982761
14219990757
14219997227
14220004490
14220011143
14220019260
14220025547
14220033237
14220039524
14220046238
14220054966
14220061557
14220068271
14220074863
14220084079
14220090122
14220095371
14220101291
14220105686
14220109958
14220114719
14220119175
14220125888
14220130527
14220134799
14220140232
14220145359
14220149875
14220156345
14220162509
14220168186
14220173496
14220178440
14220182651
14220188510
14220193454
14220201083
14220206455
14220212436
14220216159
14220222812
14220227268
14220232944
14220238742
14220243747
14220248203
14220255222
14220263827
14220269687
14220275973
14220281039
14220286899
14220292270
14220297824
14220304843
14220311069
14220316928
14220323642
14220329440
14220333590
14220340976
14220346164
14220351535
14220358066
14220365451
14220370822
14220377841
14220385348
14220390475
14220395236
14220401156
14220409091
14220414767
14220420504
14220427218
14220430087
14220437411
14220442538
14220450472
14220454867
14220467623
14220473116
14220478976
14220484042
14220488558
14220493502
14220500094
14220504672
14220508944
14220513827
14220517794
14220522677
14220526217
14220531649
14220537569
14220541476
14220546786
14220550326
14220555575
14220561373
14220565646
14220571810
14220578280
14220582186
14220587496
14220591769
14220596163
14220601900
14220607027
14220612826
14220618014
14220621432
14220626436
14220630221
14220635164
14220640413
14220644381
14220650240
14220654390
14220660799
14220664888
14220671724
14220675386
14220680391
14220687838
14220691317
14220697664
14220703768
14220709749
14220716036
14220720552
14220726534
14220729280
14220738741
14220742891
14220750704
14220756075
14220762117
14220767977
14220775484
14220780000
14220785066
14220788973
14220796419
14220800203
14220804964
14220812105
14220817598
14220823030
14220828096
14220834749
14220840791
14220845735
14220854768
14220859468
14220867036
14220870943
14220878084
14220884981
14220894197
14220900117
14220910982
14220918428
14220930696
14220939546
14220953645
14220965669
14220972017
14220982881
14220990266
14220998384
14221007112
14221015901
14221022737
14221037080
14221046113
14221054719
14221065278
14221075898
14221082551
14221091279
14221098725
14221102143
14221110200
14221114350
14221119843
14221125764
14221129609
14221134980
14221139680
14221145356
14221150178
14221156220
14221161164
14221165864
14221168610
14221176057
14221182038
14221186616
14221192780
14221198273
14221203217
14221209626
14221214631
14221221039
14221225373
14221231049
14221237458
14221244111
14221248200
14221254548
14221259797
14221266022
14221270478
14221276032
14221282746
14221287995
14221294159
14221300385
14221304962
14221311310
14221316376
14221321869
14221329865
14221336151
14221340790
14221346894
14221351471
14221356903
14221362824
14221368317
14221373505
14221379975
14221385346
14221390289
14221397980
14221402069
14221408783
14221413117
14221419342
14221425262
14221430695
14221436493
14221443024
14221449066
14221454925
14221460113
14221465485
14221473053
14221479156
14221483795
14221489410
14221494659
14221501251
14221506805
14221511688
14221519501
14221523346
14221529938
14221535370
14221540985
14221545929
14221552337
14221556122
14221564056
14221570465
14221576202
14221581451
14221587494
14221593475
14221598053
14221604705
14221609100
14221616180
14221623870
14221629302
14221633575
14221641448
14221648101
14221654937
14221660491
14221666900
14221675262
14221680694
14221685882
14221692108
14221697662
14221704803
14221710967
14221715240
14221721160
14221727020
14221731109
14221734893
14221739959
14221746673
14221752044
14221756621
14221763274
14221768218
14221772613
14221778411
14221789214
14221793792
14221798492
14221804595
14221809417
14221814055
14221820403
14221825530
14221830962
14221835784
14221842254
14221848052
14221853972
14221860747
14221867583
14221871123
14221880278
14221885405
14221892974
14221898101
14221905974
14221909209
14221917205
14221923003
14221927519
14221934111
14221938933
14221948088
14221954619
14221964140
14221971221
14221978179
14221983305
14221991606
14221999297
14222007536
14222015593
14222023222
14222029997
14222037688
14222042387
14222053068
14222059294
14222066496
14222077055
14222084135
14222092558
14222098417
14222107573
14222113615
14222122831
14222131926
14222139738
14222145475
14222153227
14222158415
14222165007
14222171232
14222177336
14222180937
14222188993
14222195097
14222203947
14222209013
14222214262
14222221220
14222226896
14222233122
14222238859
14222246183
14222251921
14222257353
14222260526
14222271024
14222277982
14222285856
14222291776
14222298734
14222305936
14222312345
14222318082
14222323087
14222330778
14222337247
14222341581
14222347135
14222352750
14222358610
14222362638
14222367399
14222373075
14222377470
14222383878
14222390165
14222395597
14222401945
14222407071
14222412198
14222417264
14222421903
14222426847
14222432157
14222436673
14222442472
14222447782
14222453397
14222458036
14222462980
14222469327
14222474210
14222480375
14222487333
14222493924
14222499051
14222504178
14222507047
14222516202
14222521268
14222526883
14222530179
14222537869
14222541959
14222549161
14222553800
14222560452
14222564908
14222570889
14222576932
14222582120
14222588590
14222592313
14222599820
14222603665
14222610806
14222615689
14222621915
14222627164
14222632535
14222636990
14222643094
14222649564
14222655484
14222660794
14222666409
14222673306
14222678067
14222684415
14222690030
14222695157
14222701077
14222706448
14222712246
14222718838
14222726285
14222731167
14222735379
14222742398
14222748013
14222753628
14222758206
14222763699
14222769741
14222775357
14222781582
14222787197
14222791592
14222796475
14222803311
14222807583
14222816006
14222821682
14222827542
14222831753
14222838650
14222844021
14222849331
14222855007
14222860928
14222869595
14222875637
14222886013
14222890835
14222898159
14222904263
14222910183
14222917080
14222923428
14222928310
14222933681
14222938015
14222942471
14222947048
14222952419
14222957729
14222962246
14222967861
14222973415
14222977383
14222982326
14222986477
14222992946
14222998134
14223002224
14223010158
14223016079
14223024257
14223030422
14223039882
14223048183
14223053981
14223061733
14223068569
14223076442
14223085537
14223091457
14223100063
14223107143
14223113491
14223121059
14223127346
14223133754
14223142299
14223147182
14223155727
14223163661
14223171901
14223178432
14223186366
14223192043
14223199123
14223203822
14223209132
14223214381
14223220424
14223227138
14223232143
14223237086
14223243190
14223249171
14223254665
14223260768
14223266078
14223270656
14223276637
14223281703
14223287257
14223293727
14223299037
14223306239
14223310206
14223316554
14223321193
14223329005
14223332606
14223339259
14223347010
14223353175
14223359523
14223365138
14223369593
14223376185
14223383082
14223386683
14223394007
14223399256
14223407191
14223412989
14223417811
14223422755
14223429286
14223436000
14223441065
14223446253
14223453578
14223458827
14223464869
14223469142
14223476771
14223481593
14223488123
14223493800
14223500941
14223508021
14223514185
14223520472
14223525843
14223530543
14223537562
14223542261
14223547266
14223551234
14223555140
14223559534
14223564722
14223569239
14223574976
14223579859
14223587794
14223591761
14223597620
14223602381
14223607691
14223613062
14223618860
14223623133
14223629053
14223634485
14223639551
14223644373
14223649439
14223655115
14223661402
14223668421
14223674341
14223680689
14223687159
14223689722
14223696314
14223701929
14223707178
14223711756
14223718164
14223724024
14223730371
14223736353
14223741907
14223745996
14223750696
14223756616
14223761316
14223767969
14223773462
14223778711
14223782495
14223789575
14223793909
14223800501
14223805750
14223811121
14223817224
14223822473
14223827417
14223833032
14223838342
14223843896
14223846948
14223855127
14223859766
14223865747
14223871545
14223877344
14223883508
14223887720
14223894189
14223899743
14223906152
14223912011
14223917138
14223921960
14223928125
14223934533
14223940027
14223945215
14223951074
14223956506
14223962671
14223967187
14223973962
14223978906
14223985315
14223989709
14223994958
14224003076
14224007836
14224015283
14224021020
14224026147
14224032128
14224037744
14224043176
14224048730
14224057580
14224069970
14224079064
14224086388
14224097375
14224104028
14224113061
14224123925
14224131432
14224142052
14224149071
14224156274
14224162987
14224173363
14224180688
14224188622
14224192956
14224203515
14224209923
14224220543
14224226952
14224236535
14224243554
14224252404
14224259484
14224266320
14224274010
14224279930
14224284996
14224290490
14224297692
14224302086
14224309655
14224315453
14224321068
14224324364
14224332298
14224336815
14224343285
14224347740
14224355553
14224361900
14224367943
14224377953
14224385826
14224395653
14224402184
14224413109
14224421837
14224430138
14224439110
14224447105
14224456749
14224462425
14224466942
14224473717
14224478782
14224484581
14224489769
14224494713
14224501060
14224506309
14224512108
14224517296
14224523521
14224528831
14224534263
14224539390
14224544700
14224550743
14224554771
14224560753
14224565696
14224571800
14224576561
14224582542
14224586875
14224593467
14224597190
14224603660
14224609275
14224616294
14224622581
14224627891
14224632347
14224639915
14224644370
14224649864
14224655662
14224661826
14224668784
14224674827
14224681175
14224686668
14224691489
14224696677
14224701621
14224706992
14224712180
14224717979
14224724387
14224730430
14224735129
14224741904
14224748984
14224752463
14224761069
14224767478
14224772239
14224777366
14224784080
14224790061
14224795188
14224800742
14224806846
14224810386
14224816611
14224822349
14224827598
14224831809
14224838218
14224842368
14224847495
14224853171
14224860190
14224865073
14224870322
14224875083
14224881430
14224885398
14224891379
14224897055
14224902121
14224906943
14224914817
14224920249
14224925070
14224929099
14224933615
14224940146
14224945883
14224952170
14224956748
14224961447
14224966330
14224971945
14224976767
14224983847
14224988486
14224995505
14224999350
14225006979
14225009848
14225016989
14225021628
14225028769
14225033408
14225039633
14225044150
14225049765
14225056601
14225062338
14225067343
14225073630
14225079428
14225084006
14225091818
14225096029
14225102133
14225107992
14225113546
14225117880
14225124045
14225130575
14225136313
14225139242
14225147604
14225154135
14225163656
14225170614
14225176962
14225187582
14225194296
14225203756
14225212362
14225219931
14225228170
14225235555
14225240499
14225250753
14225259969
14225268759
14225272848
14225283407
14225289938
14225300619
14225307027
14225314169
14225323873
14225331441
14225338827
14225347250
14225354635
14225358846
14225368612
14225374105
14225381368
14225390340
14225394796
14225401693
14225407308
14225415731
14225420919
14225426656
14225434530
14225441365
14225447103
14225452413
14225456441
14225462667
14225467244
14225474263
14225478963
14225483602
14225489583
14225494161
14225500081
14225504964
14225509664
14225515767
14225521138
14225526326
14225532186
14225537251
14225542317
14225547994
14225553060
14225557088
14225564107
14225568562
14225575093
14225579244
14225585835
14225591695
14225597615
14225602071
14225608357
14225613301
14225620686
14225627095
14225631245
14225637715
14225642842
14225648518
14225653706
14225659016
14225664326
14225670491
14225677205
14225682698
14225687398
14225693440
14225698262
14225704243
14225709126
14225716206
14225721211
14225726582
14225733235
14225737935
14225743000
14225749348
14225755696
14225761128
14225767231
14225773396
14225778950
14225783528
14225789631
14225794148
14225801045
14225807881
14225813191
14225817585
14225822224
14225829792
14225834797
14225840046
14225845844
14225851826
14225856709
14225863850
14225869404
14225874470
14225879902
14225885761
14225891743
14225897236
14225901875
14225908405
14225914997
14225920917
14225925312
14225930683
14225935749
14225941669
14225948566
14225952900
14225959370
14225963398
14225968586
14225978107
14225984333
14225989460
14225996479
14226003864
14226010517
14226016926
14226021869
14226029255
14226036152
14226041584
14226047809
14226053730
14226059650
14226063678
14226069660
14226074421
14226079303
14226085163
14226090229
14226094318
14226101886
14226107685
14226112323
14226118244
14226123554
14226128314
14226135150
14226139606
14226144611
14226149677
14226154804
14226159442
14226165057
14226171588
14226177264
14226187030
14226192401
14226197223
14226205524
14226210284
14226216571
14226222552
14226230060
14226237933
14226244708
14226251117
14226260272
14226266925
14226274493
14226278338
14226290973
14226298358
14226305865
14226309710
14226320636
14226328082
14226335833
14226343951
14226352252
14226361224
14226369403
14226373919
14226384356
14226390765
14226400958
14226406817
14226413287
14226422137
14226429766
14226435626
14226442095
14226446246
14226450701
14226457598
14226462542
14226470782
14226475054
14226481707
14226486102
14226491167
14226497759
14226503374
14226508074
14226513811
14226519244
14226524981
14226530474
14226536150
14226541399
14226555498
14226563189
14226573015
14226585039
14226593279
14226599688
14226607744
14226615801
14226623552
14226632219
14226642168
14226649797
14226658281
14226667803
14226676531
14226687944
14226705644
14226716326
14226725054
14226730974
14226738970
14226747637
14226755571
14226763078
14226770830
14226778459
14226787187
14226794939
14226802934
14226811723
14226819841
14226827959
14226835100
14226842973
14226851091
14226858720
14226864458
14226879106
14226887040
14226894853
14226902665
14226912004
14226919145
14226925676
14226936479
14226943864
14226953202
14226960344
14226969499
14226978105
14226984696
14226996110
14227003617
14227013627
14227021317
14227028581
14227036820
14227045976
14227056962
14227064042
14227072160
14227082536
14227089677
14227097916
14227105241
14227112138
14227122147
14227130204
14227137589
14227145219
14227154801
14227163651
14227170304
14227177872
14227187272
14227195694
14227205033
14227213028
14227220414
14227227982
14227237259
14227245499
14227251297
14227259171
14227266068
14227273270
14227281205
14227287735
14227299210
14227309281
14227315811
14227322586
14227329666
14227338211
14227345413
14227352677
14227361405
14227368424
14227376175
14227383499
14227389847
14227401138
14227410355
14227419998
14227429703
14227438492
14227448868
14227457290
14227465896
14227474930
14227484695
14227491714
14227500869
14227508255
14227518570
14227528762
14227539199
14227548294
14227556655
14227567947
14227572403
14227586746
14227594497
14227605850
14227615310
14227625930
14227633743
14227644241
14227654373
14227663650
14227669875
14227680312
14227688308
14227698867
14227708572
14227717788
14227727859
14227737197
14227746169
14227756606
14227765212
14227773147
14227779860
14227787673
14227794204
14227799880
14227808547
14227814711
14227822646
14227827651
14227831191
14227835341
14227839858
14227843093
14227848159
14227852736
14227859023
14227863417
14227867751
14227871169
14227875930
14227880446
14227884780
14227889296
14227893019
14227897719
14227901992
14227905776
14227908888
14227913649
14227917983
14227921767
14227926955
14227930861
14227934523
14227940566
14227944411
14227948927
14227954176
14227958693
14227963210
14227967604
14227971999
14227977675
14227982008
14227986830
14227991408
14227995619
14228002333
14228006605
14228010146
14228015517
14228019301
14228024489
14228028639
14228033278
14228041212
14228048781
14228055739
14228061537
14228068312
14228074537
14228079542
14228085097
14228090712
14228095045
14228099989
14228104200
14228109022
14228113905
14228118849
14228124525
14228129591
14228135450
14228140028
14228143934
14228149916
14228153456
14228160475
14228164503
14228169081
14228174818
14228180250
14228185804
14228190992
14228196607
14228203504
14228208204
14228214796
14228219557
14228224073
14228228956
14228234327
14228238722
14228244337
14228248670
14228253126
14228258436
14228263502
14228270094
14228276746
14228281751
14228286146
14228293226
14228297315
14228302808
14228307935
14228312696
14228317884
14228323194
14228327528
14228333326
14228337842
14228344556
14228349866
14228354627
14228362195
14228367689
14228372144
14228377881
14228385511
14228390210
14228395582
14228400220
14228408704
14228415540
14228420484
14228426282
14228432386
14228436475
14228442884
14228448316
14228452405
14228458509
14228464490
14228468946
14228473950
14228480115
14228485120
14228490735
14228495801
14228501233
14228507947
14228514539
14228522229
14228529920
14228537244
14228543164
14228552258
14228559338
14228566663
14228575757
14228581494
14228591016
14228599561
14228607800
14228616162
14228627026
14228638196
14228647107
14228658032
14228669385
14228676770
14228685193
14228691235
14228700512
14228707592
14228713330
14228720105
14228724682
14228728344
14228733715
14228739575
14228744275
14228748974
14228754895
14228757580
14228764355
14228769604
14228773754
14228780468
14228785412
14228790051
14228797863
14228805310
14228812512
14228819531
14228825451
14228831371
14228836926
14228841076
14228846752
14228853527
14228859448
14228865734
14228871899
14228875927
14228881908
14228886547
14228891186
14228898266
14228902721
14228909191
14228913219
14228917980
14228923351
14228927380
14228932445
14228935558
14228941357
14228946606
14228950817
14228954967
14228959850
14228965465
14228971386
14228975963
14228982738
14228987438
14228992626
14228996532
14229002758
14229008495
14229013988
14229018749
14229025097
14229030285
14229035778
14229039135
14229046276
14229049694
14229058055
14229063976
14229070079
14229075328
14229081859
14229086803
14229093212
14229098766
14229104076
14229109020
14229115795
14229122875
14229129466
14229134776
14229138744
14229143138
14229149364
14229154308
14229159740
14229166026
14229172313
14229180186
14229186778
14229191905
14229200023
14229205943
14229215221
14229222240
14229228404
14229232493
14229239207
14229244884
14229250499
14229254588
14229260325
14229266246
14229274058
14229278758
14229285045
14229290721
14229296458
14229301341
14229306712
14229311717
14229316478
14229321910
14229327525
14229332835
14229338389
14229343516
14229348460
14229352793
14229357676
14229362193
14229366770
14229371714
14229375315
14229382273
14229388621
14229393809
14229398203
14229405039
14229409434
14229414744
14229421336
14229427073
14229431590
14229437083
14229440074
14229448924
14229453379
14229457896
14229466135
14229471812
14229478220
14229482371
14229487131
14229494395
14229499338
14229508005
14229513621
14229521433
14229527537
14229534373
14229541880
14229548594
14229556833
14229561045
14229571543
14229582773
14229588694
14229593088
14229604502
14229612619
14229618845
14229625925
14229634409
14229640818
14229649729
14229656626
14229663156
14229672800
14229680246
14229688608
14229696543
14229702585
14229708750
14229713815
14229718027
14229724558
14229729135
14229733957
14229739206
14229744943
14229750864
14229757639
14229762705
14229769418
14229774728
14229781808
14229788705
14229795175
14229800485
14229807016
14229812753
14229819955
14229825326
14229831064
14229836069
14229841318
14229845834
14229852243
14229857248
14229862863
14229868234
14229873361
14229878305
14229883371
14229888620
14229893686
14229899545
14229905099
14229910592
14229916147
14229920175
14229926095
14229930917
14229936837
14229940805
14229947030
14229952829
14229958444
14229964242
14229970101
14229976083
14229981271
14229985299
14229991891
14229996896
14230001534
14230008187
14230012582
14230020394
14230026132
14230032967
14230036874
14230043954
14230049508
14230055062
14230057870
14230067757
14230072823
14230078317
14230083504
14230089608
14230096078
14230100289
14230104684
14230111642
14230116830
14230122445
14230129098
14230133187
14230140450
14230145577
14230152108
14230157479
14230162850
14230169076
14230174141
14230178963
14230186532
14230190987
14230196602
14230202095
14230208382
14230212655
14230219429
14230223519
14230229073
14230234444
14230239632
14230243904
14230249459
14230256783
14230261727
14230266915
14230272469
14230278694
14230283333
14230288765
14230293831
14230300667
14230305672
14230312020
14230317513
14230323555
14230330452
14230336189
14230343269
14230352181
14230356880
14230364693
14230370064
14230377815
14230382881
14230388985
14230398994
14230404549
14230410347
14230416572
14230422432
14230427620
14230432442
14230437630
14230443306
14230449959
14230454292
14230461067
14230465156
14230470344
14230475410
14230480476
14230485725
14230492744
14230495735
14230502998
14230509468
14230514961
14230519722
14230524971
14230528572
14230536262
14230542244
14230550605
14230556404
14230565315
14230573738
14230581916
14230591377
14230598579
14230608100
14230614875
14230624214
14230631599
14230639472
14230647346
14230654731
14230663520
14230670966
14230679389
14230687629
14230695380
14230704841
14230713935
14230722114
14230729621
14230737617
14230744269
14230752326
14230756843
14230762641
14230769172
14230773444
14230781012
14230786994
14230791999
14230797370
14230802497
14230809272
14230814887
14230819770
14230825507
14230832404
14230838141
14230843695
14230849372
14230852851
14230860663
14230867194
14230873236
14230877936
14230884284
14230888800
14230895453
14230901740
14230905219
14230911749
14230916815
14230924994
14230930426
14230936102
14230942206
14230947150
14230952277
14230959418
14230963141
14230971014
14230976324
14230982184
14230988898
14230993353
14230999457
14231004950
14231010931
14231018133
14231024237
14231031195
14231037909
14231044623
14231048834
14231055792
14231061285
14231066717
14231073736
14231077948
14231083929
14231088507
14231095099
14231100103
14231105963
14231111090
14231116034
14231121161
14231125921
14231130743
14231136969
14231142462
14231147589
14231151983
14231158880
14231165350
14231170599
14231176397
14231181402
14231187750
14231192755
14231198797
14231204046
14231209844
14231214483
14231219854
14231224920
14231230352
14231236211
14231242498
14231246710
14231254156
14231259588
14231264043
14231271490
14231276250
14231282232
14231288091
14231291570
14231299017
14231304632
14231310186
14231316045
14231321111
14231325994
14231332952
14231338384
14231344488
14231349859
14231355169
14231360296
14231366155
14231370916
14231377263
14231381719
14231387395
14231394780
14231400579
14231404912
14231410100
14231416631
14231421880
14231428533
14231434758
14231440862
14231446477
14231452458
14231457402
14231462957
14231467656
14231474858
14231479192
14231485784
14231493657
14231499700
14231505254
14231510808
14231518254
14231522344
14231529057
14231533940
14231540105
14231545781
14231552617
14231557927
14231563542
14231570073
14231575139
14231580022
14231585698
14231590031
14231599431
14231605168
14231611943
14231619755
14231626164
14231635808
14231645146
14231657231
14231666142
14231673039
14231682438
14231688664
14231695378
14231703618
14231710392
14231717228
14231725346
14231733036
14231740239
14231746952
14231755986
14231761906
14231771366
14231779057
14231785282
14231795231
14231803471
14231807865
14231817265
14231826176
14231832035
14231840946
14231847538
14231852421
14231857975
14231863041
14231867558
14231875065
14231880497
14231885868
14231890995
14231896488
14231903446
14231909611
14231912601
14231920841
14231926212
14231932804
14231938053
14231944584
14231949466
14231956241
14231960758
14231966190
14231972477
14231977054
14231983280
14231990421
14231995487
14232001407
14232009220
14232014225
14232020145
14232024479
14232030704
14232037418
14232042728
14232048099
14232053592
14232058719
14232065616
14232071109
14232077945
14232082157
14232089481
14232095340
14232102603
14232107852
14232113284
14232119022
14232124637
14232130008
14232136966
14232142337
14232148319
14232153690
14232160342
14232164981
14232172610
14232178470
14232184573
14232191653
14232196231
14232204227
14232210574
14232215518
14232220645
14232227176
14232232608
14232240298
14232244815
14232250552
14232256717
14232263980
14232268313
14232276858
14232283145
14232290469
14232295901
14232301883
14232309268
14232314517
14232322024
14232326480
14232334414
14232338870
14232345462
14232350222
14232357241
14232362673
14232367617
14232372683
14232378054
14232384646
14232390017
14232395144
14232401248
14232406497
14232411990
14232417483
14232421877
14232429018
14232435244
14232440981
14232447268
14232452395
14232458376
14232464541
14232469424
14232474429
14232482607
14232487063
14232491701
14232500918
14232505251
14232512453
14232517153
14232524355
14232528811
14232535036
14232539370
14232546328
14232552004
14232557436
14232563173
14232570864
14232575869
14232582460
14232587038
14232596987
14232602968
14232607302
14232613771
14232620607
14232625002
14232631533
14232635744
14232641909
14232646791
14232652956
14232658205
14232665041
14232670900
14232677553
14232683168
14232689211
14232693666
14232700319
14232704286
14232710695
14232715395
14232724306
14232730043
14232738466
14232745729
14232752565
14232760316
14232767458
14232776979
14232784303
14232793275
14232800661
14232807069
14232817323
14232823366
14232833864
14232841249
14232849306
14232856996
14232865541
14232873353
14232881471
14232888185
14232898256
14232905397
14232914674
14232921205
14232930482
14232935792
14232942994
14232950257
14232955262
14232962525
14232968751
14232976014
14232979798
14232984864
14232992005
14232994691
14233000794
14233007081
14233012147
14233017274
14233023011
14233027406
14233033570
14233037721
14233043885
14233050782
14233057862
14233061707
14233067506
14233071717
14233076356
14233080689
14233087159
14233092774
14233097413
14233102845
14233107667
14233112427
14233117554
14233123536
14233129334
14233135560
14233141968
14233146424
14233151856
14233158265
14233163819
14233168885
14233174012
14233179261
14233184266
14233189515
14233194458
14233199524
14233204712
14233208924
14233214844
14233221985
14233227417
14233233094
14233237732
14233242676
14233250366
14233254883
14233260193
14233267212
14233274048
14233280029
14233285279
14233290833
14233296387
14233302735
14233307007
14233313538
14233317749
14233327271
14233332092
14233339539
14233344360
14233351746
14233357361
14233363281
14233368957
14233374084
14233380310
14233385498
14233389343
14233395142
14233401245
14233406799
14233413452
14233420166
14233425293
14233429870
14233434021
14233441284
14233445923
14233453430
14233458130
14233464172
14233469787
14233474731
14233480652
14233484741
14233493469
14233498840
14233508239
14233515258
14233520935
14233527099
14233534423
14233539917
14233546997
14233551757
14233556396
14233564269
14233569091
14233574829
14233579528
14233585388
14233589904
14233596496
14233600890
14233607116
14233612487
14233616943
14233624328
14233629089
14233636657
14233640319
14233646545
14233651794
14233658446
14233663512
14233667968
14233674010
14233678710
14233685790
14233692931
14233698730
14233715148
14233721190
14233726928
14233732360
14233738646
14233745971
14233752685
14233759520
14233767394
14233774779
14233782653
14233791808
14233796569
14233806151
14233813720
14233820555
14233827758
14233836119
14233843810
14233852111
14233859618
14233868163
14233875792
14233886046
14233892333
14233900389
14233909117
14233917418
14233926207
14233933470
14233940184
14233949889
14233956664
14233962889
14233968138
14233976012
14233981871
14233988829
14233993834
14233999876
14234007750
14234014464
14234022032
14234027342
14234033873
14234038878
14234045714
14234050230
14234055723
14234064695
14234071348
14234076780
14234083250
14234089476
14234094664
14234101439
14234106077
14234113768
14234120420
14234128233
14234133482
14234137632
14234147215
14234154112
14234160887
14234165891
14234174436
14234183347
14234190183
14234195249
14234200681
14234206541
14234211912
14234218198
14234223142
14234227232
14234232908
14234237547
14234245542
14234247007
14234254575
14234260679
14234264829
14234269529
14234277341
14234283140
14234287351
14234294065
14234299924
14234304319
14234308835
14234314939
14234320554
14234325925
14234331724
14234338254
14234342710
14234348325
14234354673
14234360898
14234365415
14234371885
14234376828
14234383420
14234389951
14234396116
14234399839
14234408017
14234411374
14234418393
14234424070
14234431333
14234436093
14234441220
14234448789
14234453427
14234459775
14234466489
14234472287
14234476926
14234482846
14234489072
14234495419
14234500668
14234506345
14234509763
14234518857
14234523862
14234531430
14234536740
14234540952
14234548276
14234554990
14234560666
14234565854
14234571286
14234576413
14234583615
14234589963
14234594296
14234601498
14234607114
14234612118
14234619321
14234624142
14234628598
14234637082
14234641537
14234648373
14234653866
14234662228
14234667782
14234673581
14234680600
14234686398
14234691098
14234698666
14234703488
14234713009
14234717526
14234725521
14234731442
14234737912
14234744137
14234751766
14234763607
14234769406
14234776364
14234779659
14234789120
14234794796
14234803707
14234808956
14234815731
14234820309
14234826840
14234831112
14234838009
14234842159
14234847591
14234854000
14234860714
14234865719
14234871456
14234875545
14234881649
14234886227
14234892757
14234897701
14234903683
14234910030
14234915401
14234919796
14234925228
14234931576
14234937618
14234942135
14234948421
14234953121
14234959530
14234964840
14234968319
14234974666
14234979915
14234985775
14234993648
14234999446
14235005855
14235011104
14235016170
14235023128
14235027278
14235032711
14235041316
14235047359
14235050289
14235060420
14235065792
14235071346
14235076167
14235082332
14235088313
14235094173
14235099544
14235105037
14235111202
14235115047
14235121394
14235127193
14235133235
14235140681
14235144466
14235150813
14235154842
14235161250
14235167903
14235173640
14235178401
14235185664
14235192012
14235198176
14235202388
14235209590
14235215327
14235223201
14235230220
14235235103
14235240718
14235246943
14235252498
14235257014
14235262568
14235268672
14235275935
14235281428
14235285945
14235290400
14235295832
14235301997
14235307978
14235314814
14235322444
14235327876
14235334834
14235340754
14235347651
14235353694
14235360346
14235368769
14235374812
14235380976
14235389216
14235395564
14235401667
14235406855
14235413874
14235418879
14235421626
14235427973
14235433161
14235439875
14235443598
14235449702
14235455195
14235460993
14235465937
14235471918
14235476130
14235482416
14235488032
14235492975
14235499628
14235504450
14235510432
14235514582
14235519465
14235525324
14235530573
14235536616
14235542902
14235548212
14235554010
14235560480
14235565241
14235569819
14235575495
14235581354
14235587702
14235593073
14235598566
14235604975
14235610163
14235614740
14235619501
14235626947
14235632013
14235639459
14235643793
14235649408
14235655512
14235661066
14235663996
14235671198
14235676203
14235684442
14235687799
14235695368
14235699945
14235705621
14235711664
14235717218
14235723444
14235729181
14235735284
14235740533
14235745538
14235752740
14235757989
14235762933
14235767633
14235775018
14235778986
14235784540
14235789606
14235795648
14235799982
14235807306
14235814081
14235821832
14235826593
14235832574
14235836419
14235842706
14235848077
14235854303
14235860406
14235866937
14235871454
14235877252
14235882928
14235888604
14235892144
14235900018
14235908563
14235914361
14235922479
14235930352
14235937127
14235943841
14235951043
14235954461
14235964837
14235971063
14235976495
14235980889
14235987786
14235993157
14235998773
14236004632
14236010613
14236016290
14236022332
14236025323
14236033501
14236040093
14236045892
14236052483
14236058160
14236062554
14236068658
14236072869
14236078911
14236083977
14236090874
14236097344
14236102837
14236107232
14236114251
14236118767
14236123223
14236129326
14236133294
14236140252
14236145806
14236152276
14236158074
14236162346
14236167168
14236173150
14236177422
14236184990
14236190422
14236196770
14236200188
14236206658
14236212395
14236217461
14236224175
14236229546
14236236809
14236242363
14236246880
14236252739
14236258110
14236263664
14236269524
14236275139
14236282219
14236287956
14236291130
14236297661
14236302666
14236309380
14236313713
14236320366
14236326653
14236332329
14236338921
14236344109
14236348991
14236354301
14236360588
14236365776
14236373344
14236379021
14236385612
14236391106
14236397819
14236403251
14236408317
14236414177
14236420158
14236426994
14236432548
14236438102
14236443229
14236448539
14236454643
14236460136
14236465751
14236471550
14236479057
14236484123
14236491386
14236497612
14236504264
14236510551
14236515129
14236526725
14236532402
14236539176
14236544486
14236550712
14236555717
14236561759
14236566947
14236571342
14236577690
14236582328
14236588249
14236592338
14236598258
14236603751
14236609306
14236615165
14236619865
14236625297
14236629935
14236636893
14236641898
14236644523
14236653556
14236659110
14236664481
14236668388
14236674796
14236679435
14236684501
14236689628
14236697684
14236704825
14236710013
14236713798
14236720511
14236724601
14236730277
14236736075
14236741752
14236749869
14236756156
14236762015
14236767508
14236771964
14236777396
14236782279
14236789359
14236794974
14236800833
14236807852
14236813651
14236818595
14236823966
14236830496
14236835684
14236841361
14236847037
14236854117
14236859122
14236864188
14236869254
14236875296
14236880911
14236886588
14236891959
14236899222
14236905325
14236910880
14236917593
14236922903
14236926627
14236932242
14236939383
14236945364
14236948172
14236957327
14236960196
14236967581
14236972403
14236978567
14236985098
14236991324
14236996634
14237002798
14237009329
14237015371
14237021963
14237031668
14237040152
14237045828
14237048697
14237058157
14237061026
14237068655
14237074087
14237080435
14237087027
14237094290
14237099295
14237108633
14237115713
14237121572
14237126699
14237132803
14237141104
14237146292
14237152334
14237157217
14237161978
14237168813
14237172231
14237179006
14237183401
14237190664
14237195242
14237200308
14237206228
14237211538
14237215688
14237220876
14237227102
14237232534
14237239248
14237244131
14237249013
14237254140
14237259084
14237264822
14237271230
14237276784
14237282339
14237288076
14237293813
14237298879
14237301687
14237307729
14237315603
14237321401
14237327077
14237331289
14237337026
14237343252
14237349477
14237353689
14237359975
14237366262
14237373220
14237378408
14237385060
14237390126
14237395253
14237400502
14237406789
14237413442
14237419667
14237426015
14237431996
14237437917
14237443776
14237446828
14237453542
14237460134
14237467641
14237472218
14237478017
14237483449
14237488637
14237493764
14237498891
14237504201
14237512135
14237517201
14237523244
14237528249
14237533376
14237539174
14237545094
14237553395
14237558522
14237565236
14237569325
14237575001
14237581227
14237586476
14237591847
14237597951
14237602711
14237609059
14237612111
14237618275
14237622792
14237629445
14237635914
14237642933
14237649159
14237653920
14237665211
14237672169
14237677845
14237686879
14237692372
14237700306
14237705555
14237712879
14237716786
14237723316
14237728138
14237734120
14237740528
14237745838
14237752003
14237756886
14237762196
14237767140
14237772816
14237778980
14237785572
14237790516
14237795399
14237800282
14237805103
14237811878
14237816639
14237822132
14237827930
14237833363
14237839405
14237844959
14237851795
14237857716
14237861195
14237868946
14237876331
14237881336
14237888660
14237893482
14237900440
14237906299
14237911915
14237918018
14237924488
14237932239
14237937916
14237941578
14237951282
14237957325
14237963489
14237966785
14237975025
14237980823
14237987476
14237993702
14237998706
14238005725
14238011096
14238018787
14238024158
14238030017
14238036365
14238041919
14238047595
14238053760
14238060230
14238066821
14238073352
14238079700
14238085620
14238091113
14238096179
14238103381
14238108325
14238115039
14238122607
14238126453
14238134326
14238140613
14238146899
14238153247
14238158984
14238164233
14238170215
14238176868
14238182178
14238190356
14238195361
14238200793
14238209521
14238214770
14238220752
14238227343
14238233447
14238240344
14238248034
14238254687
14238260180
14238268115
14238273425
14238279040
14238287768
14238292041
14238300463
14238307299
14238317370
14238322558
14238330065
14238335742
14238344164
14238349719
14238355822
14238364123
14238369311
14238376696
14238382983
14238388598
14238394457
14238400439
14238406725
14238412890
14238418322
14238424609
14238430834
14238436755
14238442126
14238448229
14238454577
14238459765
14238467516
14238472704
14238479845
14238485094
14238490771
14238497057
14238503039
14238509081
14238515795
14238523485
14238528124
14238535265
14238542833
14238548021
14238555895
14238562975
14238569139
14238574572
14238582384
14238588182
14238593248
14238600145
14238605883
14238612230
14238616381
14238624437
14238629015
14238634813
14238640734
14238647508
14238652757
14238663866
14238666795
14238675340
14238680895
14238686571
14238691515
14238699266
14238705309
14238711046
14238717210
14238722765
14238728624
14238733812
14238739244
14238746995
14238752122
14238756212
14238762315
14238768053
14238773241
14238779771
14238784776
14238789476
14238796129
14238800645
14238805894
14238811509
14238817491
14238823167
14238828599
14238831468
14238839280
14238844651
14238850206
14238853441
14238860643
14238868028
14238874131
14238879441
14238884813
14238888963
14238893235
14238900560
14238904222
14238910813
14238915391
14238921983
14238926744
14238936875
14238944444
14238951646
14238959458
14238966660
14238973802
14238980454
14238984055
14238992600
14238997666
14239003770
14239006394
14239013841
14239018601
14239025010
14239029404
14239034287
14239037461
14239044968
14239050828
14239056260
14239059312
14239066147
14239071519
14239078293
14239082810
14239087632
14239094040
14239098130
14239105576
14239110032
14239116929
14239121750
14239126999
14239132859
14239139451
14239146714
14239152573
14239157822
14239163742
14239169907
14239174912
14239178696
14239184372
14239190476
14239197068
14239200058
14239209824
14239216660
14239223374
14239229904
14239237595
14239242356
14239248459
14239254990
14239261093
14239266281
14239271164
14239277634
14239283859
14239287827
14239293930
14239298996
14239304794
14239309433
14239314743
14239318893
14239323715
14239330429
14239335007
14239340012
14239345627
14239349838
14239355881
14239360336
14239367599
14239373825
14239378647
14239384628
14239388962
14239394150
14239399826
14239404465
14239409530
14239415085
14239421798
14239426498
14239431808
14239436752
14239441818
14239446212
14239453476
14239461471
14239466842
14239473007
14239477584
14239482956
14239487960
14239492355
14239500717
14239507858
14239513046
14239521896
14239527450
14239535873
14239541427
14239550033
14239556686
14239562850
14239567550
14239572738
14239579208
14239584640
14239589034
14239595260
14239599777
14239604110
14239610091
14239614913
14239620895
14239626815
14239632003
14239637923
14239642745
14239648055
14239653792
14239658492
14239664413
14239667403
14239674239
14239680648
14239686507
14239692489
14239696883
14239701461
14239706832
14239713607
14239717086
14239723372
14239728133
14239735640
14239740828
14239746261
14239752547
14239758223
14239764022
14239769820
14239775679
14239781478
14239787032
14239794356
14239799727
14239806014
14239810836
14239816939
14239820296
14239827681
14239832076
14239838423
14239844344
14239849654
14239854964
14239861006
14239867110
14239873885
14239879195
14239883894
14239890669
14239893843
14239901595
14239906844
14239913680
14239920271
14239924666
14239929243
14239937239
14239942061
14239947188
14239952620
14239957564
14239963789
14239969160
14239976179
14239981734
14239987532
14239993818
14239999617
14240005903
14240010420
14240016340
14240023604
14240029768
14240035017
14240041975
14240047041
14240053816
14240061018
14240066084
14240073652
14240078962
14240083723
14240089277
14240098127
14240104414
14240111433
14240118330
14240125410
14240133467
14240140241
14240148725
14240155012
14240161726
14240166548
14240171247
14240178449
14240183637
14240190168
14240194196
14240201704
14240206892
14240213483
14240217390
14240224775
14240230634
14240235883
14240240217
14240245466
14240251447
14240257429
14240262556
14240268659
14240274213
14240278486
14240285261
14240292097
14240297284
14240300886
14240308637
14240314924
14240322309
14240326398
14240334150
14240338666
14240346051
14240351117
14240357160
14240363874
14240371869
14240378095
14240383222
14240388593
14240393659
14240396283
14240403302
14240407392
14240414044
14240417401
14240425275
14240429730
14240436627
14240440778
14240446454
14240452252
14240456037
14240463239
14240468488
14240474286
14240480023
14240484052
14240488629
14240495038
14240499799
14240504865
14240510297
14240516644
14240523114
14240527142
14240532513
14240537152
14240541363
14240548932
14240554730
14240559918
14240565167
14240569806
14240575665
14240580243
14240582989
14240589337
14240594830
14240601971
14240606976
14240611859
14240617901
14240622174
14240627057
14240634320
14240641339
14240648968
14240657086
14240663372
14240669964
14240676617
14240682293
14240689434
14240698101
14240712872
14240721112
14240729534
14240739605
14240749432
14240757305
14240766216
14240773968
14240780377
14240789043
14240795513
14240803020
14240809185
14240813213
14240817669
14240824688
14240830181
14240836162
14240840313
14240845684
14240851910
14240857281
14240862591
14240869121
14240873333
14240878216
14240883770
14240891094
14240897014
14240903484
14240909832
14240914837
14240921245
14240928020
14240933269
14240939068
14240943828
14240948589
14240955486
14240960430
14240967998
14240974468
14240978374
14240984966
14240989910
14240997112
14241002239
14241006877
14241014018
14241019817
14241024089
14241028484
14241035747
14241041484
14241046611
14241050701
14241056194
14241061321
14241066509
14241071086
14241076701
14241083415
14241089885
14241095073
14241099223
14241105083
14241110332
14241115337
14241121135
14241128032
14241133891
14241139445
14241144633
14241150066
14241155315
14241162089
14241165446
14241173747
14241180156
14241184367
14241189433
14241196940
14241202006
14241208476
14241213115
14241218913
14241226848
14241231059
14241236247
14241243327
14241249980
14241255351
14241261271
14241266886
14241272136
14241277323
14241284343
14241289958
14241293925
14241301615
14241308085
14241313334
14241319071
14241327433
14241332499
14241338236
14241345011
14241352274
14241361430
14241365336
14241373209
14241378581
14241383524
14241390482
14241395426
14241401713
14241406596
14241414652
14241421854
14241426188
14241432780
14241439555
14241444987
14241450053
14241455241
14241460978
14241466715
14241470988
14241475687
14241481669
14241488016
14241492960
14241498514
14241505289
14241508890
14241516031
14241520243
14241526529
14241531473
14241539713
14241546305
14241553019
14241558146
14241563089
14241568582
14241575113
14241580362
14241585855
14241592691
14241598795
14241604410
14241609354
14241612955
14241622843
14241628397
14241633768
14241639627
14241646341
14241651773
14241657266
14241663126
14241668375
14241675272
14241680643
14241686380
14241691324
14241696268
14241701639
14241707986
14241713602
14241719034
14241725198
14241730203
14241737161
14241740396
14241748086
14241753824
14241760538
14241764078
14241771463
14241777505
14241783548
14241788125
14241793008
14241800271
14241805765
14241811258
14241817056
14241822427
14241828531
14241834817
14241839212
14241845132
14241849832
14241856240
14241863382
14241869058
14241875528
14241879922
14241887185
14241891641
14241895913
14241900369
14241908670
14241915689
14241923379
14241928628
14241935037
14241943032
14241948403
14241955117
14241963357
14241970498
14241976785
14241982156
14241987344
14241991616
14241996316
14242002785
14242009377
14242015298
14242021035
14242025918
14242031777
14242037392
14242042092
14242048318
14242051125
14242061379
14242065529
14242071389
14242076272
14242081460
14242087319
14242093972
14242097695
14242106362
14242110756
14242116066
14242120583
14242126503
14242131020
14242137368
14242143593
14242149453
14242156594
14242161415
14242169716
14242174721
14242182228
14242186989
14242195046
14242200173
14242205544
14242208290
14242217262
14242221474
14242227028
14242232460
14242236183
14242243691
14242249855
14242252846
14242260231
14242265785
14242269814
14242275490
14242280251
14242287087
14242292885
14242298439
14242303810
14242307838
14242312111
14242319496
14242325539
14242332436
14242336464
14242344276
14242349098
14242356056
14242362404
14242367653
14242375648
14242382362
14242389137
14242392555
14242400551
14242405128
14242410560
14242418373
14242421913
14242430397
14242435218
14242441017
14242448524
14242454322
14242458595
14242464881
14242471717
14242478370
14242484169
14242489112
14242494606
14242500892
14242507240
14242512672
14242521522
14242527931
14242533241
14242541664
14242545753
14242553199
14242556800
14242565284
14242570106
14242576514
14242580787
14242585731
14242592139
14242595863
14242601966
14242606971
14242612769
14242619178
14242624671
14242628333
14242633704
14242640418
14242646400
14242650733
14242656409
14242662025
14242667701
14242672645
14242677711
14242683021
14242688819
14242692542
14242699378
14242704993
14242709632
14242715430
14242721351
14242725013
14242733985
14242738684
14242744117
14242750525
14242756751
14242763160
14242769019
14242775061
14242781836
14242787390
14242792090
14242798438
14242804846
14242811255
14242814490
14242822791
14242828833
14242835425
14242838843
14242845496
14242851111
14242857214
14242863806
14242869544
14242875098
14242880896
14242886633
14242891638
14242897681
14242903540
14242909949
14242916052
14242920508
14242927527
14242933264
14242938757
14242944739
14242949560
14242956030
14242960852
14242967200
14242973608
14242979284
14242984839
14242989721
14242996618
14243001867
14243008093
14243013464
14243019873
14243026159
14243032507
14243038244
14243042761
14243051550
14243055822
14243063574
14243069311
14243075598
14243081274
14243087988
14243093725
14243098547
14243105444
14243112158
14243123815
14243130224
14243135473
14243143896
14243148229
14243155737
14243160925
14243168554
14243175390
14243180395
14243188635
14243193456
14243199377
14243204870
14243212255
14243217016
14243223180
14243227392
14243231969
14243239049
14243243749
14243250707
14243255285
14243261693
14243265661
14243271825
14243276159
14243281041
14243286168
14243294042
14243297582
14243303930
14243310521
14243316259
14243323766
14243330053
14243335607
14243342199
14243349462
14243354467
14243360814
14243368688
14243372472
14243379186
14243384069
14243389318
14243395909
14243400548
14243406590
14243414830
14243420812
14243427037
14243432042
14243436559
14243442296
14243447118
14243454564
14243460851
14243468297
14243474095
14243479100
14243484532
14243490392
14243496434
14243500645
14243508580
14243517491
14243524998
14243532262
14243538914
14243546116
14243554051
14243561192
14243569249
14243576268
14243585606
14243600194
14243608067
14243615880
14243624485
14243630711
14243635106
14243640416
14243645543
14243650364
14243654820
14243660008
14243665745
14243670628
14243675450
14243680210
14243684666
14243689060
14243694371
14243699803
14243705052
14243710118
14243715061
14243720555
14243726414
14243733006
14243738499
14243745579
14243750462
14243755894
14243761814
14243767796
14243772068
14243778233
14243783604
14243787876
14243790195
14243797642
14243801670
14243806797
14243810154
14243815952
14243819736
14243824863
14243829258
14243834446
14243839268
14243842686
14243847690
14243853123
14243913486
14243919284
14243922825
14243927219
14243931369
14243935459
14243939975
14243943821
14243947361
14243950840
14243955112
14243958164
14243961887
14243965061
14243969089
14243972690
14243975742
14243979892
14243983249
14243987400
14243991428
14243996433
14243999912
14244003513
14244009921
14244015476
14244021091
14244026584
14244032810
14244038059
14244042148
14244047275
14244052219
14244057102
14244060764
14244065646
14244069370
14244074496
14244079135
14244083591
14244088107
14244092563
14244097018
14244101230
14244106784
14244109714
14244115817
14244121005
14244127597
14244132297
14244139316
14244143283
14244150302
14244155185
14244160739
14244166293
14244171115
14244176120
14244180819
14244185702
14244191012
14244196200
14244199984
14244205294
14244209018
14244214572
14244220004
14244224765
14244229647
14244234774
14244239840
14244245028
14244249911
14244255099
14244259860
14244264865
14244269870
14244274386
14244280917
14244284823
14244289523
14244295016
14244299044
14244303683
14244308993
14244313449
14244318087
14244324740
14244329196
14244334811
14244339022
14244345309
14244351107
14244356661
14244360323
14244366061
14244373446
14244378207
14244384005
14244389925
14244394076
14244400484
