14309516529
14309522388
14309526722
14309532032
14309537464
14309542163
14309546558
14309552478
14309558094
14309562549
14309567432
14309573841
14309580554
14309587940
14309594409
14309600513
14309607837
14309614490
14309621326
14309629565
14309638110
14309645129
14309652698
14309660571
14309666980
14309673511
14309682361
14309690173
14309698779
14309705493
14309713672
14309722766
14309732043
14309740161
14309751391
14309761340
14309770739
14309781665
14309794421
14309805468
14309815112
14309824755
14309835192
14309845019
14309854846
14309866259
14309877856
14309886584
14309898791
14309908251
14309918261
14309929797
14309936083
14309948534
14309958483
14309967089
14309983935
14310002062
14310020006
14310035875
14310055651
14310073046
14310090807
14310109117
14310126818
14310140184
14310148729
14310156969
14310164598
14310180162
14310193285
14310206712
14310220506
14310235338
14310250352
14310259019
14310266954
14310275987
14310281969
14310290636
14310299058
14310306688
14310313707
14310321580
14310329332
14310337144
14310344896
14310353685
14310361131
14310368699
14310377305
14310384935
14310392808
14310400377
14310406541
14310414781
14310421434
14310429551
14310439134
14310445848
14310454454
14310461656
14310468247
14310474961
14310485154
14310493150
14310502061
14310510301
14310518235
14310527573
14310535264
14310543809
14310551987
14310560471
14310567673
14310576524
14310584336
14310588303
14310600205
14310607957
14310614243
14310620957
14310629258
14310637925
14310645554
14310652573
14310664231
14310673569
14310681076
14310688401
14310695542
14310703110
14310710801
14310718247
14310727585
14310734055
14310743515
14310749253
14310758713
14310765915
14310773300
14310780747
14310789475
14310797592
14310805527
14310813095
14310820541
14310828110
14310835983
14310845932
14310852829
14310860214
14310869675
14310876572
14310885666
14310893112
14310901901
14310909286
14310918258
14310926254
14310934250
14310942550
14310948776
14310958236
14310964096
14310974167
14310982772
14310990402
14310997543
14311005661
14311014511
14311022201
14311029159
14311038681
14311045272
14311052963
14311061019
14311070297
14311078109
14311084823
14311091720
14311101974
14311109725
14311118514
14311125716
14311133041
14311141769
14311148788
14311156966
14311162032
14311167892
14311170821
14311178207
14311183761
14311188827
14311195235
14311201339
14311206100
14311211226
14311215072
14311219954
14311223495
14311228377
14311232955
14311236556
14311241744
14311245406
14311250594
14311254195
14311258651
14311263778
14311270675
14311276290
14311282454
14311289046
14311296859
14311303572
14311310714
14311319197
14311326522
14311332442
14311339034
14311346968
14311353987
14311360213
14311368514
14311373458
14311380843
14311386580
14311393294
14311398726
14311404829
14311415999
14311423079
14311428999
14311437605
14311445296
14311450423
14311455794
14311463362
14311468184
14311473433
14311478560
14311482893
14311488631
14311492110
14311499556
14311504072
14311509016
14311515120
14311520552
14311524885
14311531111
14311536482
14311542647
14311548689
14311553022
14311558394
14311562727
14311567061
14311573469
14311577864
14311582380
14311587568
14311592207
14311597456
14311602583
14311607099
14311611067
14311616804
14311621992
14311626814
14311630842
14311635847
14311639631
14311644758
14311648969
14311656660
14311660932
14311668318
14311673261
14311679243
14311684065
14311690595
14311696272
14311702253
14311708906
14311715925
14311721418
14311726240
14311730878
14311735273
14311740827
14311745771
14311751630
14311756147
14311760908
14311765607
14311769392
14311775251
14311780683
14311785932
14311788373
14311793989
14311798810
14311803205
14311807233
14311811933
14311816205
14311821454
14311826520
14311833112
14311838056
14311844159
14311850446
14311856733
14311861982
14311867475
14311871747
14311877546
14311883161
14311889386
14311894696
14311899945
14311904584
14311911542
14311915815
14311921369
14311926313
14311932538
14311937665
14311943585
14311950360
14311954206
14311960492
14311964459
14311971356
14311977277
14311982526
14311988690
14311994855
14311999921
14312007428
14312011945
14312019147
14312024762
14312030743
14312035992
14312043622
14312050275
14312056317
14312062360
14312068402
14312071942
14312080365
14312085004
14312090924
14312097943
14312103619
14312111127
14312115765
14312122906
14312127911
14312133832
14312140240
14312145855
14312151349
14312157452
14312164776
14312170269
14312175457
14312181927
14312188153
14312194561
14312200238
14312206402
14312210797
14312217083
14312221905
14312228802
14312234905
14312243572
14312253826
14312262982
14312271404
14312280132
14312284466
14312300945
14312309856
14312316387
14312325726
14312331951
14312338238
14312347027
14312353069
14312361614
14312368084
14312376995
14312382915
14312391765
14312398907
14312405865
14312413006
14312419964
14312429790
14312437114
14312443157
14312450237
14312453167
14312462017
14312468486
14312474590
14312480266
14312484783
14312491497
14312495708
14312501018
14312506206
14312511638
14312516826
14312521831
14312529644
14312534343
14312540142
14312546123
14312552165
14312557842
14312563762
14312569438
14312573589
14312582195
14312587200
14312592449
14312599651
14312604228
14312608806
14312615581
14312620830
14312628154
14312633098
14312638652
14312644084
14312650798
14312656169
14312660564
14312666179
14312672832
14312678691
14312683452
14312689738
14312694560
14312698710
14312703593
14312710429
14312714519
14312719645
14312727702
14312733439
14312739116
14312744121
14312750285
14312756022
14312760173
14312767070
14312772807
14312779338
14312783732
14312789714
14312793742
14312801860
14312807414
14312812663
14312819499
14312824504
14312830851
14312835551
14312840068
14312845744
14312851054
14312857157
14312862040
14312868937
14312875651
14312881938
14312889445
14312894633
14312901530
14312907694
14312916178
14312921854
14312928385
14312934916
14312941019
14312947611
14312951945
14312958842
14312963175
14312969401
14312974589
14312981180
14312985514
14312990214
14312996866
14313001566
14313008951
14313014750
14313019877
14313025126
14313030802
14313035990
14313040751
14313044962
14313051249
14313057901
14313063822
14313068705
14313073282
14313078409
14313084269
14313091776
14313097757
14313102640
14313106974
14313115030
14313119303
14313126200
14313130411
14313137125
14313140177
14313149332
14313153421
14313159159
14313162637
14313171610
14313176370
14313182901
14313188822
14313193216
14313200845
14313205972
14313212259
14313216715
14313223123
14313228372
14313235269
14313241067
14313248514
14313253763
14313258340
14313263345
14313269083
14313276407
14313283670
14313288736
14313293497
14313300271
14313306009
14313312112
14313317666
14313323709
14313331277
14313339456
14313346963
14313355203
14313363443
14313372049
14313378640
14313387368
14313394082
14313403482
14313410134
14313419656
14313427651
14313435098
14313444863
14313452981
14313460732
14313469094
14313476724
14313485574
14313493264
14313500588
14313508828
14313515603
14313524331
14313530862
14313539651
14313545327
14313556008
14313564309
14313571816
14313577737
14313581277
14313589882
14313595009
14313604165
14313609841
14313614724
14313619607
14313626198
14313631875
14313637307
14313643044
14313647744
14313651955
14313656777
14313661416
14313667458
14313672097
14313678200
14313683388
14313688820
14313694069
14313699440
14313702370
14313709450
14313714821
14313721108
14313726845
14313732033
14313736733
14313742409
14313746742
14313753823
14313758400
14313763344
14313771767
14313775856
14313782997
14313788246
14313794838
14313799233
14313806618
14313809975
14313817299
14313823647
14313831764
14313837746
14313843849
14313849098
14313853554
14313860207
14313864540
14313872169
14313876686
14313882789
14313889625
14313895057
14313899879
14313906715
14313912819
14313918739
14313923866
14313928566
14313934608
14313939247
14313944923
14313951088
14313956520
14313962989
14313969459
14313975807
14313981239
14313985206
14313991615
14313997352
14314003334
14314008399
14314014015
14314021522
14314027748
14314033607
14314039649
14314042884
14314050270
14314055091
14314062843
14314068214
14314075111
14314082435
14314088294
14314094703
14314100318
14314108436
14314113013
14314120887
14314127723
14314134864
14314139930
14314146400
14314153358
14314158790
14314164283
14314171912
14314175330
14314184791
14314190833
14314198218
14314203467
14314211890
14314217200
14314223426
14314227759
14314233741
14314240455
14314244605
14314251319
14314256751
14314262244
14314267920
14314272803
14314276831
14314283789
14314288916
14314294593
14314299964
14314305457
14314310584
14314316626
14314321631
14314327246
14314332007
14314337439
14314343543
14314348853
14314355506
14314359229
14314365027
14314372839
14314378088
14314383643
14314389136
14314394934
14314400732
14314405188
14314411475
14314416602
14314422583
14314430090
14314438269
14314446204
14314456763
14314463904
14314472143
14314480200
14314489111
14314496985
14314505407
14314513281
14314521399
14314525793
14314536596
14314543127
14314552282
14314558996
14314566504
14314576269
14314584204
14314591711
14314600073
14314607763
14314616308
14314622534
14314631567
14314637609
14314645422
14314650915
14314655615
14314661474
14314667883
14314674169
14314679601
14314683752
14314690954
14314698583
14314702612
14314708105
14314714941
14314720800
14314726171
14314731664
14314738439
14314743078
14314748998
14314755224
14314760900
14314766515
14314774389
14314780431
14314784460
14314790380
14314795995
14314802465
14314805700
14314813939
14314819921
14314825048
14314834447
14314838659
14314844274
14314851659
14314856542
14314863378
14314870214
14314878453
14314886327
14314890599
14314896031
14314901647
14314908788
14314912328
14314919469
14314924413
14314929235
14314934972
14314940892
14314946141
14314951634
14314955846
14314961278
14314966466
14314972203
14314976659
14314982579
14314988011
14314995030
14314999425
14315004063
14315009435
14315015843
14315021764
14315027745
14315032689
14315037389
14315045506
14315049779
14315056493
14315060704
14315068089
14315071385
14315079198
14315084874
14315089451
14315095067
14315102025
14315106663
14315113865
14315119786
14315125157
14315130650
14315137303
14315143773
14315147618
14315153599
14315159825
14315165989
14315172215
14315179051
14315184605
14315188999
14315194065
14315200108
14315208531
14315213413
14315220371
14315224522
14315230808
14315236119
14315242466
14315247959
14315254734
14315260960
14315265476
14315270786
14315277317
14315283543
14315289341
14315294224
14315298313
14315306797
14315312412
14315318333
14315322666
14315329258
14315336216
14315342380
14315347446
14315352512
14315357822
14315366611
14315371433
14315377659
14315383030
14315389255
14315394871
14315400608
14315406162
14315412388
14315419285
14315424289
14315430393
14315435947
14315443699
14315450168
14315455112
14315460605
14315470310
14315478794
14315485569
14315491062
14315497165
14315502964
14315509006
14315515293
14315520297
14315525485
14315532443
14315536472
14315544162
14315550876
14315557651
14315565402
14315572421
14315579501
14315587131
14315594333
14315602084
14315610873
14315616550
14315624911
14315632846
14315639926
14315647372
14315655307
14315663364
14315671298
14315677524
14315686130
14315695041
14315701510
14315710360
14315717929
14315726291
14315733737
14315740878
14315749179
14315753573
14315761020
14315766452
14315772128
14315776095
14315782626
14315786044
14315791659
14315796115
14315804415
14315810702
14315816378
14315820895
14315826144
14315830233
14315834933
14315841220
14315847445
14315851656
14315858248
14315863436
14315867159
14315872958
14315877596
14315883700
14315889803
14315896761
14315901095
14315908236
14315915194
14315920077
14315926607
14315931246
14315938570
14315943148
14315949312
14315955111
14315960543
14315966952
14315971224
14315977511
14315982332
14315988802
14315993746
14315999483
14316005221
14316010470
14316015230
14316021090
14316027376
14316034029
14316039400
14316044405
14316049471
14316054232
14316060030
14316065462
14316069124
14316076754
14316084322
14316090547
14316097444
14316103853
14316111299
14316118502
14316124483
14316132356
14316139314
14316144441
14316149080
14316155061
14316161104
14316166963
14316171785
14316177339
14316182283
14316187410
14316192598
14316197542
14316202180
14316209749
14316215120
14316222322
14316227022
14316233491
14316238069
14316242525
14316249055
14316254304
14316260713
14316266328
14316273042
14316277681
14316283723
14316288423
14316294954
14316300752
14316307405
14316313752
14316319612
14316324373
14316332368
14316337190
14316343721
14316348481
14316354646
14316360566
14316369050
14316373872
14316379792
14316384980
14316391450
14316397798
14316403718
14316409150
14316413850
14316419770
14316426850
14316433442
14316438752
14316444917
14316450349
14316456880
14316464509
14316470673
14316477143
14316483064
14316486482
14316492646
14316497712
14316503388
14316507722
14316513703
14316519135
14316524445
14316529999
14316534882
14316539338
14316543793
14316551240
14316556794
14316561188
14316567719
14316573456
14316581391
14316588654
14316593720
14316600800
14316606659
14316611664
14316621979
14316629120
14316637116
14316643708
14316650483
14316660370
14316668244
14316675934
14316685150
14316692597
14316698578
14316708649
14316716278
14316729218
14316737030
14316748322
14316760590
14316769745
14316779144
14316785919
14316795929
14316802094
14316811493
14316817230
14316824310
14316831024
14316837128
14316843841
14316849151
14316854156
14316859894
14316863617
14316870758
14316875152
14316882843
14316887970
14316893463
14316898285
14316903717
14316906891
14316915008
14316921966
14316928070
14316931366
14316939117
14316944976
14316952789
14316957977
14316963287
14316968658
14316975616
14316982086
14316988067
14316994537
14316999176
14317006500
14317011260
14317017120
14317023345
14317030364
14317036102
14317040435
14317047027
14317051605
14317059295
14317063567
14317070037
14317076690
14317083404
14317087127
14317094207
14317099151
14317106292
14317111602
14317117278
14317124053
14317128448
14317132964
14317140472
14317145537
14317151336
14317158843
14317164580
14317169524
14317175933
14317181914
14317187957
14317193450
14317199431
14317205413
14317211333
14317217864
14317224517
14317229705
14317234465
14317242644
14317247649
14317255156
14317260161
14317265288
14317273101
14317278411
14317284331
14317289763
14317297087
14317300749
14317315825
14317321868
14317332366
14317337187
14317344023
14317348357
14317354033
14317356780
14317368193
14317378752
14317384062
14317390532
14317395781
14317401701
14317408171
14317416228
14317420988
14317427275
14317432219
14317437895
14317444182
14317449248
14317454436
14317459196
14317462919
14317468718
14317473479
14317478972
14317484831
14317489042
14317494902
14317499479
14317504484
14317509977
14317514250
14317519865
14317524809
14317530241
14317535368
14317540556
14317545378
14317550016
14317555449
14317561308
14317568266
14317574003
14317578642
14317583708
14317588407
14317592192
14317597013
14317603971
14317609953
14317616239
14317622221
14317627104
14317632719
14317635526
14317645658
14317651273
14317658903
14317664091
14317670622
14317677091
14317681303
14317687162
14317695951
14317705717
14317711820
14317720670
14317727445
14317734830
14317740934
14317750516
14317757535
14317767911
14317774808
14317785489
14317796476
14317804838
14317812833
14317820585
14317829862
14317838407
14317844205
14317852933
14317858487
14317867765
14317873990
14317882779
14317887540
14317893521
14317894925
14317902616
14317906583
14317911771
14317917081
14317923673
14317929715
14317935636
14317941007
14317946988
14317952603
14317959317
14317963101
14317973172
14317979276
14317983975
14317989346
14317994107
14317999966
14318005338
14318009976
14318016019
14318020169
14318026395
14318030423
14318037137
14318042996
14318047024
14318051602
14318056851
14318060269
14318065274
14318069119
14318074307
14318078091
14318084256
14318090725
14318095364
14318100613
14318107144
14318111722
14318118496
14318123074
14318127652
14318132290
14318138516
14318143338
14318148587
14318154568
14318160488
14318165982
14318171780
14318178189
14318183682
14318188443
14318194851
14318202175
14318208157
14318214504
14318218716
14318224941
14318232205
14318235378
14318242397
14318247158
14318253262
14318258938
14318263638
14318270229
14318276638
14318281094
14318287197
14318293850
14318299831
14318305080
14318309658
14318316555
14318322292
14318328701
14318334560
14318353237
14318358791
14318365383
14318370083
14318376858
14318382473
14318388210
14318393825
14318399257
14318406582
14318412014
14318417385
14318423061
14318429409
14318434963
14318440944
14318446071
14318452846
14318458339
14318462307
14318467739
14318476100
14318481838
14318486965
14318492336
14318498317
14318504421
14318510707
14318515712
14318520961
14318530849
14318536647
14318543483
14318550136
14318553920
14318561610
14318566737
14318574428
14318579860
14318586574
14318591884
14318597133
14318602077
14318607997
14318614040
14318619289
14318624660
14318631679
14318635707
14318641810
14318648219
14318653041
14318657558
14318664210
14318670009
14318675807
14318680812
14318686061
14318691127
14318697658
14318702540
14318708339
14318712672
14318717921
14318722438
14318728114
14318736659
14318743739
14318753505
14318763880
14318772608
14318780238
14318786708
14318793360
14318797450
14318808619
14318812647
14318824366
14318831568
14318839808
14318849879
14318856898
14318864832
14318871973
14318879237
14318888148
14318896632
14318902857
14318911585
14318917933
14318924830
14318931849
14318936121
14318942286
14318947169
14318954371
14318959620
14318964380
14318968592
14318974451
14318981226
14318987024
14318993189
14318998438
14319002771
14319007654
14319012537
14319017908
14319022181
14319029322
14319034998
14319040857
14319043970
14319050745
14319055140
14319060694
14319065882
14319072596
14319077539
14319082788
14319087610
14319092310
14319098352
14319103235
14319108545
14319114038
14319121790
14319124841
14319132959
14319138696
14319144739
14319151025
14319159692
14319166467
14319172876
14319181970
14319188623
14319192712
14319197900
14319204492
14319208948
14319216516
14319222192
14319226160
14319230615
14319237207
14319244043
14319247583
14319253869
14319259485
14319264734
14319271509
14319275903
14319280969
14319286157
14319292077
14319298242
14319302514
14319309228
14319313989
14319318689
14319323938
14319328393
14319333764
14319338464
14319344690
14319350488
14319356774
14319362146
14319366235
14319371850
14319377099
14319384118
14319390161
14319395227
14319401391
14319408105
14319414025
14319417932
14319424706
14319429284
14319435449
14319440576
14319447106
14319452477
14319459435
14319465356
14319469933
14319477563
14319482751
14319487939
14319493676
14319500451
14319504784
14319510644
14319516930
14319522423
14319527062
14319533837
14319539391
14319547448
14319552086
14319557519
14319562890
14319568871
14319574364
14319580712
14319585656
14319592125
14319596520
14319604271
14319607567
14319613244
14319620385
14319626183
14319632164
14319637291
14319643822
14319649315
14319654076
14319658287
14319664269
14319669030
14319675011
14319681725
14319689659
14319693260
14319700707
14319706444
14319711815
14319716454
14319721764
14319727623
14319734032
14319742577
14319750328
14319756798
14319764488
14319772423
14319779625
14319783531
14319794029
14319801781
14319809593
14319816612
14319824181
14319833702
14319840660
14319850120
14319857811
14319870140
14319876243
14319887535
14319895652
14319902916
14319910240
14319917015
14319924400
14319930626
14319937522
14319944114
14319949729
14319957237
14319964561
14319970787
14319977378
14319983787
14319989402
14319995017
14320000389
14320005088
14320008689
14320015586
14320020347
14320025596
14320031333
14320036826
14320042808
14320045982
14320052329
14320056297
14320063133
14320067466
14320073264
14320078513
14320084312
14320088401
14320093162
14320098899
14320103355
14320108543
14320113731
14320121299
14320126487
14320132529
14320137839
14320145041
14320151511
14320156028
14320161155
14320166648
14320171775
14320177390
14320183982
14320189475
14320194419
14320200217
14320205222
14320213523
14320218283
14320224753
14320230063
14320235190
14320242514
14320247458
14320252768
14320259543
14320265952
14320272483
14320278220
14320283530
14320289145
14320294943
14320300437
14320307089
14320313071
14320318442
14320324362
14320331442
14320338706
14320343649
14320350607
14320357504
14320364645
14320370139
14320377341
14320382773
14320389243
14320398337
14320405356
14320412131
14320417380
14320422079
14320427573
14320431662
14320437582
14320441916
14320448263
14320453085
14320463217
14320469381
14320473959
14320480734
14320485190
14320490683
14320495382
14320500082
14320505453
14320510946
14320516195
14320522055
14320526754
14320531393
14320537313
14320543661
14320551046
14320557516
14320561300
14320565451
14320571981
14320576010
14320581930
14320586080
14320593160
14320599081
14320604513
14320608602
14320613546
14320619406
14320624471
14320630087
14320634481
14320642843
14320648519
14320653585
14320658285
14320665731
14320670187
14320675802
14320681356
14320687154
14320693868
14320697958
14320704488
14320710104
14320714681
14320719747
14320726888
14320730977
14320738790
14320743368
14320749105
14320755391
14320760518
14320765096
14320772909
14320777791
14320786214
14320790853
14320796651
14320802999
14320808553
14320811971
14320818746
14320823873
14320835347
14320839559
14320849324
14320855245
14320863484
14320871663
14320878804
14320884664
14320896077
14320903829
14320911031
14320916829
14320924764
14320930684
14320940022
14320948079
14320956197
14320966328
14320974141
14320982381
14320989522
14321001973
14321009297
14321018147
14321028035
14321035969
14321039326
14321049092
14321055256
14321061543
14321066121
14321072773
14321079426
14321085164
14321090962
14321096333
14321100666
14321107869
14321113362
14321120381
14321125569
14321132527
14321139119
14321145832
14321151265
14321156819
14321161518
14321167988
14321172322
14321178242
14321182453
14321188923
14321193012
14321199177
14321203938
14321212971
14321218037
14321223530
14321230122
14321236408
14321242634
14321248798
14321254963
14321262898
14321268391
14321274433
14321279682
14321286457
14321291157
14321298481
14321303303
14321309345
14321317280
14321321613
14321328205
14321333332
14321338459
14321342914
14321350483
14321355915
14321361896
14321365131
14321372577
14321378803
14321383625
14321388141
14321394733
14321399128
14321405658
14321412616
14321417621
14321424579
14321429462
14321435993
14321440387
14321448200
14321454120
14321461139
14321468158
14321473041
14321480304
14321485065
14321490558
14321497577
14321503803
14321510883
14321515766
14321522418
14321528583
14321533771
14321538165
14321543781
14321549945
14321556781
14321563129
14321568988
14321571918
14321579791
14321587360
14321593280
14321600238
14321607623
14321613971
14321619830
14321626483
14321630633
14321638446
14321644855
14321649676
14321655719
14321661456
14321666339
14321674457
14321678180
14321684527
14321690020
14321696307
14321701800
14321706927
14321709796
14321717791
14321721881
14321728045
14321732196
14321738604
14321743182
14321749835
14321754290
14321759844
14321765765
14321770220
14321774920
14321781878
14321787921
14321793597
14321800128
14321804156
14321809405
14321815753
14321820941
14321827654
14321834918
14321840228
14321845538
14321852496
14321858233
14321863421
14321869891
14321875567
14321881853
14321887286
14321893694
14321900164
14321906328
14321916033
14321923846
14321932390
14321937456
14321948687
14321957232
14321964495
14321971941
14321980486
14321987139
14321996843
14322003191
14322013079
14322019182
14322024675
14322033953
14322040728
14322052568
14322058977
14322065630
14322071245
14322081316
14322088579
14322095720
14322100908
14322106157
14322112077
14322116960
14322122148
14322126482
14322133074
14322137407
14322143694
14322149553
14322153825
14322157976
14322164629
14322169878
14322174760
14322180742
14322188249
14322196489
14322202470
14322210039
14322216020
14322223527
14322231157
14322238176
14322246477
14322252885
14322259111
14322264116
14322269792
14322274431
14322282243
14322288591
14322294633
14322299028
14322306596
14322311845
14322318437
14322323930
14322330217
14322335221
14322340715
14322345964
14322351335
14322356401
14322362870
14322369401
14322376969
14322380021
14322386857
14322391191
14322397477
14322403520
14322407304
14322414567
14322418778
14322425736
14322434770
14322439286
14322445695
14322450333
14322455766
14322460160
14322467789
14322472733
14322478471
14322484147
14322488175
14322492448
14322499772
14322504227
14322512223
14322517899
14322523392
14322528458
14322533768
14322537125
14322543351
14322548661
14322553849
14322558671
14322563859
14322569169
14322574112
14322579178
14322584733
14322589615
14322595780
14322600846
14322605851
14322610550
14322615860
14322621720
14322627091
14322631485
14322637162
14322642289
14322649369
14322653397
14322658341
14322663712
14322669205
14322674759
14322681595
14322687088
14322692764
14322698075
14322703018
14322707413
14322713028
14322716995
14322725906
14322730240
14322737320
14322741287
14322747269
14322754776
14322764420
14322773392
14322780350
14322788834
14322795120
14322801712
14322809708
14322814590
14322818985
14322823929
14322830520
14322836136
14322840713
14322845779
14322852737
14322859573
14322863662
14322869034
14322876175
14322880569
14322887344
14322891678
14322896682
14322903030
14322909378
14322917312
14322923416
14322929214
14322937637
14322943191
14322950393
14322958999
14322967422
14322974685
14322982131
14322985610
14322996963
14323003738
14323010940
14323017776
14323028823
14323034622
14323043899
14323050979
14323058974
14323065993
14323072646
14323078262
14323088332
14323094436
14323103652
14323108352
14323113967
14323118911
14323123794
14323129653
14323134719
14323139724
14323145034
14323151015
14323156081
14323160537
14323165542
14323170180
14323177871
14323181655
14323188430
14323192397
14323197829
14323202224
14323206862
14323213088
14323217360
14323224440
14323229689
14323235549
14323241347
14323246108
14323250502
14323257155
14323262587
14323267653
14323273146
14323277785
14323283766
14323288222
14323292555
14323298781
14323303481
14323310927
14323316054
14323323073
14323327284
14323332228
14323336806
14323342360
14323346205
14323353224
14323361403
14323367873
14323375746
14323381117
14323386549
14323394301
14323401137
14323406752
14323413832
14323418776
14323425368
14323429884
14323435744
14323441115
14323446547
14323453261
14323458082
14323463270
14323469496
14323474440
14323479506
14323485853
14323492445
14323498671
14323502760
14323509779
14323513868
14323519850
14323526380
14323530714
14323535047
14323540663
14323546034
14323554273
14323559461
14323564405
14323570875
14323574659
14323581495
14323587660
14323593641
14323598768
14323605238
14323610487
14323616834
14323622938
14323628858
14323632032
14323640455
14323646436
14323652906
14323657606
14323662916
14323669141
14323676405
14323681959
14323687452
14323694837
14323700757
14323707471
14323712598
14323718641
14323723646
14323730421
14323734083
14323741468
14323746106
14323751661
14323759351
14323764051
14323769727
14323776380
14323781324
14323790662
14323797071
14323801465
14323807203
14323814099
14323821851
14323826551
14323832715
14323835706
14323845960
14323850415
14323856214
14323862256
14323868176
14323871839
14323878797
14323883435
14323891919
14323897351
14323904309
14323909314
14323916699
14323921643
14323927441
14323932813
14323939343
14323945691
14323951550
14323956860
14323961255
14323967541
14323980359
14323986584
14324000073
14324008923
14324018384
14324031506
14324039074
14324048291
14324057751
14324063305
14324071606
14324078259
14324084790
14324091748
14324099926
14324106091
14324114758
14324121960
14324129345
14324137463
14324145397
14324151196
14324158947
14324164257
14324170910
14324177075
14324182018
14324187695
14324195263
14324201000
14324205456
14324210827
14324217602
14324222424
14324229626
14324233410
14324240185
14324244640
14324251049
14324255444
14324262341
14324268932
14324273205
14324278271
14324284130
14324289257
14324293651
14324299572
14324304455
14324311107
14324316784
14324320812
14324327282
14324332775
14324339000
14324345470
14324350841
14324356456
14324361889
14324366649
14324372020
14324376903
14324382579
14324389660
14324395397
14324400341
14324405712
14324410534
14324415294
14324421459
14324427379
14324433483
14324438671
14324443492
14324449413
14324455516
14324461498
14324467540
14324476024
14324481578
14324486827
14324492198
14324498485
14324501842
14324511974
14324514903
14324525096
14324530406
14324536937
14324542003
14324548534
14324551463
14324559703
14324565684
14324573497
14324581981
14324588573
14324595286
14324602122
14324607493
14324615733
14324621776
14324627452
14324632762
14324638194
14324644298
14324649486
14324655162
14324659678
14324664866
14324671031
14324675181
14324681224
14324686168
14324692759
14324696238
14324702464
14324706736
14324712901
14324718150
14324723399
14324729075
14324734812
14324740855
14324745921
14324749705
14324756114
14324761485
14324767344
14324773875
14324779795
14324784678
14324790537
14324795664
14324802744
14324807932
14324812266
14324820261
14324824595
14324831553
14324836070
14324841929
14324848277
14324853831
14324859507
14324865488
14324871409
14324877268
14324882212
14324887217
14324894724
14324900400
14324905283
14324912180
14324916758
14324922922
14324928049
14324936533
14324943125
14324948313
14324955149
14324960703
14324966990
14324974497
14324979929
14324983286
14324991770
14324998301
14325005747
14325009470
14325019297
14325025949
14325036203
14325042734
14325050058
14325057749
14325066965
14325074961
14325080942
14325088999
14325097849
14325106149
14325113168
14325121225
14325128366
14325138864
14325148019
14325156076
14325162546
14325172006
14325178476
14325187692
14325194223
14325201791
14325211740
14325218820
14325226022
14325230722
14325236825
14325243661
14325248666
14325253976
14325264352
14325271127
14325278878
14325284616
14325290414
14325296762
14325303292
14325308847
14325314767
14325318795
14325324166
14325330026
14325336434
14325342416
14325346566
14325351815
14325360055
14325364572
14325370736
14325375070
14325380013
14325387216
14325392037
14325397286
14325403634
14325410043
14325413827
14325419991
14325425546
14325431527
14325437020
14325442025
14325445931
14325452340
14325457223
14325466073
14325471932
14325477486
14325483346
14325489327
14325494454
14325502511
14325508004
14325514290
14325517953
14325525216
14325531563
14325536568
14325541695
14325549630
14325556221
14325559945
14325566475
14325572945
14325578194
14325583870
14325591439
14325597420
14325604500
14325610543
14325617440
14325622872
14325629341
14325635384
14325640328
14325647286
14325652779
14325658455
14325663765
14325670601
14325675118
14325682442
14325686714
14325694405
14325699043
14325705696
14325710823
14325716377
14325721199
14325726509
14325733040
14325739632
14325744270
14325750801
14325755928
14325763496
14325766426
14325772407
14325778389
14325785347
14325790840
14325796333
14325801521
14325806648
14325809395
14325816658
14325820747
14325828987
14325835945
14325841865
14325849189
14325856331
14325863899
14325870063
14325876777
14325883491
14325890449
14325893623
14325899177
14325903633
14325910469
14325915779
14325920173
14325924507
14325929573
14325934272
14325938423
14325948493
14325953559
14325959419
14325966316
14325971198
14325976386
14325981696
14325990913
14325993842
14326000434
14326004646
14326010078
14326015388
14326020454
14326025703
14326032600
14326038093
14326043403
14326049995
14326057868
14326064338
14326073859
14326080573
14326090217
14326096076
14326105964
14326113227
14326120429
14326129035
14326136664
14326145270
14326152717
14326161628
14326167792
14326174445
14326183234
14326190375
14326197516
14326205146
14326214118
14326221076
14326229560
14326237555
14326244086
14326252875
14326259162
14326266242
14326271552
14326276740
14326283026
14326287726
14326293097
14326299811
14326305731
14326310492
14326315802
14326321906
14326328009
14326335638
14326339362
14326345953
14326353888
14326359381
14326365485
14326371710
14326376776
14326382696
14326387274
14326391974
14326399847
14326402960
14326412543
14326417303
14326424078
14326428045
14326436468
14326441900
14326447638
14326453436
14326463263
14326467718
14326474676
14326480841
14326486090
14326492376
14326498541
14326504827
14326509527
14326515020
14326519842
14326526800
14326533148
14326539068
14326544439
14326549810
14326555120
14326560430
14326566107
14326570745
14326578375
14326584234
14326591619
14326596258
14326602483
14326607732
14326613348
14326618230
14326623846
14326629827
14326637029
14326641790
14326648016
14326654363
14326660039
14326667425
14326674016
14326679937
14326686895
14326693181
14326699285
14326704351
14326710393
14326713933
14326723394
14326728887
14326735906
14326740850
14326746587
14326752141
14326758184
14326763860
14326769048
14326776494
14326782171
14326786199
14326792791
14326799260
14326805181
14326809758
14326816960
14326822942
14326829595
14326834111
14326838811
14326844853
14326852544
14326857366
14326863347
14326869756
14326876225
14326880986
14326886907
14326890325
14326897893
14326904485
14326910527
14326915593
14326920598
14326928960
14326933720
14326938969
14326945439
14326951543
14326957097
14326962712
14326968327
14326975712
14326981572
14326987675
14326992924
14326997929
14327006718
14327012333
14327018254
14327024724
14327029118
14327036320
14327042668
14327049443
14327057255
14327064213
14327070622
14327075993
14327083622
14327090458
14327098393
14327102482
14327110417
14327115422
14327121891
14327127934
14327135319
14327141239
14327148747
14327155216
14327163517
14327169499
14327178349
14327184513
14327192570
14327201603
14327209965
14327215824
14327223331
14327230045
14327237308
14327246098
14327253544
14327261112
14327269352
14327276920
14327285770
14327295414
14327301517
14327311344
14327318546
14327328434
14327334049
14327344303
14327349674
14327355472
14327358646
14327367923
14327371280
14327378788
14327385013
14327390445
14327395450
14327401126
14327407535
14327413700
14327419315
14327424564
14327430789
14327435489
14327442508
14327449405
14327455692
14327461124
14327467533
14327471378
14327479740
14327484439
14327489200
14327495487
14327500064
14327507449
14327511783
14327518741
14327524051
14327531131
14327536197
14327543033
14327548282
14327554202
14327557620
14327566165
14327570865
14327578860
14327584598
14327591495
14327597049
14327602237
14327608523
14327614139
14327620486
14327623660
14327632937
14327635989
14327644046
14327649295
14327656070
14327661136
14327667422
14327672061
14327677859
14327685427
14327691104
14327696902
14327703067
14327708743
14327713137
14327721011
14327728640
14327734072
14327740359
14327746585
14327754641
14327759158
14327767703
14327774172
14327780337
14327787966
14327792605
14327799380
14327805422
14327811465
14327817019
14327822878
14327829958
14327836001
14327841799
14327848635
14327853640
14327858950
14327865237
14327870547
14327877322
14327882815
14327890261
14327895327
14327902285
14327907229
14327913637
14327918703
14327927553
14327932741
14327938540
14327944155
14327948732
14327953066
14327958803
14327965273
14327972048
14327978090
14327983583
14327987795
14327993837
14327998354
14328004396
14328010378
14328016603
14328021059
14328027346
14328032595
14328038271
14328043459
14328048891
14328053346
14328060549
14328067751
14328072145
14328077211
14328082460
14328088197
14328092348
14328097048
14328104433
14328111025
14328115602
14328121767
14328125734
14328130861
14328136293
14328144838
14328150819
14328156801
14328162233
14328167421
14328173341
14328178712
14328184205
14328191225
14328197877
14328202882
14328208192
14328212892
14328217225
14328226625
14328236085
14328244752
14328253785
14328261842
14328267762
14328278260
14328286378
14328293214
14328299440
14328311830
14328318482
14328328614
14328335572
14328346559
14328354554
14328365724
14328375306
14328384950
14328391724
14328399964
14328410706
14328416627
14328426698
14328433411
14328440980
14328444764
14328452271
14328457886
14328463013
14328468140
14328474061
14328481446
14328487244
14328492493
14328498475
14328505799
14328510621
14328517151
14328522584
14328531006
14328536988
14328543091
14328547974
14328554810
14328559449
14328566468
14328571717
14328577637
14328585511
14328590943
14328598145
14328603272
14328609070
14328614319
14328621155
14328625061
14328635803
14328640503
14328649231
14328653870
14328660767
14328669006
14328675049
14328681397
14328688294
14328693054
14328701233
14328708435
14328714539
14328720154
14328728149
14328734863
14328740356
14328746277
14328751709
14328757141
14328764160
14328771484
14328777161
14328782104
14328788757
14328795837
14328801941
14328808044
14328815185
14328823669
14328830688
14328838501
14328844421
14328851562
14328857299
14328861938
14328867370
14328875488
14328881286
14328888916
14328893920
14328900024
14328906738
14328911926
14328919616
14328925537
14328932739
14328939697
14328947204
14328955261
14328963561
14328970153
14328978759
14328982787
14328998290
14329005737
14329014648
14329024474
14329034484
14329043151
14329050109
14329057860
14329065734
14329075500
14329083556
14329090697
14329097777
14329104430
14329110106
14329116942
14329123717
14329131286
14329134765
14329141906
14329145018
14329153624
14329158202
14329164122
14329169616
14329174926
14329180907
14329188720
14329193969
14329200743
14329205931
14329211608
14329216735
14329222228
14329228209
14329234862
14329238158
14329245604
14329250670
14329257445
14329262023
14329266966
14329274107
14329278990
14329288084
14329292845
14329299193
14329304808
14329311095
14329315855
14329321471
14329326720
14329332640
14329338988
14329344481
14329349242
14329356200
14329362425
14329368956
14329374876
14329382078
14329387449
14329396422
14329401915
14329411436
14329416746
14329426329
14329432310
14329441160
14329450499
14329458067
14329465208
14329472715
14329479612
14329487059
14329493101
14329502745
14329511351
14329519285
14329529783
14329536558
14329543516
14329554563
14329561949
14329572569
14329581297
14329587644
14329596922
14329601316
14329607481
14329613279
14329618467
14329622617
14329631345
14329637815
14329645322
14329651365
14329655332
14329664854
14329672361
14329680173
14329686094
14329693540
14329701597
14329707273
14329713132
14329719236
14329725156
14329735288
14329741758
14329747678
14329754087
14329759824
14329764890
14329769040
14329775327
14329779843
14329785764
14329790830
14329796811
14329802121
14329806577
14329813657
14329817319
14329821897
14329827146
14329831723
14329836057
14329841062
14329846066
14329850705
14329858151
14329864438
14329868894
14329874326
14329878781
14329884030
14329889096
14329896970
14329901364
14329907224
14329913266
14329918881
14329923764
14329927853
14329934140
14329937009
14329945615
14329950741
14329956113
14329961606
14329966550
14329973324
14329979062
14329983945
14329987851
14329994931
14330000119
14330006650
14330012082
14330017331
14330023007
14330030270
14330036190
14330042233
14330046505
14330052853
14330058651
14330064877
14330069577
14330076107
14330081845
14330088009
14330095883
14330102291
14330108456
14330115414
14330122372
14330128903
14330134945
14330143734
14330149532
14330153561
14330160946
14330165463
14330170651
14330176510
14330182491
14330187435
14330193234
14330198055
14330204098
14330208736
14330216976
14330221981
14330226315
14330233028
14330237484
14330244259
14330249020
14330255550
14330261410
14330266292
14330273006
14330278927
14330287166
14330296749
14330302791
14330308834
14330315426
14330323055
14330327999
14330334591
14330340755
14330345882
14330351619
14330355770
14330361385
14330367550
14330373470
14330378780
14330383846
14330389034
14330393123
14330399166
14330403499
14330410945
14330414669
14330421016
14330426082
14330431941
14330438655
14330444026
14330448970
14330453792
14330461055
14330468196
14330473995
14330483028
14330491145
14330499019
14330505489
14330513057
14330519099
14330527888
14330534724
14330544551
14330551143
14330561336
14330567988
14330575862
14330585200
14330590205
14330600337
14330608516
14330616267
14330621943
14330629390
14330635493
14330645686
14330649592
14330659419
14330665278
14330672969
14330677485
14330683589
14330688594
14330695979
14330702143
14330707026
14330711848
14330719050
14330724116
14330730891
14330736262
14330743220
14330747920
14330752741
14330759089
14330766291
14330772700
14330778498
14330783686
14330787837
14330792414
14330799006
14330804072
14330811396
14330817744
14330823664
14330828974
14330835505
14330841059
14330845331
14330852167
14330857355
14330862116
14330869501
14330876337
14330880671
14330885126
14330891291
14330896113
14330902216
14330907465
14330913508
14330919794
14330926630
14330931818
14330939753
14330945795
14330952326
14330961237
14330966913
14330972467
14330979120
14330985346
14330991815
14330996271
14331002191
14331007379
14331013788
14331018793
14331025202
14331029535
14331035394
14331040094
14331048578
14331053400
14331057977
14331064386
14331068292
14331075128
14331081171
14331086481
14331090509
14331097711
14331101373
14331108026
14331114191
14331119806
14331124750
14331130853
14331136285
14331142389
14331149530
14331153680
14331159723
14331166864
14331172601
14331177911
14331184137
14331190484
14331197198
14331202569
14331209405
14331214410
14331220331
14331225946
14331232476
14331237176
14331243524
14331248101
14331253534
14331260003
14331265618
14331272638
14331277764
14331283929
14331285638
14331294305
14331300347
14331305718
14331310540
14331316644
14331321527
14331326959
14331334710
14331339532
14331345635
14331352654
14331358819
14331364678
14331371148
14331374749
14331384210
14331389581
14331397271
14331402398
14331410394
14331416497
14331424615
14331430169
14331434808
14331440972
14331448662
14331455193
14331462945
14331468987
14331473137
14331480706
14331486565
14331493523
14331498772
14331505608
14331510979
14331516289
14331523491
14331529656
14331536553
14331542046
14331548821
14331556511
14331565117
14331571343
14331580315
14331585442
14331594719
14331599968
14331606011
14331614250
14331620293
14331626152
14331631951
14331637200
14331643059
14331648918
14331654350
14331659538
14331665215
14331670464
14331674858
14331681328
14331687859
14331691032
14331698051
14331702690
14331710869
14331715752
14331721550
14331727714
14331732658
14331737236
14331744865
14331749809
14331756218
14331763054
14331767814
14331773918
14331780266
14331785698
14331789421
14331796257
14331803215
14331811210
14331816948
14331822685
14331826286
14331834709
14331839836
14331844658
14331851860
14331856804
14331862724
14331868400
14331873954
14331878654
14331885185
14331891349
14331897209
14331902580
14331908927
14331914543
14331921501
14331925041
14331932670
14331938163
14331944023
14331949699
14331955436
14331961601
14331967704
14331975150
14331978812
14331986076
14331991264
14331997001
14332000114
14332009147
14332013358
14332018974
14332024589
14332030143
14332034598
14332042533
14332047721
14332054069
14332061515
14332067985
14332073722
14332079947
14332085319
14332091666
14332099540
14332106742
14332113639
14332122489
14332130057
14332137076
14332145377
14332153006
14332161856
14332167960
14332176810
14332181998
14332191275
14332202506
14332208975
14332216361
14332227103
14332234976
14332242606
14332252066
14332261221
14332267691
14332277152
14332286917
14332296256
14332302359
14332311270
14332319754
14332325125
14332330740
14332339468
14332344778
14332351614
14332357352
14332361868
14332368582
14332372793
14332379507
14332386526
14332392813
14332399893
14332405935
14332410452
14332417837
14332423086
14332430594
14332436331
14332440786
14332446035
14332453360
14332458914
14332463247
14332467703
14332474050
14332478994
14332485647
14332490835
14332496694
14332503652
14332509878
14332515676
14332519766
14332527456
14332533804
14332538564
14332544424
14332550527
14332555654
14332560903
14332567251
14332573599
14332577688
14332584280
14332589101
14332596853
14332602834
14332608572
14332614248
14332619741
14332624258
14332632009
14332638418
14332644582
14332649221
14332656484
14332661977
14332668020
14332673757
14332678152
14332686391
14332690603
14332698476
14332702871
14332708181
14332714040
14332720876
14332726369
14332733144
14332738698
14332744313
14332749318
14332756154
14332761098
14332767995
14332774037
14332780690
14332786183
14332792714
14332799123
14332804250
14332809377
14332816213
14332821095
14332827077
14332833364
14332839955
14332845509
14332849172
14332855946
14332862416
14332868520
14332875844
14332880788
14332887318
14332896718
14332902516
14332908986
14332918080
14332923146
14332928639
14332938161
14332943043
14332948170
14332953541
14332958790
14332964162
14332969227
14332974110
14332981007
14332987416
14332992543
14332998036
14333002369
14333008046
14333013417
14333019276
14333026112
14333030262
14333035206
14333040821
14333048085
14333051503
14333058033
14333064076
14333069813
14333075306
14333082386
14333088368
14333094166
14333099354
14333104603
14333110462
14333116444
14333122730
14333129322
14333134205
14333140247
14333146046
14333152577
14333157337
14333163136
14333169483
14333173451
14333180347
14333186756
14333192493
14333196339
14333202198
14333210377
14333215565
14333220997
14333227772
14333233387
14333239490
14333244861
14333251881
14333257252
14333265735
14333270984
14333275867
14333283863
14333288135
14333295521
14333299671
14333306568
14333310352
14333318287
14333323658
14333329700
14333334644
14333341236
14333349170
14333354236
14333359302
14333368640
14333375721
14333381641
14333386585
14333391834
14333397815
14333403125
14333408008
14333413684
14333419300
14333426074
14333431812
14333436572
14333442249
14333447376
14333451709
14333460376
14333467395
14333472095
14333480212
14333485889
14333491870
14333497668
14333503772
14333512012
14333521289
14333527026
14333532764
14333538318
14333544421
14333548816
14333556811
14333561633
14333567065
14333571216
14333578052
14333582202
14333588183
14333592639
14333602038
14333607287
14333613757
14333619555
14333625720
14333631579
14333637011
14333641772
14333647754
14333652941
14333658618
14333664660
14333670153
14333675585
14333680773
14333686083
14333693164
14333698229
14333703295
14333709399
14333714526
14333719348
14333725207
14333729479
14333736376
14333742724
14333748095
14333752123
14333758288
14333762927
14333768969
14333773180
14333779833
14333784167
14333790697
14333796679
14333802233
14333807299
14333813647
14333825487
14333832629
14333837389
14333842638
14333848620
14333854113
14333858935
14333865160
14333870897
14333876208
14333883593
14333888842
14333895495
14333899889
14333906237
14333911364
14333918627
14333924242
14333932116
14333940477
14333945177
14333953051
14333957445
14333962511
14333968859
14333975450
14333981676
14333985643
14333991014
14333997057
14334001329
14334005602
14334011583
14334018175
14334022508
14334030626
14334034654
14334040148
14334045946
14334050585
14334058214
14334062669
14334069383
14334076280
14334084032
14334090135
14334096178
14334101610
14334106065
14334114244
14334119005
14334124498
14334129198
14334134752
14334138658
14334144151
14334148424
14334154161
14334159959
14334164964
14334169053
14334174608
14334178758
14334184251
14334188524
14334194505
14334201829
14334206529
14334212022
14334218004
14334221666
14334227830
14334234178
14334240403
14334245652
14334251329
14334256700
14334260850
14334266954
14334272447
14334276719
14334283494
14334288926
14334295396
14334299668
14334306748
14334310899
14334317368
14334322190
14334327805
14334333970
14334339036
14334344834
14334349656
14334353867
14334360398
14334364304
14334371934
14334377732
14334382920
14334387925
14334394944
14334399827
14334404649
14334407334
14334416917
14334421799
14334427476
14334433213
14334438584
14334444260
14334450303
14334454636
14334463791
14334468796
14334474778
14334481064
14334485703
14334493332
14334498032
14334507554
14334513474
14334520615
14334525254
14334531907
14334536911
14334542832
14334545639
14334553879
14334560166
14334568222
14334573715
14334579270
14334583420
14334589340
14334594589
14334600144
14334604416
14334611008
14334615647
14334622605
14334629929
14334635544
14334643051
14334649277
14334655502
14334661789
14334670700
14334674789
14334681381
14334687057
14334691330
14334697739
14334703232
14334708420
14334713242
14334719650
14334724777
14334730392
14334737411
14334744369
14334751327
14334756943
14334761764
14334766952
14334772323
14334778488
14334783493
14334790878
14334794235
14334801132
14334805465
14334811386
14334816391
14334821640
14334828598
14334832382
14334838485
14334844284
14334849105
14334855575
14334861068
14334864913
14334871994
14334877609
14334883529
14334887374
14334894271
14334900741
14334905013
14334910018
14334916427
14334922225
14334926925
14334933456
14334937789
14334945480
14334951156
14334956466
14334960311
14334967269
14334972396
14334979293
14334984542
14334991317
14334997176
14335003341
14335008163
14335013106
14335021590
14335027083
14335032882
14335037520
14335044356
14335048568
14335055587
14335061019
14335067000
14335073043
14335081222
14335086898
14335092452
14335099593
14335103927
14335110274
14335114608
14335119429
14335127242
14335133162
14335138228
14335145552
14335149398
14335155257
14335162337
14335166854
14335171675
14335178511
14335183028
14335189376
14335194625
14335199446
14335205855
14335211775
14335222212
14335227522
14335231917
14335242476
14335247908
14335256819
14335264632
14335269453
14335278059
14335285139
14335291670
14335296370
14335301009
14335306197
14335310835
14335317244
14335323714
14335327803
14335332625
14335338972
14335344893
14335350264
14335355269
14335359907
14335367232
14335372786
14335379194
14335385725
14335390486
14335397261
14335401838
14335408003
14335413435
14335417952
14335424604
14335430098
14335436262
14335440657
14335444746
14335451460
14335456037
14335464277
14335469099
14335476301
14335481001
14335487654
14335492903
14335499189
14335504743
14335511457
14335516462
14335524091
14335530012
14335535871
14335540510
14335547041
14335552900
14335558759
14335563276
14335569868
14335575727
14335581403
14335586835
14335592512
14335598920
14335604169
14335613203
14335618818
14335624677
14335630964
14335636457
14335642499
14335648908
14335655683
14335661847
14335667402
14335675702
14335680585
14335684675
14335691572
14335697248
14335702802
14335709516
14335717695
14335722211
14335729047
14335734723
14335741559
14335746198
14335752729
14335757245
14335764081
14335770063
14335774152
14335779462
14335783673
14335789411
14335793866
14335801679
14335808881
14335814557
14335820111
14335825238
14335835370
14335843793
14335855450
14335866681
14335874860
14335885602
14335893780
14335903119
14335910260
14335917096
14335929242
14335936749
14335943524
14335950726
14335957013
14335963971
14335970685
14335977398
14335986126
14335995099
14336002606
14336009076
14336016827
14336024212
14336031903
14336041241
14336050030
14336058880
14336067120
14336075054
14336081097
14336092022
14336100201
14336107403
14336116741
14336123211
14336132610
14336139568
14336148296
14336156658
14336165447
14336173077
14336179913
14336189800
14336201031
14336210125
14336219768
14336227825
14336235149
14336245220
14336251201
14336259990
14336267742
14336277508
14336285198
14336294109
14336302288
14336311199
14336318889
14336328716
14336335430
14336344890
14336351726
14336361187
14336367412
14336379497
14336388408
14336397380
14336407390
14336414531
14336423564
14336433879
14336442058
14336452129
14336462566
14336470683
14336479411
14336489177
14336497966
14336505778
14336514812
14336525737
14336533671
14336541789
14336551311
14336559001
14336568522
14336576396
14336583964
14336591838
14336605632
14336614909
14336623271
14336633158
14336642375
14336648783
14336656962
14336663615
14336670573
14336678324
14336685404
14336694438
14336703227
14336711100
14336718730
14336726481
14336735270
14336743754
14336750040
14336758524
14336768107
14336776286
14336781535
14336791972
14336801676
14336808207
14336817240
14336825358
14336834635
14336843729
14336851725
14336859720
14336867655
14336875589
14336883280
14336890482
14336899820
14336906595
14336914103
14336922464
14336929911
14336937723
14336947794
14336956278
14336963419
14336970743
14336979654
14336987955
14336995951
14337008341
14337018656
14337026712
14337035318
14337043070
14337052408
14337059549
14337068033
14337076822
14337083658
14337092996
14337100748
14337109842
14337118753
14337124612
14337134439
14337143899
14337151101
14337156961
14337161416
14337165994
14337170816
14337175454
14337179300
14337186868
14337192117
14337196939
14337200235
14337205850
14337212198
14337217935
14337223733
14337229654
14337233682
14337237771
14337243203
14337247415
14337252420
14337256692
14337264566
14337269265
14337272561
14337278359
14337284951
14337290383
14337298074
14337304543
14337309487
14337314309
14337319985
14337323831
14337329324
14337333596
14337338784
14337344521
14337349465
14337354104
14337358865
14337364175
14337368874
14337374490
14337378884
14337384255
14337387734
14337393166
14337395547
14337402322
14337406228
14337413186
14337418252
14337423806
14337428567
14337433816
14337437905
14337443215
14337447915
14337453530
14337458169
14337461587
14337467446
14337473061
14337477944
14337482155
14337487221
14337492348
14337499489
14337504311
14337510415
14337516030
14337520668
14337526589
14337530861
14337536965
14337541237
14337546852
14337551186
14337557411
14337563637
14337568642
14337573952
14337579750
14337586342
14337592568
14337598000
14337603737
14337608437
14337614174
14337618935
14337624306
14337629616
14337636269
14337642494
14337646950
14337653175
14337660500
14337666481
14337672340
14337677406
14337683449
14337688515
14337695900
14337702064
14337709938
14337715187
14337721962
14337727516
14337733497
14337738624
14337744179
14337749122
14337756630
14337762245
14337768593
14337774025
14337780494
14337786232
14337792396
14337797157
14337804481
14337811622
14337817054
14337826576
14337832252
14337837684
14337845741
14337850746
14337860450
14337866065
14337870826
14337875831
14337880714
14337886390
14337893714
14337898841
14337903053
14337908180
14337912574
14337918800
14337923744
14337928748
14337932777
14337939918
14337946632
14337951392
14337958106
14337964332
14337969459
14337973487
14337978004
14337985572
14337990516
14337995704
14338002357
14338006812
14338012977
14338018104
14338023841
14338029090
14338036170
14338041541
14338046546
14338050269
14338055701
14338058997
14338066688
14338070411
14338079749
14338083045
14338090735
14338096412
14338103309
14338108008
14338113379
14338119666
14338127051
14338132422
14338138159
14338143592
14338149634
14338155921
14338160315
14338166663
14338171912
14338179602
14338184546
14338190283
14338195899
14338203467
14338208228
14338214819
14338220740
14338225867
14338233496
14338238989
14338244421
14338250830
14338256873
14338261023
14338267004
14338273352
14338280615
14338286352
14338293860
14338299902
14338306494
14338310339
14338319067
14338322668
14338331457
14338336279
14338343725
14338349524
14338354468
14338359656
14338365881
14338371985
14338378882
14338386511
14338392248
14338397680
14338402258
14338409460
14338415747
14338422155
14338428442
14338438757
14338445471
14338452368
14338458593
14338465734
14338471716
14338477331
14338481115
14338489233
14338495214
14338501379
14338506201
14338514013
14338518835
14338525610
14338528722
14338537695
14338544225
14338550146
14338554906
14338561803
14338566442
14338574010
14338579992
14338588659
14338593359
14338599767
14338604711
14338609777
14338614355
14338620702
14338625402
14338629491
14338636510
14338641515
14338647436
14338651769
14338656957
14338662633
14338668004
14338673742
14338681371
14338685643
14338692785
14338699987
14338706701
14338712133
14338719213
14338725621
14338731298
14338735509
14338742467
14338748326
14338755529
14338761693
14338768895
14338776525
14338783483
14338787877
14338795262
14338800389
14338807591
14338812901
14338819676
14338824559
14338833653
14338839208
14338845067
14338849522
14338856236
14338861302
14338868321
14338873387
14338880955
14338887059
14338892979
14338897496
14338903050
14338910069
14338914586
14338919713
14338925877
14338931004
14338938145
14338943272
14338948704
14338954686
14338959752
14338965367
14338971165
14338978001
14338983738
14338989964
14338994420
14339000462
14339004856
14339010228
14339017063
14339022679
14339028416
14339034886
14339042881
14339049839
14339055882
14339061802
14339070896
14339076390
14339085423
14339092381
14339097691
14339102818
14339106846
14339112522
14339118626
14339124973
14339130039
14339135105
14339140110
14339145298
14339150486
14339156040
14339164097
14339168674
14339175205
14339179356
14339185947
14339190403
14339195835
14339200962
14339209019
14339213962
14339220737
14339225742
14339230198
14339235142
14339240696
14339245701
14339251987
14339258213
14339262546
14339268284
14339273716
14339277988
14339283847
14339288303
14339294712
14339301548
14339305942
14339312046
14339316074
14339321872
14339327793
14339333774
14339339389
14339344944
14339350742
14339355747
14339361118
14339366306
14339370517
14339379856
14339384555
14339390476
14339397678
14339403415
14339409824
14339415866
14339423435
14339428989
14339434787
14339441623
14339447726
14339453403
14339462131
14339467685
14339475803
14339481357
14339488986
14339493930
14339500949
14339505710
14339511935
14339519504
14339526706
14339531405
14339537021
14339544711
14339550876
14339554477
14339562594
14339568576
14339575412
14339581210
14339587558
14339593417
14339599398
14339605502
14339613864
14339620639
14339630465
14339635714
14339642245
14339649142
14339655917
14339662142
14339666781
14339671847
14339677706
14339682772
14339687533
14339693759
14339698824
14339705477
14339710787
14339717684
14339723361
14339727267
14339733553
14339740267
14339746371
14339751315
14339758089
14339763033
14339768587
14339773287
14339778597
14339784396
14339789767
14339795199
14339799776
14339804293
14339811373
14339817293
14339823092
14339828097
14339834322
14339839022
14339847384
14339850557
14339857088
14339863375
14339869173
14339874666
14339880648
14339886446
14339892977
14339899202
14339905977
14339912020
14339917818
14339922579
14339929476
14339934297
14339939913
14339947969
14339954439
14339959383
14339966585
14339971346
14339977388
14339985018
14339990816
14339998323
14340002107
14340009065
14340013582
14340020479
14340026216
14340032869
14340039949
14340046602
14340052705
14340056917
14340064058
14340068269
14340075044
14340079317
14340087923
14340094209
14340100191
14340105745
14340110994
14340116182
14340123445
14340128145
14340135286
14340141389
14340148103
14340155671
14340161104
14340166658
14340172090
14340178499
14340184236
14340191621
14340197419
14340204316
14340211763
14340218232
14340224885
14340233247
14340239045
14340248384
14340255830
14340260774
14340267365
14340273103
14340278840
14340286225
14340292146
14340298310
14340301240
14340309968
14340314668
14340321198
14340329499
14340335969
14340341157
14340347626
14340353913
14340360505
14340366425
14340370942
14340377900
14340384247
14340389863
14340397126
14340402070
14340407746
14340413788
14340420319
14340425995
14340433259
14340439606
14340443879
14340450287
14340457184
14340461823
14340469147
14340474335
14340480744
14340485505
14340493134
14340498261
14340506195
14340511872
14340519501
14340524811
14340531403
14340537201
14340544220
14340550690
14340557770
14340563507
14340569855
14340573334
14340582489
14340588104
14340593842
14340601288
14340606110
14340613312
14340617951
14340624542
14340630646
14340635773
14340639984
14340649078
14340653961
14340659759
14340665985
14340671478
14340676910
14340682465
14340685638
14340695160
14340700409
14340707306
14340712250
14340717621
14340724090
14340728729
14340735809
