14562526928
14562531689
14562535717
14562541699
14562547558
14562553723
14562560376
14562566113
14562572399
14562577160
14562582653
14562587963
14562594250
14562600964
14562607617
14562613232
14562618359
14562624584
14562630077
14562637035
14562642407
14562648571
14562654003
14562660839
14562668102
14562676464
14562682995
14562688000
14562694591
14562700939
14562707409
14562715343
14562722057
14562728588
14562736400
14562744152
14562751415
14562761425
14562767345
14562775890
14562782055
14562789684
14562796459
14562807506
14562816051
14562822216
14562828563
14562833873
14562839061
14562844554
14562852550
14562858043
14562864940
14562870250
14562877330
14562882213
14562889110
14562894359
14562902660
14562907543
14562913951
14562921214
14562926830
14562932262
14562938487
14562945995
14562951244
14562960094
14562966075
14562973582
14562983714
14562991344
14562998119
14563004283
14563008556
14563012828
14563016978
14563021007
14563025767
14563030223
14563034617
14563039561
14563043956
14563048533
14563052989
14563057322
14563062205
14563066234
14563070750
14563075328
14563079966
14563084849
14563089366
14563092906
14563097789
14563102305
14563107188
14563111949
14563117808
14563123484
14563126963
14563133494
14563136973
14563142955
14563147532
14563152720
14563158457
14563163218
14563167247
14563174876
14563179454
14563183909
14563188426
14563192942
14563197032
14563201975
14563207652
14563212290
14563215952
14563222056
14563226328
14563230662
14563234873
14563242442
14563247569
14563251780
14563257151
14563261851
14563266673
14563272532
14563276987
14563282786
14563287424
14563291025
14563297007
14563302805
14563306467
14563312571
14563316843
14563321604
14563326731
14563331675
14563336863
14563342112
14563346873
14563351145
14563356150
14563361033
14563368662
14563373484
14563377451
14563381662
14563385752
14563390879
14563396372
14563400217
14563406809
14563411692
14563417917
14563424021
14563428720
14563434885
14563439951
14563444956
14563450571
14563456003
14563461069
14563465952
14563471872
14563477121
14563480295
14563484629
14563489878
14563492807
14563500803
14563505686
14563509653
14563515512
14563519663
14563524423
14563528513
14563533701
14563537851
14563543405
14563547556
14563553354
14563557809
14563562631
14563567148
14563572336
14563576791
14563581674
14563586435
14563591867
14563596567
14563600351
14563605295
14563609994
14563615243
14563620676
14563625314
14563629648
14563634836
14563641183
14563646737
14563651193
14563657235
14563663522
14563670297
14563678964
14563685800
14563690561
14563699472
14563706491
14563716562
14563724740
14563731271
14563739022
14563745614
14563753305
14563759408
14563767282
14563773568
14563781747
14563788400
14563795297
14563802743
14563810677
14563819222
14563827279
14563833749
14563842049
14563850167
14563855172
14563863900
14563869576
14563875253
14563880379
14563884835
14563892709
14563896798
14563903268
14563908150
14563914803
14563920724
14563925118
14563931344
14563937325
14563944527
14563948922
14563953988
14563957650
14563964486
14563970833
14563978219
14563982491
14563988656
14563995369
14564001107
14564008675
14564013863
14564020638
14564027169
14564034554
14564040840
14564047859
14564054085
14564060982
14564065987
14564071480
14564075508
14564080574
14564086861
14564091133
14564095528
14564101448
14564105782
14564110665
14564115852
14564120613
14564125191
14564131294
14564136360
14564140328
14564144600
14564151009
14564155830
14564159554
14564164436
14564170174
14564175056
14564180550
14564184883
14564189705
14564194405
14564199776
14564204414
14564210152
14564215706
14564221260
14564225532
14564230171
14564234871
14564240852
14564246773
14564252571
14564258186
14564263435
14564267402
14564271064
14564276497
14564281746
14564287788
14564294197
14564299141
14564302620
14564308723
14564314827
14564320198
14564325447
14564330085
14564336494
14564341560
14564347602
14564352668
14564357856
14564362739
14564368293
14564372932
14564378181
14564385322
14564391242
14564395637
14564400520
14564406013
14564411262
14564416816
14564421394
14564426338
14564433540
14564439704
14564444953
14564450690
14564456733
14564461555
14564466315
14564473334
14564480231
14564485236
14564490302
14564495185
14564499641
14564505256
14564510017
14564515204
14564522162
14564528815
14564533149
14564538581
14564543647
14564548530
14564556220
14564560798
14564568732
14564575263
14564581061
14564586676
14564591742
14564598273
14564603583
14564608771
14564613227
14564617682
14564622321
14564627021
14564631110
14564636054
14564641120
14564647101
14564651496
14564657416
14564661200
14564665778
14564671820
14564678534
14564687079
14564692450
14564700934
14564708014
14564714240
14564721503
14564729254
14564735907
14564741766
14564750067
14564758063
14564764716
14564770941
14564778204
14564784064
14564791815
14564799506
14564807440
14564814581
14564822027
14564828619
14564835577
14564842840
14564847662
14564857306
14564862860
14564868231
14564873541
14564878790
14564883795
14564889898
14564894476
14564899969
14564905218
14564911016
14564916510
14564922552
14564927923
14564931951
14564937750
14564943548
14564948736
14564954290
14564958929
14564964605
14564970281
14564973638
14564979315
14564983953
14564990850
14564995794
14565001531
14565007269
14565012396
14565017767
14565023870
14565028692
14565034124
14565039312
14565045721
14565052679
14565056829
14565062383
14565066351
14565073370
14565076788
14565083623
14565088079
14565095647
14565099554
14565105718
14565110113
14565115789
14565120611
14565126470
14565131170
14565140142
14565146062
14565152593
14565158208
14565163945
14565168828
14565174627
14565181096
14565187810
14565194036
14565199590
14565205999
14565210698
14565215459
14565220281
14565230901
14565237432
14565242437
14565247441
14565252385
14565257939
14565262944
14565266179
14565272710
14565278264
14565284917
14565292668
14565297490
14565303899
14565309392
14565313664
14565319341
14565325200
14565331120
14565337163
14565342961
14565348027
14565353764
14565360112
14565366521
14565371953
14565376530
14565383610
14565392338
14565402959
14565410161
14565416203
14565426518
14565433110
14565441166
14565448430
14565455082
14565464482
14565474736
14565481327
14565487797
14565495121
14565501530
14565509587
14565516606
14565523808
14565533696
14565541325
14565547917
14565556401
14565563603
14565572209
14565579350
14565587895
14565596317
14565604313
14565612492
14565621037
14565629948
14565638859
14565645206
14565655582
14565663273
14565669926
14565679447
14565686832
14565694096
14565703739
14565712833
14565719791
14565729740
14565737674
14565745670
14565753605
14565761600
14565769230
14565776981
14565786136
14565798832
14565808231
14565816349
14565828373
14565838443
14565849246
14565858829
14565867923
14565880008
14565893192
14565905032
14565914188
14565924381
14565933536
14565943912
14565952945
14565964114
14565972476
14565980167
14565992251
14566001590
14566010257
14566019534
14566028567
14566036868
14566045047
14566054019
14566061709
14566069766
14566077456
14566085147
14566094241
14566099429
14566109317
14566114199
14566122622
14566130130
14566139468
14566146914
14566153506
14566160952
14566166995
14566174807
14566180972
14566190981
14566198184
14566205691
14566215090
14566224368
14566231814
14566238833
14566246157
14566253909
14566262698
14566270998
14566279360
14566288210
14566296023
14566303286
14566310183
14566319033
14566326296
14566335146
14566343203
14566351442
14566359438
14566367312
14566375063
14566383181
14566390749
14566399904
14566409487
14566416262
14566424013
14566433596
14566440370
14566448915
14566456240
14566465944
14566474428
14566482363
14566490907
14566499025
14566506960
14566514467
14566520815
14566530824
14566538881
14566546510
14566554628
14566562135
14566569826
14566577333
14566584291
14566593629
14566600160
14566608766
14566618593
14566627260
14566636293
14566645265
14566651979
14566660951
14566671022
14566679322
14566688478
14566696840
14566704713
14566709108
14566716798
14566721681
14566726014
14566730775
14566734986
14566739259
14566744508
14566748414
14566753358
14566759584
14566764283
14566768128
14566772828
14566778382
14566782960
14566788392
14566793397
14566799500
14566804078
14566808350
14566812623
14566817017
14566821900
14566827332
14566832337
14566837464
14566842896
14566847779
14566852235
14566857117
14566862550
14566868348
14566873536
14566878480
14566884156
14566887208
14566894288
14566899110
14566905701
14566911744
14566916321
14566921204
14566925599
14566930970
14566935669
14566940186
14566947266
14566953980
14566958497
14566964661
14566969117
14566973450
14566978882
14566984192
14566988831
14566996155
14567003540
14567010865
14567017884
14567025879
14567035401
14567042664
14567048523
14567055908
14567063538
14567071228
14567080017
14567087952
14567093689
14567101685
14567108948
14567116699
14567126404
14567133667
14567142273
14567149475
14567158386
14567166321
14567173523
14567180115
14567188354
14567198303
14567203979
14567210998
14567215332
14567220764
14567227051
14567233886
14567241516
14567246338
14567252380
14567259643
14567265442
14567271118
14567276184
14567280212
14567289367
14567295715
14567300354
14567304382
14567310180
14567316467
14567321106
14567326110
14567330566
14567337829
14567342956
14567347900
14567353149
14567359130
14567363708
14567370178
14567373657
14567379760
14567384704
14567390746
14567395446
14567401794
14567406432
14567413451
14567418273
14567423766
14567428893
14567434631
14567441039
14567445129
14567452453
14567455932
14567463866
14567470092
14567476440
14567482116
14567487060
14567492858
14567497375
14567503051
14567507445
14567513427
14567520324
14567526732
14567531737
14567537963
14567542785
14567548400
14567554442
14567559142
14567566039
14567570922
14567577269
14567582946
14567588195
14567592711
14567598693
14567604125
14567610106
14567615111
14567620787
14567626097
14567631835
14567638915
14567642333
14567648619
14567654173
14567661070
14567667174
14567672423
14567677367
14567684264
14567689208
14567695799
14567701231
14567705016
14567712035
14567718199
14567723631
14567729735
14567734068
14567739806
14567744688
14567754088
14567758726
14567764281
14567770506
14567776854
14567781309
14567786253
14567792967
14567797117
14567805113
14567811156
14567816893
14567823363
14567831785
14567838804
14567843870
14567850157
14567858152
14567864561
14567872191
14567877806
14567883482
14567888060
14567891417
14567897947
14567905333
14567910154
14567916258
14567921141
14567926573
14567932615
14567937742
14567942747
14567948423
14567954893
14567958799
14567965696
14567971739
14567976255
14567981809
14567989439
14567996458
14568001463
14568007566
14568013609
14568019529
14568024900
14568031187
14568035642
14568041929
14568047727
14568053526
14568057920
14568064207
14568073118
14568080991
14568088560
14568096372
14568104307
14568112607
14568120298
14568128415
14568135618
14568142942
14568152097
14568159665
14568168393
14568175596
14568185605
14568192868
14568201474
14568208615
14568216550
14568224485
14568232663
14568241086
14568247312
14568255551
14568263669
14568271176
14568278928
14568285520
14568289365
14568296567
14568301450
14568307736
14568312863
14568317014
14568324155
14568329770
14568334714
14568341244
14568346677
14568352719
14568357785
14568363400
14568369076
14568375424
14568379513
14568385434
14568392514
14568398129
14568404599
14568409665
14568414792
14568419980
14568428158
14568434018
14568439877
14568445736
14568452023
14568457089
14568463376
14568469479
14568475583
14568481076
14568487057
14568492978
14568502011
14568506039
14568512448
14568518612
14568524594
14568532101
14568538143
14568543270
14568548092
14568553524
14568558895
14568563412
14568568478
14568572872
14568578671
14568585018
14568590389
14568595028
14568600155
14568605038
14568611019
14568616695
14568623165
14568628475
14568633968
14568639462
14568644649
14568649288
14568653927
14568659481
14568666256
14568672604
14568677730
14568682796
14568687313
14568692806
14568697445
14568702755
14568708614
14568714779
14568723995
14568729488
14568735775
14568741268
14568746151
14568752620
14568758297
14568764278
14568770076
14568777156
14568783016
14568789669
14568795162
14568799129
14568807674
14568814083
14568819515
14568825801
14568831661
14568838314
14568843685
14568852230
14568858272
14568863948
14568869930
14568875728
14568881343
14568885982
14568891414
14568897212
14568903072
14568910030
14568915828
14568922359
14568928157
14568933162
14568937801
14568943843
14568950069
14568955867
14568961665
14568967708
14568972774
14568978694
14568984126
14568990535
14568996394
14569003535
14569009639
14569014277
14569019587
14569026362
14569029597
14569035762
14569041743
14569049434
14569053401
14569060969
14569067317
14569074214
14569077998
14569085444
14569093013
14569113398
14569119685
14569124263
14569130122
14569134272
14569142451
14569148921
14569156184
14569163325
14569170588
14569178156
14569185481
14569192011
14569199885
14569207392
14569214838
14569221796
14569229365
14569235712
14569243647
14569251337
14569260187
14569268244
14569276057
14569282160
14569290156
14569298823
14569306513
14569314936
14569322504
14569328913
14569336237
14569341120
14569345453
14569354731
14569360285
14569366449
14569373041
14569377558
14569381464
14569387690
14569394464
14569399774
14569405573
14569411005
14569415705
14569420221
14569426996
14569432367
14569436395
14569441522
14569446466
14569451654
14569457269
14569462518
14569467523
14569472772
14569478693
14569483515
14569488458
14569496027
14569502069
14569507867
14569513483
14569520013
14569524957
14569530389
14569535883
14569541742
14569547052
14569552789
14569558038
14569563837
14569568536
14569572687
14569577814
14569584405
14569590631
14569596063
14569602472
14569608087
14569613214
14569618463
14569624505
14569629999
14569637262
14569640985
14569648431
14569654596
14569659723
14569664788
14569671563
14569677728
14569688409
14569692559
14569698785
14569704644
14569710809
14569716851
14569722711
14569730950
14569735772
14569741693
14569748162
14569752130
14569757806
14569762994
14569768792
14569775140
14569780389
14569785882
14569791924
14569796075
14569801141
14569806817
14569812371
14569819085
14569825494
14569830437
14569834954
14569839715
14569846001
14569851250
14569856499
14569861382
14569867181
14569871331
14569877984
14569883111
14569889214
14569893487
14569899285
14569904412
14569910637
14569916314
14569921807
14569928704
14569933159
14569939568
14569945305
14569950127
14569955559
14569961724
14569966668
14569973015
14569978691
14569984063
14569989434
14569995293
14570001580
14570009819
14570015862
14570020134
14570026299
14570031548
14570037712
14570044304
14570050286
14570054741
14570061516
14570066338
14570073235
14570078362
14570084221
14570088921
14570095085
14570102715
14570106682
14570113640
14570120293
14570125298
14570131096
14570136894
14570143120
14570148430
14570154289
14570161003
14570166008
14570171867
14570176994
14570184807
14570190910
14570199516
14570208671
14570216423
14570225639
14570233452
14570241935
14570250175
14570259147
14570266349
14570274772
14570284599
14570292594
14570301017
14570310173
14570319633
14570327934
14570337028
14570346671
14570358573
14570366325
14570372001
14570382560
14570392753
14570400016
14570405204
14570409660
14570416557
14570422416
14570428703
14570434013
14570439872
14570445731
14570452140
14570457633
14570462882
14570471305
14570476920
14570483878
14570488761
14570495353
14570501029
14570506827
14570512015
14570517936
14570523002
14570528617
14570533988
14570539847
14570546866
14570552665
14570557364
14570565299
14570569999
14570575614
14570580619
14570586905
14570593741
14570599112
14570604117
14570610587
14570617362
14570623404
14570629080
14570635550
14570641410
14570647513
14570653311
14570661246
14570666373
14570672843
14570678153
14570683463
14570687674
14570695364
14570702261
14570709402
14570716177
14570722525
14570728323
14570733694
14570740652
14570746146
14570752493
14570757986
14570764944
14570770621
14570776541
14570781851
14570787894
14570793631
14570799978
14570805350
14570812124
14570817434
14570823660
14570828726
14570833914
14570839895
14570845266
14570850210
14570857046
14570864065
14570869802
14570875051
14570882132
14570887564
14570893728
14570898916
14570905264
14570910452
14570916494
14570922415
14570928762
14570933828
14570939688
14570945059
14570951345
14570960745
14570965627
14570974783
14570982473
14570987478
14570994131
14571001028
14571009267
14571016470
14571020986
14571024892
14571029714
14571035879
14571041738
14571048391
14571052541
14571058645
14571064138
14571069753
14571074941
14571079946
14571085317
14571090383
14571096670
14571102773
14571107900
14571113271
14571119069
14571123586
14571128591
14571133413
14571140310
14571145253
14571150380
14571154714
14571160329
14571167836
14571172048
14571179982
14571184255
14571193105
14571197133
14571203847
14571209462
14571213246
14571221181
14571226979
14571232228
14571239430
14571245290
14571250966
14571257680
14571263234
14571267751
14571273305
14571278981
14571288319
14571295094
14571302541
14571310475
14571318227
14571325673
14571332875
14571341115
14571348927
14571358082
14571365468
14571372670
14571380116
14571386891
14571394154
14571402028
14571410145
14571417592
14571425099
14571433156
14571440297
14571448231
14571455861
14571463368
14571471852
14571481922
14571488819
14571493824
14571497059
14571503163
14571509877
14571515370
14571520802
14571528309
14571532215
14571538319
14571544300
14571550038
14571555958
14571562367
14571570728
14571575977
14571582081
14571589954
14571595081
14571600330
14571607288
14571613880
14571621326
14571629383
14571635426
14571641712
14571650318
14571654957
14571660877
14571666004
14571671680
14571676685
14571681812
14571688282
14571693531
14571698536
14571704395
14571709217
14571714771
14571721180
14571726124
14571731067
14571736255
14571740894
14571745655
14571752552
14571759754
14571764576
14571769825
14571775196
14571780750
14571786792
14571792652
14571797962
14571804065
14571809864
14571815052
14571822559
14571828601
14571833240
14571838855
14571845020
14571851550
14571859302
14571865283
14571871326
14571876819
14571883228
14571890125
14571894336
14571900623
14571907886
14571912891
14571919238
14571924731
14571935168
14571940601
14571946094
14571951587
14571955737
14571962878
14571968432
14571975207
14571980151
14571985705
14571991443
14571996814
14572003467
14572010852
14572016223
14572021777
14572027392
14572032763
14572039172
14572045276
14572050952
14572057177
14572061816
14572067370
14572072436
14572078723
14572083728
14572088244
14572094775
14572098742
14572105883
14572110888
14572116870
14572121630
14572127246
14572132311
14572137805
14572143176
14572150439
14572156054
14572160754
14572169055
14572174853
14572180773
14572186633
14572191576
14572198962
14572208178
14572215868
14572222338
14572226916
14572233263
14572238940
14572245592
14572252001
14572256884
14572262011
14572267138
14572273241
14572278918
14572284533
14572290514
14572295763
14572301623
14572306383
14572311693
14572316515
14572323107
14572329943
14572335680
14572341173
14572345751
14572351000
14572357653
14572364367
14572371386
14572379137
14572387438
14572394396
14572404161
14572411547
14572417528
14572424974
14572434068
14572442858
14572449999
14572457323
14572465807
14572473680
14572480028
14572484728
14572495531
14572505052
14572512865
14572519029
14572525926
14572536363
14572543321
14572549730
14572556261
14572563829
14572568834
14572575609
14572582078
14572587694
14572593126
14572597764
14572604234
14572611314
14572615892
14572621873
14572626756
14572630601
14572636766
14572641465
14572647386
14572652818
14572658189
14572663377
14572670030
14572675035
14572680406
14572686326
14572693528
14572699021
14572704820
14572710557
14572716233
14572721482
14572727647
14572732347
14572738267
14572744798
14572750352
14572756150
14572760789
14572767747
14572771531
14572777390
14572785874
14572791184
14572796799
14572802964
14572810105
14572816758
14572823716
14572829514
14572836594
14572846055
14572851670
14572857346
14572863389
14572868088
14572874802
14572880295
14572885727
14572890549
14572896103
14572901963
14572905564
14572912705
14572916306
14572924057
14572929490
14572933884
14572939133
14572944016
14572949082
14572955124
14572960862
14572966416
14572973252
14572979904
14572985703
14572991562
14572995774
14573001328
14573006943
14573013962
14573021836
14573027695
14573033737
14573039536
14573043137
14573050949
14573056442
14573063217
14573069504
14573076462
14573082443
14573088547
14573093613
14573099472
14573105026
14573108688
14573116745
14573123337
14573128708
14573134323
14573139694
14573146042
14573151779
14573157638
14573163559
14573169662
14573175339
14573180954
14573187118
14573191025
14573198471
14573203964
14573208481
14573214584
14573222519
14573228256
14573235214
14573240219
14573245529
14573249984
14573255661
14573260910
14573269027
14573275680
14573281967
14573288375
14573293075
14573299728
14573305709
14573312362
14573316818
14573325424
14573331893
14573338058
14573343551
14573350265
14573355270
14573361495
14573367233
14573373824
14573382064
14573387008
14573392440
14573398971
14573405196
14573411422
14573416915
14573425277
14573432540
14573442489
14573454879
14573464217
14573473250
14573480453
14573489608
14573499495
14573506820
14573515548
14573522811
14573531112
14573538924
14573547835
14573555892
14573564742
14573572005
14573579756
14573587081
14573595931
14573603194
14573611617
14573619246
14573628768
14573636092
14573641280
14573649703
14573655379
14573661971
14573665816
14573672713
14573676497
14573682906
14573688765
14573694746
14573698714
14573704695
14573710921
14573717451
14573725081
14573729903
14573736067
14573741133
14573746748
14573752241
14573758406
14573762861
14573769087
14573774824
14573780562
14573786360
14573791914
14573797224
14573802595
14573808943
14573814741
14573819258
14573826460
14573832502
14573839521
14573844038
14573849531
14573855696
14573861860
14573869673
14573874739
14573880842
14573884748
14573893049
14573899214
14573904768
14573909529
14573915998
14573922529
14573927717
14573933759
14573939863
14573945478
14573949201
14573955671
14573962324
14573968733
14573973859
14573980268
14573986250
14573991987
14573997968
14574004743
14574010480
14574014997
14574021284
14574027631
14574033369
14574040388
14574045515
14574051740
14574058881
14574062604
14574069440
14574075605
14574083295
14574088910
14574095075
14574100812
14574109235
14574115644
14574122113
14574127546
14574134809
14574141950
14574149457
14574155500
14574160688
14574166364
14574173566
14574178327
14574182782
14574189374
14574193952
14574199872
14574204633
14574209882
14574215985
14574221112
14574225202
14574231671
14574236554
14574242597
14574249188
14574252911
14574259442
14574265118
14574270245
14574274945
14574280682
14574288556
14574293622
14574298505
14574304364
14574310712
14574316266
14574320966
14574327435
14574333234
14574339276
14574343854
14574348431
14574354108
14574359967
14574365826
14574371075
14574377057
14574383160
14574389386
14574394574
14574400189
14574405926
14574411847
14574416058
14574424481
14574429547
14574434613
14574440533
14574446087
14574451947
14574457013
14574460797
14574466839
14574474469
14574480572
14574486065
14574491986
14574496990
14574502239
14574507244
14574513775
14574519757
14574523541
14574530621
14574536480
14574541302
14574547039
14574552593
14574561504
14574568462
14574577557
14574589153
14574596844
14574604473
14574612163
14574621380
14574629681
14574638103
14574646526
14574654827
14574663250
14574671367
14574679485
14574686748
14574695415
14574703777
14574714153
14574724712
14574733379
14574740215
14574749431
14574758342
14574767070
14574775737
14574781230
14574790142
14574797588
14574805217
14574811565
14574816204
14574824993
14574827922
14574835063
14574845256
14574850810
14574854167
14574860515
14574867168
14574872417
14574878215
14574883708
14574890178
14574896587
14574901958
14574907268
14574911967
14574917888
14574924052
14574929851
14574935771
14574941508
14574946757
14574952128
14574957622
14574962382
14574967509
14574973247
14574977946
14574983012
14574989238
14574994548
14574998881
14575005351
14575012492
14575019938
14575026225
14575031352
14575036601
14575042460
14575048075
14575051677
14575060221
14575065043
14575071147
14575078410
14575083598
14575089030
14575094523
14575100321
14575105937
14575112406
14575118144
14575124430
14575130473
14575136149
14575140666
14575145670
14575151713
14575158000
14575165934
14575171793
14575177287
14575182414
14575186198
14575192362
14575197977
14575204386
14575210429
14575215983
14575222025
14575227030
14575232950
14575237894
14575244120
14575249125
14575254923
14575259257
14575267130
14575270914
14575277506
14575283671
14575290079
14575295572
14575301737
14575309122
14575314737
14575321024
14575326212
14575332987
14575337931
14575343302
14575351114
14575357157
14575362589
14575369303
14575376078
14575382913
14575388468
14575399881
14575403665
14575412454
14575420816
14575427225
14575433756
14575441141
14575447061
14575451944
14575457254
14575461343
14575467569
14575474283
14575477884
14575484293
14575489603
14575495584
14575500772
14575505228
14575511148
14575516763
14575522623
14575527750
14575533060
14575539224
14575546304
14575552102
14575557535
14575562173
14575568887
14575574136
14575579934
14575585611
14575591226
14575597268
14575601663
14575610269
14575614053
14575620279
14575625833
14575631143
14575640298
14575646341
14575652566
14575661660
14575667947
14575675210
14575680825
14575690530
14575697183
14575704507
14575713357
14575723245
14575727944
14575737222
14575743997
14575753030
14575760415
14575768227
14575773171
14575782143
14575789162
14575798928
14575806496
14575813821
14575823464
14575830788
14575840005
14575848733
14575857094
14575866006
14575871316
14575877541
14575882973
14575887856
14575894631
14575900429
14575905922
14575911599
14575917214
14575921791
14575927529
14575933693
14575939186
14575943886
14575949807
14575955117
14575960610
14575965737
14575971230
14575978005
14575983437
14575990578
14575996376
14576001198
14576006142
14576012428
14576017433
14576023293
14576029030
14576037148
14576045937
14576050209
14576057167
14576064247
14576070717
14576076454
14576084328
14576090431
14576095802
14576100929
14576105080
14576110084
14576117287
14576121559
14576129494
14576133278
14576139442
14576144020
14576150856
14576155372
14576160499
14576165809
14576173744
14576178444
14576183876
14576188453
14576193702
14576200172
14576204017
14576209327
14576215797
14576221412
14576226539
14576232582
14576238258
14576243446
14576249427
14576253944
14576261940
14576266639
14576272499
14576279396
14576285133
14576290382
14576296913
14576302345
14576309547
14576316017
14576322486
14576327613
14576333350
14576338355
14576343849
14576350013
14576355201
14576361732
14576367164
14576373817
14576379798
14576386024
14576390418
14576396094
14576401221
14576408912
14576415382
14576420692
14576426978
14576431434
14576438087
14576441688
14576448096
14576453467
14576459754
14576465064
14576471534
14576477637
14576485267
14576491126
14576501197
14576508338
14576515479
14576521216
14576527076
14576531958
14576537391
14576542212
14576547889
14576554175
14576563758
14576568457
14576574256
14576580054
14576585486
14576590857
14576596411
14576601538
14576609229
14576614356
14576619788
14576624915
14576629736
14576636145
14576642920
14576651465
14576658850
14576668738
14576674658
14576680579
14576688574
14576693762
14576698401
14576705664
14576710242
14576714697
14576718909
14576725195
14576731055
14576737890
14576745581
14576753332
14576759558
14576766638
14576772925
14576782873
14576790136
14576797278
14576807043
14576813391
14576820654
14576829382
14576835608
14576841833
14576848425
14576856237
14576863867
14576870947
14576879309
14576886022
14576892736
14576899694
14576905920
14576915869
14576921728
14576927465
14576936193
14576939733
14576947302
14576952062
14576956945
14576964147
14576968847
14576972875
14576977148
14576982458
14576987279
14576991857
14576996801
14577002050
14577006506
14577010839
14577015539
14577020910
14577025793
14577031103
14577037389
14577042577
14577047094
14577051061
14577055334
14577059789
14577064062
14577068517
14577074560
14577080602
14577087560
14577091405
14577097509
14577101842
14577108373
14577114782
14577120946
14577125951
14577130284
14577135717
14577143468
14577148656
14577153722
14577159154
14577163549
14577170507
14577175695
14577182286
14577187963
14577192418
14577197179
14577206151
14577212254
14577217442
14577223363
14577230260
14577236363
14577240941
14577247655
14577254308
14577258824
14577263707
14577268529
14577272862
14577278539
14577283726
14577289525
14577294102
14577298497
14577303258
14577309544
14577314427
14577319493
14577325047
14577330479
14577334569
14577339268
14577341771
14577347081
14577351475
14577358189
14577363316
14577370274
14577374852
14577379429
14577385533
14577389988
14577392918
14577400242
14577406224
14577412083
14577416844
14577421360
14577427647
14577432652
14577437046
14577441685
14577447422
14577452488
14577457493
14577461705
14577467564
14577472813
14577477757
14577482945
14577488560
14577494602
14577500035
14577505406
14577510472
14577513706
14577520176
14577525974
14577532749
14577538120
14577544285
14577549107
14577552280
14577559177
14577562412
14577567478
14577576023
14577580662
14577586155
14577591160
14577596592
14577602695
14577607578
14577612339
14577619297
14577623936
14577629429
14577635532
14577639683
14577645786
14577650730
14577655857
14577659824
14577666050
14577672214
14577677463
14577683628
14577692112
14577700046
14577707309
14577714695
14577723911
14577731906
14577738926
14577745639
14577756992
14577766269
14577776279
14577786838
14577794223
14577802524
14577813083
14577826022
14577832675
14577841892
14577849582
14577858371
14577864963
14577873569
14577880161
14577888461
14577893771
14577897189
14577904758
14577910312
14577918307
14577921786
14577927463
14577933078
14577938510
14577943576
14577948092
14577954440
14577959750
14577965304
14577970797
14577975924
14577980685
14577985873
14577989962
14577995517
14578002292
14578007968
14578013461
14578018527
14578022982
14578029025
14578032565
14578038424
14578045077
14578049838
14578056002
14578061251
14578066378
14578071139
14578076571
14578082553
14578090853
14578095614
14578101168
14578106783
14578112155
14578118319
14578123385
14578128268
14578135043
14578139925
14578144930
14578150668
14578156222
14578159823
14578164339
14578169833
14578175631
14578183321
14578188876
14578193148
14578197909
14578202975
14578209383
14578214693
14578220125
14578226717
14578231478
14578236788
14578241549
14578246615
14578251497
14578256746
14578263338
14578268587
14578274935
14578280428
14578286287
14578290072
14578296724
14578301668
14578305208
14578314425
14578321077
14578326876
14578333345
14578340303
14578343782
14578350374
14578356539
14578361483
14578367891
14578374361
14578380098
14578386141
14578392061
14578398775
14578404939
14578410921
14578418184
14578425447
14578431429
14578435518
14578439851
14578446138
14578451448
14578457124
14578463533
14578470613
14578474947
14578479463
14578485200
14578490388
14578496797
14578501802
14578505769
14578512483
14578518526
14578523042
14578528840
14578533906
14578538850
14578545076
14578548372
14578557588
14578561311
14578568208
14578573335
14578578035
14578583101
14578587312
14578594331
14578599092
14578605256
14578610994
14578616792
14578622651
14578626924
14578634370
14578641328
14578646394
14578649934
14578657930
14578661897
14578667512
14578673432
14578678681
14578683930
14578690217
14578696137
14578700898
14578706635
14578712678
14578718720
14578724763
14578734162
14578741120
14578749543
14578755769
14578763825
14578772553
14578780915
14578788605
14578794831
14578803254
14578811799
14578818268
14578825898
14578835053
14578842316
14578852265
14578861481
14578869233
14578877594
14578884491
14578891755
14578900483
14578907929
14578915558
14578923615
14578932038
14578937409
14578943512
14578947785
14578954438
14578958954
14578965180
14578970795
14578978363
14578983124
14578989105
14578993500
14578998932
14579005219
14579013153
14579023102
14579031097
14579041168
14579048492
14579057831
14579064545
14579071869
14579079437
14579086945
14579093475
14579097748
14579102142
14579106476
14579110565
14579114899
14579120636
14579124969
14579129730
14579133758
14579137848
14579142303
14579147064
14579151642
14579156952
14579161957
14579166229
14579170196
14579174713
14579177643
14579181976
14579189483
14579194854
14579199554
14579203094
14579207977
14579211456
14579216034
14579220367
14579225616
14579230194
14579235626
14579239532
14579243682
14579247894
14579252532
14579258087
14579264862
14579268463
14579274993
14579279693
14579283538
14579288726
14579294891
14579303253
14579307708
14579313629
14579319183
14579324188
14579328582
14579335052
14579338897
14579344085
14579351043
14579354583
14579361419
14579364593
14579371551
14579374419
14579382232
14579387969
14579393096
14579398955
14579403106
14579408660
14579413055
14579418243
14579423125
14579430633
14579436126
14579439910
14579447600
14579450835
14579457427
14579460784
14579466338
14579475921
14579480925
14579486846
14579493987
14579499724
14579505034
14579508879
14579514434
14579521758
14579536528
14579542144
14579548003
14579552703
14579556609
14579563079
14579570586
14579576201
14579581816
14579587615
14579594390
14579599639
14579604826
14579608794
14579613310
14579617644
14579622099
14579627959
14579631194
14579638091
14579643767
14579648467
14579653777
14579657866
14579663603
14579667448
14579676421
14579682402
14579688750
14579693266
14579698454
14579704558
14579712126
14579718474
14579726469
14579732878
14579741545
14579748137
14579756254
14579762785
14579770109
14579776579
14579784880
14579791472
14579799284
14579805937
14579814970
14579821012
14579828581
14579834623
14579841703
14579848417
14579857695
14579864836
14579872465
14579878630
14579886442
14579893461
14579898954
14579904386
14579911283
14579916288
14579921354
14579926420
14579932096
14579936857
14579941923
14579947172
14579953092
14579958646
14579963712
14579968046
14579973722
14579979215
14579984281
14579988126
14579993375
14580001310
14580006132
14580012113
14580017728
14580021451
14580026884
14580032010
14580036893
14580044950
14580051847
14580057096
14580061735
14580066800
14580071744
14580077359
14580081754
14580089383
14580094388
14580099881
14580105191
14580108487
14580116300
14580123624
14580130216
14580137174
14580143155
14580149015
14580153897
14580159635
14580164762
14580171475
14580178739
14580184720
14580191983
14580195950
14580202664
14580209439
14580214261
14580220120
14580225430
14580231961
14580236112
14580241971
14580246121
14580251431
14580255582
14580260220
14580266995
14580272549
14580277127
14580283047
14580287564
14580292264
14580296414
14580301358
14580306668
14580314053
14580319058
14580324124
14580328763
14580333401
14580338284
14580344143
14580350796
14580357083
14580362454
14580368130
14580373440
14580377530
14580382351
14580388028
14580394803
14580400479
14580406704
14580412320
14580417752
14580421841
14580426358
14580432339
14580438076
14580443875
14580449612
14580455654
14580461941
14580465725
14580471218
14580476467
14580482632
14580486904
14580494656
14580498257
14580504543
14580509243
14580514370
14580520046
14580524746
14580533047
14580539394
14580545132
14580550259
14580555386
14580559719
14580565090
14580570888
14580576687
14580583034
14580587185
14580592190
14580597805
14580603481
14580608547
14580613308
14580618496
14580624416
14580631740
14580635891
14580643337
14580650173
14580654873
14580660976
14580667080
14580674404
14580681972
14580690700
14580695583
14580702846
14580706081
14580715175
14580724269
14580733058
14580741237
14580750453
14580758510
14580766933
14580773403
14580780971
14580785976
14580795314
14580804347
14580811977
14580818263
14580825282
14580834499
14580842250
14580848903
14580856593
14580864040
14580871791
14580880031
14580887904
14580895167
14580903468
14580911159
14580917445
14580923060
14580928370
14580931972
14580939113
14580946742
14580950709
14580957728
14580961207
14580968532
14580973658
14580977382
14580983241
14580988795
14580994960
14581000880
14581008082
14581012049
14581018641
14581024256
14581029872
14581035731
14581041896
14581048487
14581053370
14581059046
14581064356
14581070704
14581076380
14581080042
14581087794
14581093531
14581100123
14581105616
14581110987
14581116053
14581121485
14581126734
14581132655
14581138880
14581145838
14581151209
14581157191
14581161768
14581168055
14581172877
14581177943
14581184962
14581190577
14581196131
14581201197
14581207361
14581212000
14581217798
14581223353
14581229578
14581234034
14581240931
14581246363
14581251917
14581257776
14581261866
14581268702
14581273768
14581278956
14581283838
14581290247
14581296595
14581302881
14581309229
14581315393
14581320520
14581328211
14581334864
14581343286
14581350733
14581355677
14581362268
14581366175
14581373194
14581379175
14581386072
14581394434
14581400659
14581406397
14581413171
14581417749
14581422510
14581427576
14581432764
14581440637
14581446497
14581451013
14581456689
14581461816
14581467126
14581472803
14581478357
14581483423
14581489221
14581493188
14581499048
14581504236
14581508752
14581515283
14581521081
14581526269
14581531518
14581536828
14581541406
14581547143
14581552270
14581558069
14581564111
14581570703
14581577661
14581582666
14581588525
14581594995
14581599755
14581605188
14581611108
14581615991
14581621240
14581627099
14581632714
14581637780
14581643457
14581649011
14581655175
14581659631
14581665551
14581673425
14581678430
14581685571
14581691369
14581696069
14581701684
14581706689
14581712487
14581717431
14581723046
14581729638
14581734460
14581740319
14581746606
14581751855
14581756921
14581763390
14581769128
14581773888
14581780053
14581785912
14581791588
14581796227
14581805688
14581812829
14581822045
14581829247
14581834801
14581843346
14581851952
14581861107
14581869652
14581875451
14581883568
14581891198
14581899376
14581907860
14581913170
14581921593
14581931359
14581939476
14581946862
14581954918
14581965416
14581972008
14581982567
14581992088
14582000328
14582006981
14582015526
14582019310
14582026207
14582031700
14582035545
14582043358
14582051659
14582057762
14582063805
14582068932
14582075706
14582081688
14582088829
14582093529
14582098656
14582103355
14582109093
14582113914
14582119285
14582124718
14582130211
14582135521
14582141807
14582147728
14582151329
14582158897
14582162254
14582169395
14582175438
14582181724
14582186973
14582191063
14582197898
14582203514
14582210228
14582218345
14582224021
14582228416
14582234031
14582240196
14582246238
14582251426
14582257224
14582262840
14582268089
14582275169
14582281577
14582286826
14582292869
14582297447
14582303001
14582309837
14582315208
14582320884
14582327049
14582332298
14582338950
14582344749
14582350425
14582355613
14582361472
14582368247
14582374229
14582380271
14582385154
14582390769
14582395713
14582401633
14582407798
14582413413
14582418845
14582424643
14582431540
14582437156
14582442344
14582447898
14582452536
14582457908
14582465049
14582468955
14582476279
14582481528
14582488181
14582493125
14582497275
14582502890
14582508994
14582514426
14582522177
14582527304
14582533042
14582538901
14582544821
14582549826
14582555014
14582560324
14582565817
14582572898
14582577658
14582583396
14582588950
14582595297
14582602072
14582609457
14582615317
14582622641
14582628867
14582634726
14582640768
14582646323
14582652182
14582656149
14582663596
14582669760
14582676962
14582683249
14582690939
14582695639
14582699179
14582705649
14582709494
14582715964
14582721213
14582725973
14582731344
14582736776
14582742270
14582747580
14582752829
14582758078
14582764731
14582770285
14582775961
14582780966
14582786520
14582791098
14582796286
14582803427
14582809408
14582815390
14582819845
14582825399
14582830892
14582836752
14582842306
14582847982
14582853536
14582860555
14582866049
14582871115
14582877035
14582882467
14582885885
14582894918
14582898763
14582906942
14582915243
14582921957
14582930257
14582938863
14582946676
14582954671
14582962911
14582972311
14582981771
14582989217
14582998006
14583006551
14583011617
14583021627
14583028768
14583034200
14583044515
14583053304
14583059957
14583068013
14583075093
14583085286
14583093282
14583102071
14583108785
14583117391
14583123555
14583130025
14583135457
14583141072
14583146627
14583152547
14583157063
14583163045
14583170491
14583176412
14583181722
14583186788
14583193013
14583198567
14583203999
14583209309
14583213643
14583221577
14583226949
14583231892
14583237935
14583242085
14583247639
14583252888
14583259175
14583265401
14583270467
14583278218
14583285298
14583291096
14583296895
14583304097
14583309651
14583313557
14583322896
14583332966
14583339070
14583345295
14583350483
14583358296
14583363972
14583370625
14583374897
14583381367
14583386433
14583390461
14583396138
14583402485
14583408039
14583413899
14583418537
14583422016
14583429096
14583434651
14583441548
14583445271
14583450947
14583457905
14583464253
14583469380
14583473591
14583479328
14583485432
14583490620
14583495503
14583501179
14583511860
14583517353
14583523762
14583528950
14583533344
14583537861
14583543171
14583550312
14583555378
14583561298
14583565937
14583569782
14583575519
14583581745
14583588032
14583592670
14583598041
14583603229
14583608356
14583612751
14583619648
14583624408
14583629780
14583635273
14583641437
14583645893
14583653644
14583660053
14583665851
14583671955
14583677082
14583683857
14583689533
14583695942
14583702228
14583708576
14583714557
14583719074
14583725788
14583733173
14583738971
14583745075
14583750690
14583755084
14583762409
14583767719
14583774066
14583781024
14583787738
14583792194
14583799823
14583804584
14583811176
14583816852
14583822955
14583828510
14583833392
14583838947
14583845905
14583851215
14583859027
14583864215
14583870074
14583878253
14583883990
14583894366
14583900043
14583906146
14583911944
14583916217
14583922198
14583929339
14583936297
14583942828
14583949725
14583955340
14583960467
14583966266
14583970721
14583977008
14583981768
14583987506
14583991961
14583998675
14584003131
14584008807
14584014727
14584018573
14584025836
14584034503
14584039691
14584047015
14584052874
14584058795
14584064471
14584071368
14584076373
14584081988
14584087664
14584092852
14584098101
14584104205
14584109759
14584114153
14584121233
14584127337
14584132952
14584138262
14584141619
14584148577
14584153643
14584159197
14584163042
14584170550
14584176287
14584181658
14584186724
14584189532
14584195818
14584202288
14584208513
14584215899
14584221392
14584226824
14584231890
14584237566
14584242693
14584248369
14584254107
14584262957
14584268633
14584274370
14584279497
14584285112
14584291033
14584294573
14584302202
14584308916
14584315203
14584319231
14584325945
14584331621
14584337847
14584343401
14584348833
14584353288
14584360918
14584367937
14584373125
14584378923
14584384966
14584390154
14584395769
14584402239
14584408891
14584414507
14584420732
14584426469
14584432939
14584437395
14584442522
14584449663
14584455217
14584461442
14584469621
14584475114
14584482072
14584489458
14584494951
14584500566
14584506608
14584513017
14584519304
14584524980
14584530351
14584536760
14584542741
14584548295
14584556535
14584562883
14584566240
14584573991
14584577348
14584584550
14584588029
14584595292
14584601945
14584607011
14584613237
14584617753
14584624589
14584629716
14584634599
14584639909
14584647050
14584652604
14584657792
14584663163
14584668534
14584673661
14584679032
14584684464
14584690568
14584696122
14584700517
14584705888
14584711930
14584717301
14584722123
14584729325
14584734757
14584740372
14584746171
14584751847
14584756852
14584762528
14584768143
14584775101
14584781937
14584787797
14584793839
14584799821
14584805070
14584810746
14584816483
14584820511
14584828751
14584832840
14584839737
14584844803
14584850846
14584855851
14584862565
14584868363
14584876725
14584882035
14584887772
14584893021
14584898392
14584904862
14584910111
14584914627
14584922684
14584928910
14584933975
14584938309
14584944046
14584948929
14584955704
14584961868
14584968460
14584973831
14584979019
14584984757
14584992813
14584998489
14585004044
14585009964
14585017166
14585020828
14585028519
14585034439
14585038956
14585045120
14585051468
14585062759
14585069290
14585074478
14585079056
14585085037
14585090774
14585098770
14585104202
14585112198
14585117447
14585123977
14585131790
14585136856
14585141617
14585147598
14585153518
14585159988
14585166885
14585172744
14585178787
14585184463
14585190383
14585195999
14585201309
14585208450
14585214126
14585219802
14585225845
14585231338
14585236404
14585242385
14585247512
14585255874
14585261001
14585271194
14585278396
14585282852
14585289382
14585296096
14585300613
14585307754
14585313247
14585319167
14585324905
14585329421
14585336684
14585341872
14585347854
14585354323
14585360549
14585365188
14585371169
14585377029
14585383498
14585388869
14585393569
14585399795
14585408645
14585414382
14585418349
14585425307
14585430800
14585437209
14585443190
14585447768
14585457595
14585464186
14585469252
14585475539
14585480788
14585486953
14585493178
14585497329
14585503310
14585509291
14585515517
14585521193
14585526015
14585532241
14585538954
14585545058
14585550063
14585556349
14585561049
14585566847
14585572829
14585578749
14585584670
14585589247
14585595351
14585602126
14585607375
14585613966
14585619032
14585626418
14585633070
14585639662
14585645827
14585655287
14585662184
14585666579
14585675246
14585679701
14585687819
14585693983
14585701124
14585707838
14585714125
14585720350
14585726637
14585732863
14585737867
14585745192
14585752150
14585758131
14585764235
14585769300
14585774855
14585780348
14585786329
14585792189
14585795790
14585802015
14585807753
14585813551
14585817274
14585823744
14585829054
14585835462
14585840650
14585846815
14585852308
14585859083
14585865003
14585871046
14585875807
14585881910
14585887647
14585894483
14585899732
14585904127
14585910719
14585916639
14585923292
14585928602
14585935072
14585941236
14585946729
14585952222
14585957227
14585962659
14585968519
14585975477
14585980848
14585987379
14585991956
14585998670
14586004529
14586011548
14586016919
14586023206
14586029126
14586035169
14586040357
14586044629
14586051038
14586058057
14586063672
14586069776
14586075208
14586081922
14586087232
14586091809
14586098401
14586103589
14586110608
14586114392
14586118360
14586126294
14586133557
14586139295
14586142957
14586150830
14586158765
14586162610
14586168530
14586174390
14586180310
14586185193
14586191541
14586197827
14586206128
14586211255
14586218945
14586224866
14586229810
14586237866
14586244092
14586249219
14586256970
14586263745
14586270093
14586276990
14586281750
14586288647
14586294201
14586300366
14586307568
14586314892
14586323681
14586329236
14586334851
14586341320
14586347607
14586352246
14586361401
14586369091
14586373669
14586379223
14586386731
14586393200
14586398876
14586405285
14586408947
14586415234
14586421398
14586427075
14586433178
14586438427
14586443981
14586449780
14586454601
14586461132
14586466808
14586473766
14586479382
14586484692
14586490856
14586496471
14586501904
14586506359
14586513805
14586518505
14586523754
14586528942
14586534069
14586539989
14586545666
14586550243
14586555614
14586563488
14586566967
14586573253
14586578625
14586583629
14586589001
14586596203
14586602855
14586610058
14586615429
14586619457
14586627392
14586631298
14586638195
14586642528
14586649425
14586655407
14586661449
14586667125
14586671581
14586677806
14586684032
14586689708
14586694896
14586699047
14586706737
14586713085
14586717784
14586722789
14586729076
14586734081
14586738048
14586745006
14586751293
14586756481
14586762035
14586767284
14586773143
14586779918
14586784007
14586791148
14586799266
14586806407
14586812389
14586816722
14586822459
14586827830
14586833934
14586840099
14586844127
14586852794
14586856883
14586862681
14586867625
14586875194
14586880687
14586885814
14586892711
14586899852
14586905040
14586910472
14586916087
14586922496
14586929454
14586935496
14586941722
14586947947
14586953929
14586959788
14586965464
14586972483
14586979014
14586983714
14586992137
14586999400
14587007518
14587012217
14587016368
14587023020
14587027598
14587032908
14587039561
14587044688
14587051219
14587056895
14587062449
14587067637
14587073130
14587078440
14587083689
14587090098
14587095469
14587100901
14587107249
14587111033
14587118174
14587123728
14587128489
14587134775
14587142039
14587147593
14587153818
14587158884
14587165110
14587171580
14587176768
14587181467
14587189402
14587194834
14587198435
14587206064
14587211802
14587216318
14587222605
14587227793
14587234690
14587240854
14587246714
14587251658
14587257578
14587263498
14587269785
14587275034
14587280405
14587286203
14587291513
14587297739
14587302683
14587308786
14587315378
14587319223
14587327341
14587334665
14587340280
14587345468
14587351084
14587357004
14587362497
14587368356
14587374887
14587381967
14587387460
14587392892
14587398691
14587409067
14587421762
14587435007
14587446420
14587455636
14587465951
14587474313
14587481454
14587488595
14587495981
14587503488
14587510141
14587516549
14587521432
14587525705
14587531015
14587536874
14587543649
14587551645
14587557931
14587564096
14587568673
14587574533
14587578866
14587585092
14587590829
14587598703
14587604440
14587610177
14587615731
14587620309
14587624703
14587629586
14587635568
14587640145
14587645577
14587650033
14587656075
14587661263
14587666451
14587671151
14587678170
14587684762
14587688973
14587694405
14587699288
14587703683
14587709359
14587714303
14587721566
14587725655
14587730355
14587736153
14587741219
14587745431
14587752206
14587759652
14587767220
14587774056
14587779122
14587783883
14587789376
14587794015
14587799019
14587804207
14587809334
14587813912
14587819100
14587824105
14587828988
14587833870
14587838936
14587846138
14587850594
14587855538
14587861519
14587864815
14587871407
14587876412
14587882881
14587887337
14587894966
14587902413
14587908028
14587914131
14587921211
14587926094
14587931343
14587938179
14587943367
14587948494
14587952706
14587958382
14587964546
14587967842
14587974007
14587979927
14587985603
14587990730
14587997505
14588002510
14588005806
14588012825
14588016304
14588022163
14588030342
14588035408
14588038948
14588046272
14588050850
14588057197
14588062263
14588067085
14588072883
14588078377
14588083748
14588091194
14588096321
14588103523
14588107612
14588113472
14588121711
14588127083
14588135017
14588140632
14588147834
14588153267
14588159004
14588167427
14588172920
14588177497
14588183418
14588188240
14588192329
14588197029
14588202033
14588208320
14588213508
14588218269
14588223030
14588228034
14588233467
14588238532
14588243842
14588251899
14588256965
14588262519
14588268012
14588273261
14588278144
14588283271
14588288093
14588293891
14588300422
14588306220
14588310798
14588315925
14588320441
14588325263
14588331855
14588337043
14588342841
14588348273
14588354316
14588359199
14588364692
14588369330
14588375739
14588381354
14588389777
14588395575
14588399116
14588405402
14588411567
14588418158
14588423407
14588429084
14588436286
14588441230
14588447394
14588452460
14588458136
14588464606
14588469611
14588474494
14588481330
14588487616
14588493781
14588498847
14588504584
14588510687
14588516852
14588521735
14588526984
14588533331
14588538703
14588542365
14588549689
14588557196
14588562018
14588567633
14588572760
14588579108
14588585455
14588590765
14588596014
14588601141
14588606573
14588612006
14588620734
14588625983
14588631781
14588637823
14588643866
14588648932
14588656439
14588662665
14588672919
14588678229
14588685675
14588691900
14588695929
14588701910
14588708075
14588713873
14588724188
14588729864
14588735296
14588740545
14588746588
14588752081
14588758245
14588764288
14588769781
14588775640
14588781134
14588786322
14588791937
14588797796
14588802923
14588807623
14588813421
14588819403
14588825018
14588831426
14588836736
14588841070
14588846197
14588852117
14588858282
14588863592
14588869207
14588874700
14588880193
14588886053
14588891363
14588897222
14588903448
14588909734
14588915227
14588920293
14588925725
14588931585
14588937139
14588941778
14588950323
14588955266
14588960821
14588967290
14588973333
14588977422
14588982122
14588987920
14588995672
14589001653
14589005132
14589012151
14589017156
14589022832
14589028569
14589033574
14589041082
14589045537
14589051885
14589057500
14589063726
14589074407
14589081182
14589087102
14589091741
14589097905
14589104985
14589110906
14589116704
14589122258
14589127507
14589133794
14589140202
14589146733
14589152776
14589158391
14589163518
14589170049
14589176335
14589182072
14589186467
14589193974
14589198491
14589203618
14589209111
14589214909
14589219548
14589225346
14589231206
14589238713
14589243657
14589249577
14589254887
14589260930
14589267277
14589274174
14589280034
14589286503
14589291813
14589297795
14589303654
14589309880
14589316227
14589322026
14589326725
14589334355
14589340153
14589344304
14589350041
14589355229
14589359562
14589364262
14589369328
14589375859
14589379704
14589384465
14589389653
14589394352
14589400212
14589405888
14589410649
14589417607
14589422489
14589428776
14589435856
14589440373
14589447758
14589451969
14589458256
14589463688
14589470890
14589477604
14589482243
14589487919
14589492680
14589498173
14589502262
14589508488
14589515324
14589523991
14589530277
14589535526
14589540958
14589546574
14589551945
14589558903
14589564579
14589569889
14589575077
14589579838
14589584293
14589589664
14589594425
14589600406
14589606510
14589611759
14589617191
14589621586
14589626285
14589630863
14589636722
14589643314
14589650577
14589656559
14589662296
14589667911
14589672123
14589676761
14589682254
14589687808
14589694400
14589699893
14589703556
14589711368
14589716434
14589720523
14589725772
14589730228
14589737308
14589741886
14589747440
14589752200
14589757633
14589763248
14589768436
14589773441
14589782596
14589788211
14589793948
14589798709
14589803775
14589808353
14589813968
14589818851
14589826663
14589833804
14589840823
14589846011
14589852176
14589857669
14589862491
14589868411
14589876163
14589882266
14589888797
14589892764
14589898074
14589903933
14589908755
14589914309
14589921145
14589925906
14589931155
14589937747
14589940982
14589948184
14589952517
14589957644
14589963504
14589969546
14589974429
14589979190
14589983401
14589988772
14589995181
14589999148
14590005007
14590013064
14590018252
14590023257
14590028140
14590034304
14590039553
14590043582
14590049075
14590055666
14590061831
14590067141
14590071536
14590076907
14590080203
14590086733
14590092959
14590097781
14590107180
14590112856
14590116640
14590123171
14590128786
14590134341
14590139773
14590144778
14590151003
14590156374
14590161135
14590167605
14590172121
14590178103
14590181948
14590188967
14590195803
14590201479
14590207338
14590212221
14590217775
14590223574
14590228212
14590232180
14590239748
14590246218
14590251589
14590257387
14590262697
14590268190
14590274599
14590280214
14590285219
14590293215
14590299196
14590305422
14590310304
14590315920
14590321474
14590327577
14590331667
14590340578
14590346437
14590354799
14590362856
14590370180
14590376772
14590384767
14590389406
14590398683
14590406007
14590417177
14590424623
14590430971
14590437196
14590446779
14590457094
14590465333
14590471925
14590481996
14590486696
14590496522
14590505067
14590513612
14590520814
14590526307
14590536256
14590544069
14590550538
14590557557
14590568421
14590576966
14590584718
14590591981
14590596803
14590604188
14590609437
14590616151
14590623170
14590630860
14590636170
14590641786
14590646790
14590652589
14590658692
14590664185
14590668763
14590674622
14590681825
14590685975
14590692200
14590697266
14590702821
14590708131
14590713990
14590719239
14590726685
14590732789
14590738526
14590744080
14590750367
14590756226
14590761902
14590766480
14590772461
14590778809
14590785401
14590791260
14590796021
14590801697
14590806641
14590811890
14590818909
14590824463
14590829346
14590835755
14590841553
14590847046
14590853089
14590859192
14590866028
14590871338
14590878357
14590884888
14590890259
14590895935
14590901306
14590907959
14590912720
14590919190
14590925476
14590933106
14590938049
14590942505
14590947632
14590952454
14590957581
14590962097
14590970032
14590975525
14590982178
14590986877
14590992798
14590998169
14591003540
14591009582
14591014160
14591021789
14591028625
14591034851
14591042175
14591048645
14591057312
14591063904
14591072510
14591079773
14591086609
14591093994
14591103882
14591111206
14591119873
14591125488
14591131591
14591141601
14591150512
14591161682
14591170532
14591181274
14591186950
14591194702
14591206664
14591216613
14591228820
14591243835
14591258727
14591273132
14591284240
14591297057
14591310058
14591321410
14591332824
14591349792
14591360656
14591369140
14591378966
14591387572
14591396361
14591404662
14591414000
14591424987
14591433898
14591441039
14591449462
14591457701
14591465758
14591474791
14591483092
14591492064
14591500060
14591509093
14591516722
14591524535
14591533629
14591542235
14591548644
14591558836
14591565489
14591574278
14591583739
14591591734
14591599730
14591607054
14591614806
14591624632
14591632262
14591642027
14591648741
14591656676
14591666136
14591673826
14591680723
14591688780
14591696470
14591704893
14591714109
14591724791
14591732420
14591741880
14591750303
14591759703
14591767698
14591775999
14591792906
14591803953
14591821592
14591835630
14591849546
14591862241
14591879819
14591892942
14591907163
14591922178
14591936399
14591950315
14591966306
14591976194
14591983579
14591990354
14591998716
14592013913
14592027219
14592041806
14592057187
14592070493
14592081174
14592089963
14592099423
14592109250
14592119626
14592129147
14592136472
14592144223
14592151791
14592160336
14592169186
14592177304
14592185666
14592194150
14592201901
14592210263
14592217953
14592225949
14592230466
14592240842
14592249020
14592257626
14592265500
14592272152
14592278988
14592286435
14592293149
14592301388
14592309323
14592317624
14592327694
14592338253
14592345883
14592352475
14592359738
14592368222
14592376278
14592384457
14592393063
14592401180
14592409359
14592417477
14592425655
14592432919
14592440853
14592448605
14592455624
14592463924
14592473019
14592481441
14592486629
14592497799
14592505978
14592514583
14592522762
14592530086
14592537716
14592545345
14592554928
14592562740
14592570247
14592576778
14592584652
14592593197
14592600582
14592608089
14592618953
14592625484
14592633174
14592642025
14592649410
14592656612
14592664546
14592672054
14592680416
14592689205
14592697444
14592707515
14592716243
14592722469
14592730403
14592738887
14592746639
14592754939
14592764827
14592771785
14592779353
14592788203
14592795955
14592802669
14592812678
14592819697
14592828486
14592833674
14592838740
14592843501
14592849666
14592857478
14592864680
14592870479
14592876826
14592881099
14592886042
14592891414
14592899165
14592906672
14592910884
14592916682
14592922969
14592928035
14592932307
14592939082
14592943232
14592948298
14592952693
14592959101
14592963496
14592968989
14592973689
14592980097
14592985774
14592989741
14592994135
14592999995
14593004634
14593010249
14593015498
14593020136
14593025935
14593030390
14593035700
14593039729
14593045649
14593050288
14593055293
14593059992
14593064814
14593069209
14593073237
14593077631
14593082392
14593089289
14593093195
14593097651
14593103510
14593107966
14593111933
14593116389
14593120661
14593126887
14593132014
14593134821
14593140742
14593144953
14593149958
14593154596
14593158625
14593166010
14593170832
14593174250
14593182123
14593188166
14593192804
14593196405
14593204462
14593210932
14593216120
14593221003
14593225702
14593230524
14593235407
14593241022
14593246576
14593250849
14593258112
14593263178
14593268427
14593273859
14593278681
14593283319
14593290766
14593296198
14593302301
14593308466
14593313226
14593319086
