14594235404
14594250236
14594259086
14594270560
14594280509
14594291068
14594304191
14594313956
14594324027
14594335013
14594345084
14594353751
14594364921
14594373710
14594384391
14594393729
14594403556
14594414908
14594427665
14594437247
14594446402
14594455985
14594467887
14594477225
14594487113
14594497183
14594507803
14594517630
14594527579
14594538321
14594548453
14594559988
14594570792
14594580435
14594590811
14594601858
14594612417
14594623648
14594633108
14594644949
14594655935
14594666922
14594676626
14594688406
14594698721
14594709097
14594719412
14594730276
14594742971
14594753042
14594762319
14594772573
14594781668
14594792166
14594801382
14594810049
14594820974
14594830496
14594839773
14594847158
14594858083
14594865774
14594874319
14594884573
14594894765
14594902212
14594913198
14594922292
14594933217
14594943532
14594952871
14594964345
14594971853
14594983144
14594990102
14595000600
14595007131
14595015004
14595023122
14595027578
14595031606
14595036306
14595041860
14595046865
14595050222
14595056203
14595061574
14595066396
14595070668
14595074147
14595078176
14595081471
14595085927
14595091237
14595096242
14595099904
14595104360
14595107778
14595112172
14595116017
14595120229
14595125539
14595129811
14595133412
14595138234
14595142751
14595147023
14595151173
14595156606
14595162831
14595167165
14595169850
14595174855
14595177418
14595183705
14595187978
14595191518
14595196156
14595201466
14595206410
14595211354
14595214772
14595219166
14595223988
14595228566
14595234547
14595241200
14595247914
14595251515
14595262929
14595268605
14595277211
14595283497
14595288258
14595292592
14595297169
14595302418
14595307240
14595312489
14595317006
14595321217
14595326161
14595331227
14595335255
14595342030
14595349171
14595353810
14595359608
14595363636
14595369190
14595373219
14595379322
14595384083
14595388844
14595392872
14595397816
14595400501
14595405628
14595409657
14595414356
14595419300
14595423695
14595427784
14595431324
14595435230
14595439198
14595443470
14595448292
14595453419
14595457874
14595462452
14595467457
14595472645
14595476307
14595481373
14595485889
14595492603
14595496754
14595501148
14595504932
14595510792
14595514698
14595521656
14595526478
14595534107
14595538990
14595544666
14595548633
14595553821
14595557544
14595563831
14595569751
14595574024
14595579944
14595584339
14595589893
14595593616
14595598682
14595604236
14595609546
14595615284
14595619922
14595626270
14595631885
14595636890
14595641651
14595645862
14595652820
14595657215
14595664844
14595670398
14595676319
14595680591
14595685901
14595690601
14595694629
14595702503
14595707691
14595719104
14595727283
14595733875
14595738696
14595749744
14595754443
14595771472
14595777515
14595785205
14595795398
14595803760
14595811084
14595818469
14595827868
14595834887
14595841662
14595848865
14595855578
14595862658
14595868945
14595875415
14595883654
14595890612
14595898120
14595901660
14595908557
14595913440
14595918322
14595922107
14595929003
14595934436
14595940844
14595944812
14595951037
14595955371
14595960681
14595965075
14595970751
14595976916
14595982958
14595989062
14595994006
14595999682
14596004565
14596011034
14596017687
14596023974
14596029833
14596035143
14596041247
14596046252
14596051257
14596055163
14596060595
14596064989
14596074145
14596080065
14596084704
14596090868
14596095324
14596100634
14596105150
14596110766
14596117113
14596122973
14596128710
14596132982
14596138659
14596144945
14596148974
14596153612
14596158739
14596165209
14596170275
14596176195
14596181017
14596186266
14596191210
14596196520
14596203234
14596209520
14596215136
14596220751
14596225145
14596230944
14596235582
14596239977
14596246508
14596253099
14596258104
14596262743
14596269762
14596273790
14596279100
14596286302
14596290697
14596295946
14596302294
14596306200
14596312914
14596318346
14596322862
14596326952
14596332811
14596340074
14596346605
14596354173
14596361497
14596368333
14596376329
14596383287
14596389085
14596400682
14596409715
14596415941
14596420518
14596423936
14596431932
14596437425
14596442979
14596449266
14596455552
14596459947
14596465684
14596473741
14596479234
14596484605
14596489915
14596496507
14596501329
14596507005
14596511888
14596517564
14596523851
14596529344
14596535874
14596540330
14596547593
14596551988
14596557969
14596560105
14596568101
14596575791
14596580796
14596586900
14596591783
14596595933
14596601243
14596605393
14596610398
14596617906
14596622178
14596627976
14596632920
14596636582
14596643601
14596647630
14596654099
14596662583
14596667466
14596671189
14596678574
14596683213
14596687485
14596691575
14596699387
14596704697
14596713120
14596715317
14596725693
14596732163
14596740281
14596748459
14596755784
14596764695
14596773606
14596779160
14596788376
14596795212
14596803269
14596809922
14596818344
14596826462
14596835129
14596842270
14596845566
14596856552
14596865402
14596871872
14596878220
14596888352
14596894333
14596902573
14596908066
14596916977
14596924057
14596930283
14596935532
14596941330
14596947739
14596954880
14596962448
14596968430
14596971725
14596980026
14596987045
14596993637
14597002853
14597009018
14597016952
14597022018
14597028244
14597035446
14597040817
14597047897
14597053756
14597059677
14597065231
14597071823
14597076461
14597081833
14597086288
14597091781
14597096420
14597101913
14597106613
14597111862
14597117050
14597122848
14597127243
14597131759
14597138351
14597140243
14597150802
14597155319
14597161727
14597165817
14597173751
14597180831
14597185409
14597190353
14597196029
14597203536
14597208480
14597213424
14597219344
14597225509
14597231124
14597239181
14597243697
14597250899
14597254684
14597263045
14597269515
14597275619
14597282882
14597289474
14597295516
14597301070
14597306319
14597313643
14597319015
14597325057
14597332564
14597337142
14597343429
14597345504
14597354781
14597359420
14597365706
14597371261
14597376754
14597384139
14597388961
14597394027
14597400496
14597405440
14597411055
14597417769
14597422103
14597426619
14597433211
14597438155
14597442244
14597449690
14597454024
14597461287
14597466841
14597471419
14597477278
14597484725
14597489668
14597495711
14597500716
14597506636
14597510970
14597516646
14597522566
14597527815
14597534895
14597538985
14597546004
14597550276
14597556685
14597562239
14597568465
14597572432
14597578413
14597585737
14597593611
14597599715
14597606856
14597613447
14597619124
14597629072
14597634260
14597639387
14597644697
14597650984
14597655684
14597661299
14597666182
14597671492
14597678999
14597684370
14597689253
14597695417
14597700666
14597706587
14597711836
14597717634
14597722578
14597729353
14597734053
14597740217
14597744428
14597749678
14597756269
14597761885
14597768049
14597773481
14597779402
14597783674
14597789839
14597794355
14597804121
14597809370
14597819318
14597827497
14597835981
14597841047
14597850141
14597859235
14597862592
14597875165
14597883710
14597891096
14597897016
14597907697
14597913862
14597923810
14597928937
14597939008
14597947309
14597956220
14597964460
14597970197
14597979413
14597987836
14597995221
14598001935
14598010419
14598017377
14598023481
14598028363
14598035321
14598040387
14598046491
14598050458
14598057721
14598064313
14598070844
14598074750
14598080609
14598085980
14598092877
14598098370
14598103925
14598108685
14598117169
14598123456
14598129254
14598133954
14598138654
14598145489
14598150372
14598157330
14598164410
14598170758
14598177533
14598182721
14598188458
14598193524
14598199750
14598206341
14598209576
14598217572
14598223309
14598229230
14598235272
14598240948
14598246624
14598250897
14598258099
14598265728
14598272076
14598278607
14598286236
14598292645
14598298260
14598303997
14598312542
14598318280
14598324078
14598328472
14598335125
14598339581
14598344525
14598350567
14598352459
14598361981
14598366924
14598372723
14598376690
14598382122
14598388958
14598395367
14598402142
14598407818
14598413311
14598419842
14598425030
14598430950
14598437054
14598442791
14598447613
14598453594
14598459148
14598468365
14598473125
14598479168
14598484417
14598491375
14598496075
14598501751
14598508037
14598512615
14598520672
14598525860
14598532085
14598536846
14598542644
14598548076
14598555889
14598560589
14598566997
14598573223
14598578899
14598584148
14598590435
14598595256
14598601482
14598608196
14598613750
14598619365
14598625530
14598632732
14598637493
14598645000
14598649822
14598655925
14598662517
14598664714
14598674358
14598681011
14598686199
14598693096
14598699626
14598703532
14598709941
14598718486
14598724223
14598729228
14598735637
14598741374
14598747661
14598752605
14598758769
14598764690
14598770671
14598777080
14598783732
14598788066
14598794230
14598800578
14598804545
14598811687
14598818156
14598826396
14598833659
14598838786
14598843303
14598851054
14598855998
14598860698
14598867534
14598871440
14598882853
14598887675
14598896220
14598905070
14598910563
14598916972
14598921733
14598928324
14598935465
14598943522
14598951029
14598959696
14598966532
14598976237
14598982890
14598989787
14598996623
14599005290
14599011942
14599019755
14599025675
14599034708
14599040812
14599051676
14599057597
14599065287
14599073405
14599079081
14599088846
14599094950
14599105509
14599111674
14599120768
14599127909
14599137674
14599145487
14599152506
14599157328
14599164347
14599170206
14599177225
14599182047
14599189005
14599194254
14599199076
14599205851
14599211710
14599218485
14599223184
14599229898
14599235147
14599242227
14599248148
14599253092
14599257730
14599264871
14599270670
14599276224
14599282205
14599288126
14599294107
14599298563
14599304056
14599310953
14599316019
14599322000
14599329691
14599333780
14599341348
14599346475
14599351785
14599356607
14599364725
14599372293
14599379129
14599384988
14599389993
14599396402
14599400125
14599409219
14599413370
14599419412
14599424844
14599431863
14599435952
14599442727
14599448159
14599454629
14599460428
14599465554
14599472757
14599479043
14599485208
14599490518
14599499063
14599504617
14599510781
14599516763
14599523721
14599529641
14599537759
14599544229
14599549905
14599554849
14599559609
14599568154
14599573098
14599580178
14599588052
14599594949
14599599343
14599608621
14599615334
14599621865
14599628030
14599632607
14599638100
14599644631
14599649636
14599655556
14599660073
14599665749
14599670937
14599676308
14599680520
14599688332
14599694558
14599699135
14599703286
14599709817
14599714272
14599721169
14599725197
14599733315
14599738442
14599744973
14599749672
14599756020
14599760537
14599764077
14599772561
14599776589
14599785073
14599791054
14599795937
14599801796
14599807900
14599812722
14599817910
14599823097
14599831154
14599836708
14599842690
14599847634
14599853432
14599857826
14599862099
14599869423
14599876747
14599881691
14599886208
14599893410
14599897621
14599903908
14599909889
14599914528
14599919777
14599926918
14599931068
14599938332
14599942177
14599948402
14599954811
14599960426
14599965309
14599972633
14599978004
14599983192
14599988258
14599994179
14600000099
14600004310
14600011452
14600017860
14600025001
14600029213
14600038429
14600042640
14600049354
14600053749
14600064003
14600068031
14600079322
14600087196
14600095558
14600101051
14600112892
14600119300
14600129066
14600139198
14600145729
14600154884
14600161598
14600169898
14600176978
14600184486
14600194801
14600200172
14600210242
14600217750
14600226234
14600233619
14600243751
14600251258
14600261451
14600268653
14600279273
14600286170
14600290870
14600299415
14600304175
14600311805
14600317664
14600321692
14600326575
14600332618
14600337928
14600344947
14600350318
14600355140
14600359656
14600366797
14600370276
14600379187
14600383948
14600390540
14600395850
14600402076
14600407202
14600416602
14600422095
14600429907
14600434607
14600441687
14600446570
14600451209
14600455786
14600461707
14600467627
14600473486
14600478125
14600482642
14600487463
14600495520
14600499793
14600505469
14600510840
14600518164
14600522681
14600528235
14600533911
14600539160
14600545081
14600550330
14600554724
14600560461
14600566321
14600572058
14600577734
14600581213
14600587317
14600592505
14600597937
14600602331
14600611914
14600618445
14600624121
14600629797
14600634802
14600639685
14600647802
14600653296
14600659094
14600663061
14600669775
14600675268
14600680151
14600684362
14600690649
14600695166
14600705969
14600711950
14600717565
14600721838
14600725805
14600732824
14600737036
14600744421
14600748815
14600755529
14600760229
14600765722
14600769506
14600776037
14600780798
14600785436
14600790075
14600797643
14600803259
14600809728
14600814001
14600819189
14600824499
14600833227
14600840429
14600848669
14600854162
14600860754
14600866430
14600872167
14600878759
14600884740
14600890783
14600895910
14600900854
14600906896
14600912328
14600915807
14600922094
14600928014
14600935338
14600941137
14600946569
14600951513
14600956456
14600961095
14600965245
14600973973
14600978978
14600984655
14600989476
14600995336
14600999486
14601005712
14601010900
14601017430
14601021092
14601028295
14601034032
14601039952
14601044042
14601051854
14601057225
14601063024
14601067845
14601074681
14601081883
14601086888
14601094212
14601098851
14601104100
14601108800
14601116978
14601122655
14601130284
14601136204
14601141026
14601148839
14601155858
14601163060
14601171361
14601179417
14601188511
14601195775
14601202550
14601209935
14601218052
14601224522
14601232945
14601240330
14601245518
14601257176
14601261937
14601272190
14601277501
14601287144
14601292942
14601301976
14601309361
14601318089
14601325047
14601327915
14601341465
14601348301
14601355198
14601360996
14601365330
14601370762
14601376865
14601383885
14601388828
14601394444
14601397984
14601404331
14601410496
14601417881
14601422276
14601429905
14601433994
14601440403
14601445530
14601451023
14601456394
14601462070
14601468052
14601475864
14601481602
14601492344
14601496433
14601503269
14601512180
14601519870
14601526584
14601533848
14601539585
14601544773
14601549839
14601556247
14601563022
14601568576
14601573459
14601579197
14601585361
14601591831
14601596958
14601603794
14601610141
14601616306
14601620761
14601626316
14601631442
14601637424
14601641818
14601648715
14601653537
14601658908
14601663364
14601668491
14601675021
14601680515
14601686435
14601691562
14601695956
14601700717
14601706821
14601712253
14601718723
14601723972
14601729831
14601734470
14601741367
14601746188
14601751193
14601757480
14601764194
14601769443
14601773349
14601779696
14601786044
14601792758
14601798190
14601804416
14601810580
14601816745
14601822116
14601826693
14601833896
14601840548
14601845431
14601855197
14601865878
14601870700
14601878512
14601883395
14601890170
14601895907
14601903292
14601907443
14601913546
14601919039
14601924472
14601930331
14601935702
14601940768
14601949313
14601954562
14601960360
14601965548
14601971774
14601976290
14601981722
14601988558
14601995333
14602000582
14602007357
14602012484
14602018038
14602024142
14602027743
14602034518
14602039645
14602047091
14602050814
14602057101
14602061983
14602068514
14602072909
14602080233
14602085360
14602093722
14602099337
14602107821
14602113070
14602117708
14602125887
14602130465
14602138643
14602144564
14602149447
14602156405
14602160555
14602164461
14602171053
14602175325
14602182161
14602186068
14602194063
14602199800
14602205599
14602209505
14602215120
14602220980
14602227754
14602237093
14602245333
14602254488
14602262239
14602269197
14602275179
14602281526
14602289278
14602296602
14602306429
14602314058
14602320467
14602326509
14602333223
14602339815
14602348176
14602354097
14602364778
14602372285
14602381441
14602388154
14602394136
14602403901
14602409822
14602417756
14602423982
14602433870
14602438752
14602445894
14602451081
14602459260
14602465303
14602469880
14602476655
14602482820
14602486299
14602492890
14602498201
14602503450
14602508454
14602515351
14602520234
14602527680
14602533662
14602537812
14602543427
14602549348
14602555146
14602559297
14602565705
14602572297
14602577180
14602582795
14602587678
14602593720
14602597871
14602603913
14602608369
14602615205
14602620148
14602626008
14602632539
14602637055
14602643342
14602647492
14602653840
14602659943
14602666108
14602672211
14602677582
14602682770
14602688569
14602693451
14602700593
14602706147
14602713349
14602719086
14602724091
14602729340
14602736603
14602742585
14602749298
14602753693
14602763337
14602768280
14602774201
14602780732
14602786957
14602792572
14602797272
14602802216
14602808747
14602814423
14602819428
14602824860
14602829071
14602835114
14602841095
14602845123
14602850617
14602856476
14602859833
14602867340
14602871185
14602877777
14602883637
14602891571
14602898468
14602905060
14602910919
14602915253
14602921112
14602925629
14602932709
14602939972
14602946319
14602950653
14602956207
14602961395
14602966461
14602971039
14602974884
14602982086
14602988189
14602992645
14602998749
14603004120
14603009735
14603015411
14603019256
14603024383
14603030548
14603036834
14603042999
14603047699
14603052948
14603057708
14603062286
14603068512
14603074676
14603080902
14603086700
14603092681
14603095855
14603102813
14603107513
14603112762
14603118072
14603124725
14603129913
14603135284
14603140472
14603146819
14603151214
14603155486
14603162689
14603168914
14603175567
14603179839
14603186004
14603191619
14603197295
14603202239
14603208343
14603213531
14603221526
14603226043
14603232207
14603237212
14603242522
14603249114
14603255279
14603260528
14603266265
14603271087
14603276519
14603283965
14603289641
14603297759
14603305266
14603313262
14603322722
14603330108
14603338469
14603345610
14603353057
14603362822
14603369780
14603378142
14603385710
14603394438
14603401763
14603411345
14603417876
14603425566
14603432524
14603440032
14603447905
14603455840
14603464324
14603470549
14603479094
14603484709
14603493803
14603497710
14603503569
14603507231
14603514433
14603522612
14603527312
14603531096
14603537749
14603542448
14603548369
14603554411
14603560637
14603565214
14603571318
14603576140
14603582365
14603586394
14603590544
14603598906
14603604094
14603609587
14603614714
14603621916
14603627104
14603633207
14603638578
14603647306
14603653654
14603659636
14603662931
14603669462
14603674589
14603679716
14603687651
14603692961
14603700102
14603704740
14603709013
14603716154
14603723173
14603736784
14603741728
14603749113
14603754911
14603760099
14603766142
14603771024
14603776762
14603781889
14603789274
14603795072
14603800993
14603806425
14603811918
14603815824
14603822233
14603826505
14603832609
14603836942
14603844022
14603848112
14603853300
14603857999
14603863737
14603871244
14603878080
14603882291
14603887967
14603892728
14603897489
14603903226
14603907071
14603913419
14603919339
14603926358
14603933194
14603941129
14603947477
14603953275
14603961209
14603969083
14603975064
14603980802
14603987149
14603992765
14603998868
14604003812
14604009366
14604015897
14604021939
14604027371
14604031522
14604037564
14604042020
14604045072
14604053861
14604058804
14604066678
14604070462
14604078702
14604082486
14604090421
14604094327
14604100552
14604106839
14604114041
14604119595
14604126370
14604131802
14604138455
14604143399
14604145413
14604156033
14604162076
14604169217
14604174466
14604182461
14604189419
14604194668
14604200650
14604206204
14604210049
14604218655
14604224331
14604231167
14604236477
14604241177
14604245694
14604252896
14604257595
14604265530
14604271023
14604275235
14604283779
14604288967
14604294766
14604299404
14604306607
14604311306
14604317471
14604323574
14604328518
14604333828
14604340359
14604345364
14604351894
14604358120
14604368008
14604375271
14604382961
14604391750
14604399563
14604405483
14604414272
14604420376
14604430386
14604436855
14604445278
14604451748
14604456386
14604466579
14604474575
14604482998
14604488247
14604498623
14604506862
14604512905
14604520290
14604529323
14604535854
14604544155
14604551113
14604558986
14604565029
14604571193
14604576625
14604584255
14604589626
14604594081
14604599391
14604609523
14604615627
14604621120
14604626491
14604633754
14604639125
14604645351
14604652492
14604660610
14604665309
14604670619
14604676112
14604681667
14604685817
14604689784
14604696925
14604704066
14604708766
14604715541
14604719997
14604725001
14604730556
14604736049
14604740687
14604746791
14604753139
14604759730
14604766017
14604771815
14604776454
14604781886
14604787745
14604793483
14604800136
14604805812
14604811610
14604816066
14604821498
14604828090
14604834071
14604838649
14604846034
14604852320
14604854335
14604863002
14604869471
14604873927
14604879603
14604886012
14604889796
14604899073
14604907496
14604914393
14604921168
14604930811
14604937892
14604943324
14604949122
14604955103
14604960474
14604964320
14604969508
14604973597
14604978358
14604983851
14604989405
14604994898
14605000025
14605004542
14605009058
14605014124
14605019312
14605024622
14605029444
14605034937
14605039820
14605046412
14605051172
14605056910
14605061732
14605066858
14605072535
14605078394
14605083887
14605089747
14605095301
14605100428
14605106592
14605112879
14605118799
14605122828
14605127466
14605132837
14605137415
14605142542
14605148462
14605153284
14605159815
14605165918
14605171167
14605176355
14605183130
14605189539
14605197595
14605204492
14605210596
14605216394
14605221460
14605228113
14605232507
14605237695
14605244837
14605248499
14605254907
14605258691
14605264368
14605269373
14605273157
14605277979
14605284570
14605289087
14605294031
14605297693
14605303796
14605307642
14605314294
14605317956
14605327600
14605332056
14605338159
14605343286
14605349389
14605353052
14605360132
14605363855
14605370996
14605376306
14605381128
14605387903
14605394250
14605401147
14605408777
14605418603
14605425439
14605432885
14605439965
14605446618
14605454797
14605461206
14605468469
14605476220
14605484216
14605493066
14605500451
14605507470
14605515893
14605521813
14605527368
14605536523
14605546410
14605553185
14605561852
14605567895
14605575341
14605583276
14605589074
14605595483
14605602074
14605608056
14605614098
14605619469
14605624352
14605630212
14605634789
14605641991
14605649193
14605653832
14605659691
14605668908
14605675683
14605680504
14605685509
14605689660
14605698021
14605706017
14605711327
14605716820
14605721764
14605728356
14605734093
14605739830
14605745201
14605751305
14605757042
14605762902
14605768822
14605774742
14605780236
14605788292
14605793846
14605800804
14605806664
14605813194
14605819969
14605825462
14605831993
14605837059
14605843590
14605849205
14605855064
14605860069
14605865685
14605870018
14605876305
14605880699
14605891502
14605896263
14605902367
14605908165
14605912254
14605917625
14605923118
14605929039
14605936119
14605941002
14605945946
14605950462
14605957664
14605961693
14605967979
14605973289
14605980308
14605985069
14605990684
14606000206
14606006370
14606011070
14606016929
14606022545
14606028282
14606034752
14606040001
14606046409
14606051048
14606059654
14606066062
14606071311
14606075035
14606084800
14606089439
14606097740
14606103660
14606108848
14606119895
14606125511
14606130637
14606135948
14606143089
14606147971
14606152610
14606161094
14606165977
14606172508
14606180320
14606185569
14606191184
14606195884
14606202964
14606207542
14606211875
14606219321
14606227805
14606232749
14606240195
14606244956
14606250937
14606256248
14606264548
14606269370
14606278220
14606282493
14606289512
14606294700
14606300742
14606306235
14606312400
14606318381
14606325644
14606330954
14606338034
14606343222
14606348777
14606355307
14606360678
14606365012
14606374167
14606379172
14606386496
14606391013
14606397788
14606404441
14606410178
14606416831
14606424582
14606430441
14606437338
14606444113
14606449362
14606455405
14606459250
14606465292
14606472800
14606480185
14606487387
14606493552
14606498923
14606508444
14606513632
14606522238
14606527792
14606537985
14606543539
14606551291
14606556906
14606565329
14606572348
14606578756
14606585470
14606596274
14606601767
14606610189
14606616964
14606624228
14606628378
14606637472
14606644979
14606654562
14606658895
14606664511
14606670248
14606674765
14606680380
14606685934
14606691610
14606698202
14606702230
14606707662
14606712850
14606718832
14606724020
14606728964
14606735006
14606741842
14606747701
14606752828
14606757894
14606763937
14606767355
14606774679
14606780477
14606786642
14606793478
14606798971
14606803854
14606809469
14606814962
14606820821
14606828084
14606834676
14606840597
14606845968
14606851095
14606857564
14606862386
14606869222
14606874288
14606880819
14606885824
14606892659
14606897176
14606903707
14606908468
14606914815
14606921834
14606929952
14606937154
14606946004
14606951131
14606956563
14606961812
14606966329
14606972127
14606978658
14606984456
14606989827
14606994405
14606999715
14607003621
14607010152
14607019063
14607023885
14607031087
14607036275
14607044392
14607049275
14607057393
14607063252
14607067830
14607077473
14607082539
14607089436
14607095357
14607099690
14607106404
14607111409
14607118062
14607123006
14607129292
14607135823
14607140767
14607146992
14607151387
14607158040
14607164143
14607168843
14607175190
14607179951
14607186970
14607192280
14607198323
14607202961
14607210591
14607215535
14607221211
14607225972
14607232136
14607237507
14607243428
14607247700
14607256306
14607262898
14607268513
14607273701
14607279621
14607284626
14607289997
14607295429
14607301472
14607307148
14607313801
14607318806
14607325215
14607330586
14607336201
14607341328
14607348103
14607353840
14607360188
14607365376
14607371723
14607375324
14607381916
14607387409
14607393757
14607399860
14607405537
14607411091
14607416035
14607421345
14607427021
14607432087
14607440998
14607444904
14607452167
14607457111
14607464252
14607469379
14607474994
14607479511
14607489277
14607494953
14607501178
14607506122
14607513630
14607522297
14607529865
14607535785
14607545063
14607551227
14607560382
14607567157
14607573322
14607584064
14607589191
14607599079
14607607501
14607615741
14607620868
14607632465
14607640827
14607649310
14607656574
14607668658
14607674579
14607684772
14607693561
14607700519
14607707477
14607714923
14607724322
14607730609
14607735675
14607741595
14607746722
14607754168
14607759784
14607764728
14607770221
14607775348
14607779193
14607786090
14607792315
14607798907
14607802569
14607809893
14607814898
14607820819
14607826617
14607833453
14607838397
14607843890
14607849322
14607853778
14607859698
14607865924
14607870806
14607876483
14607883685
14607888629
14607895098
14607898577
14607903948
14607909075
14607915606
14607921649
14607927020
14607932635
14607938860
14607943316
14607950152
14607954485
14607963335
14607967608
14607973956
14607979815
14607983965
14607988360
14607995928
14608002276
14608008440
14608013140
14608017535
14608022600
14608028582
14608034868
14608040728
14608047869
14608054217
14608059588
14608065264
14608071978
14608078875
14608085283
14608089190
14608095476
14608101030
14608107439
14608113176
14608118670
14608123735
14608130022
14608140215
14608145037
14608151750
14608157549
14608163408
14608169573
14608173784
14608179705
14608186846
14608194170
14608199358
14608207598
14608214861
14608221025
14608227251
14608232683
14608239031
14608247575
14608254350
14608260454
14608267046
14608272600
14608280290
14608285905
14608291032
14608299821
14608306413
14608308549
14608316240
14608320329
14608326250
14608335283
14608342790
14608350236
14608354753
14608361467
14608366227
14608371660
14608377092
14608380937
14608387468
14608393388
14608400590
14608405534
14608410173
14608415849
14608420793
14608425920
14608431657
14608435258
14608443559
14608448259
14608453446
14608459062
14608465592
14608469560
14608475907
14608479875
14608487260
14608493913
14608498979
14608504594
14608510514
14608515519
14608521806
14608527726
14608534196
14608539933
14608545060
14608552445
14608564225
14608573991
14608582902
14608589677
14608596818
14608604508
14608612199
14608617203
14608627701
14608636979
14608643326
14608651993
14608660599
14608666642
14608674943
14608682694
14608692032
14608698441
14608706559
14608715653
14608723771
14608729447
14608740555
14608745865
14608754898
14608763443
14608771317
14608780899
14608788346
14608795975
14608800492
14608805924
14608811112
14608815323
14608822647
14608828873
14608834122
14608839310
14608844070
14608850906
14608855606
14608862808
14608867813
14608873734
14608880447
14608885147
14608891861
14608897781
14608903641
14608910599
14608918228
14608923538
14608931106
14608936722
14608944656
14608950393
14608957290
14608961441
14608969497
14608974014
14608980423
14608986892
14608991531
14608997085
14609002945
14609007583
14609015579
14609020462
14609027237
14609031265
14609037551
14609042373
14609046340
14609053298
14609059768
14609065689
14609069717
14609077224
14609081069
14609087905
14609091995
14609098037
14609101821
14609109512
14609115066
14609121414
14609124343
14609131118
14609136916
14609141799
14609146621
14609153274
14609159255
14609164748
14609169875
14609174575
14609179092
14609185256
14609191421
14609197951
14609203445
14609209182
14609215652
14609220717
14609225234
14609231582
14609237502
14609243728
14609250380
14609255752
14609261611
14609265883
14609272597
14609276259
14609285231
14609289565
14609297438
14609303542
14609309401
14609314589
14609320082
14609325026
14609331923
14609336379
14609342787
14609348403
14609354872
14609360243
14609366164
14609370680
14609375746
14609380568
14609388503
14609394484
14609401015
14609404738
14609412123
14609418044
14609423293
14609429030
14609433913
14609438124
14609446913
14609450880
14609457228
14609462416
14609468153
14609475050
14609480910
14609486159
14609495802
14609500746
14609507216
14609514418
14609521193
14609526137
14609535048
14609540358
14609545302
14609550551
14609556471
14609561476
14609566603
14609571974
14609578749
14609583693
14609589674
14609594374
14609600416
14609604933
14609610548
14609615248
14609622511
14609627516
14609632948
14609638014
14609644056
14609649488
14609656935
14609664747
14609672987
14609679640
14609685133
14609696607
14609702162
14609709730
14609717848
14609725599
14609734510
14609742445
14609750990
14609759107
14609763807
14609771925
14609779127
14609787611
14609793653
14609804395
14609811414
14609819410
14609825513
14609831190
14609840589
14609848585
14609854200
14609860059
14609866956
14609877454
14609883619
14609888440
14609893811
14609900892
14609905896
14609913099
14609917310
14609925367
14609930249
14609937451
14609941663
14609947950
14609952039
14609962293
14609967664
14609975293
14609981763
14609987256
14609990857
14609997388
14610001904
14610009412
14610016004
14610021008
14610027966
14610032239
14610038098
14610043164
14610049451
14610055859
14610062573
14610066663
14610073193
14610077954
14610084668
14610088269
14610095349
14610103039
14610109326
14610115430
14610120129
14610125805
14610131848
14610138135
14610143933
14610148388
14610157239
14610163098
14610171643
14610177014
14610182141
14610189221
14610193982
14610200512
14610204602
14610213269
14610217541
14610223767
14610229992
14610235363
14610240551
14610245983
14610251782
14610257580
14610261181
14610267651
14610272839
14610279736
14610284680
14610289868
14610297131
14610303478
14610308910
14610314526
14610319958
14610326305
14610330761
14610335949
14610342480
14610347973
14610356823
14610362499
14610368481
14610372631
14610379711
14610383984
14610391430
14610395519
14610402599
14610409191
14610414135
14610419018
14610426525
14610431652
14610437206
14610441723
14610450939
14610456371
14610461742
14610467846
14610472789
14610479625
14610488353
14610494640
14610499157
14610507152
14610511364
14610517284
14610523449
14610528942
14610532970
14610539745
14610545665
14610553966
14610559642
14610566539
14610571361
14610576549
14610581371
14610587779
14610592357
14610599620
14610604808
14610611522
14610618175
14610622569
14610628429
14610634288
14610639232
14610645335
14610653087
14610657664
14610663524
14610669810
14610674144
14610679088
14610685252
14610689830
14610698863
14610704234
14610710155
14610715159
14610720531
14610726512
14610731029
14610737010
14610745433
14610753673
14610760631
14610772776
14610779368
14610787669
14610795970
14610804087
14610813792
14610825083
14610831370
14610840953
14610848216
14610856883
14610863475
14610869578
14610898753
14610904124
14610913340
14610921214
14610930552
14610939036
14610945689
14610952891
14610963755
14610970896
14610979197
14610984385
14610989023
14610995676
14611001658
14611006418
14611014841
14611020823
14611027353
14611032053
14611037607
14611042185
14611047800
14611055796
14611063791
14611068003
14611079172
14611083139
14611088511
14611092356
14611100351
14611108347
14611114206
14611120127
14611126841
14611132212
14611136850
14611142954
14611147531
14611154428
14611161569
14611167002
14611171762
14611178171
14611185068
14611189829
14611194467
14611202524
14611207224
14611213510
14611218637
14611224069
14611229562
14611234995
14611240183
14611249033
14611252634
14611258737
14611263925
14611269784
14611275461
14611281747
14611287790
14611294870
14611300424
14611307504
14611314218
14611318979
14611322519
14611328561
14611333871
14611341379
14611345407
14611353708
14611358957
14611365548
14611369211
14611377755
14611385629
14611390695
14611395700
14611404428
14611409677
14611417123
14611422555
14611430673
14611435006
14611443734
14611450570
14611458688
14611464608
14611470040
14611475350
14611483041
14611488046
14611496468
14611501046
14611506478
14611510812
14611516793
14611522530
14611527230
14611535104
14611539498
14611546029
14611551339
14611558907
14611562814
14611568673
14611574044
14611580025
14611586495
14611592293
14611597054
14611601632
14611608040
14611615426
14611620553
14611624459
14611632149
14611638558
14611645333
14611649178
14611655648
14611659798
14611667916
14611673226
14611677803
14611683052
14611691719
14611696541
14611701485
14611709481
14611713936
14611719368
14611726387
14611731636
14611737679
14611743782
14611748482
14611755257
14611760689
14611766060
14611771431
14611778450
14611783272
14611787972
14611796394
14611798775
14611808601
14611813057
14611820686
14611826485
14611833077
14611840340
14611847725
14611853645
14611858955
14611865303
14611874275
14611881660
14611891182
14611898262
14611909553
14611917732
14611924568
14611930916
14611939888
14611947151
14611956001
14611962227
14611971199
14611978584
14611987312
14611995369
14612003486
14612008918
14612016304
14612025032
14612031623
14612040779
14612047065
14612055122
14612064094
14612071174
14612077766
14612085151
14612089668
14612095405
14612106818
14612113044
14612119331
14612126655
14612135200
14612141731
14612148139
14612155769
14612161689
14612168952
14612174262
14612181403
14612187080
14612192512
14612198188
14612203986
14612209540
14612215156
14612220954
14612227241
14612232062
14612238959
14612246100
14612252448
14612257880
14612263251
14612270575
14612275580
14612282172
14612289801
14612296393
14612301947
14612306159
14612310981
14612317023
14612321906
14612327399
14612333808
14612340460
14612345282
14612353034
14612357550
14612364203
14612371222
14612375922
14612384650
14612390997
14612396491
14612400946
14612406806
14612412909
14612418097
14612423712
14612430670
14612436163
14612440863
14612446478
14612452338
14612457648
14612463202
14612470953
14612474676
14612481634
14612486029
14612492926
14612497626
14612502386
14612510138
14612515875
14612522894
14612530035
14612535834
14612540106
14612548041
14612555792
14612562567
14612567450
14612573797
14612579290
14612583502
14612590155
14612594732
14612602606
14612607305
14612613104
14612619390
14612625494
14612631903
14612638250
14612643011
14612652105
14612657415
14612663824
14612669866
14612675970
14612682379
14612688848
14612696233
14612702398
14612709966
14612715582
14612721929
14612728643
14612734136
14612740545
14612747015
14612753301
14612758977
14612764165
14612769537
14612773992
14612778570
14612784063
14612789495
14612797674
14612803350
14612809148
14612814641
14612819158
14612823797
14612830266
14612836248
14612842351
14612848638
14612854375
14612857732
14612864812
14612870549
14612876592
14612880498
14612889714
14612895696
14612901372
14612905034
14612911199
14612916082
14612923284
14612929021
14612937017
14612944341
14612952397
14612960820
14612968572
14612975957
14612985784
14612992986
14613001592
14613008916
14613017583
14613024236
14613032048
14613038701
14613046513
14613055791
14613065068
14613073491
14613080571
14613087651
14613095463
14613104680
14613112553
14613120915
14613130559
14613137089
14613142888
14613147587
14613154484
14613160161
14613165226
14613171879
14613177922
14613184452
14613188664
14613195134
14613199894
14613205693
14613211979
14613219181
14613224003
14613230229
14613234989
14613241764
14613246952
14613252629
14613261112
14613267521
14613273319
14613277836
14613284550
14613291447
14613296757
14613301640
14613309574
14613315250
14613325260
14613329594
14613339542
14613345585
14613353214
14613358219
14613368168
14613371464
14613380436
14613386112
14613391605
14613395511
14613402958
14613408878
14613413578
14613417362
14613426029
14613430546
14613436954
14613441410
14613447941
14613454288
14613460636
14613465397
14613471988
14613476200
14613483524
14613489505
14613493961
14613500614
14613507083
14613512332
14613519535
14613524539
14613530277
14613536319
14613541873
14613547611
14613555667
14613559696
14613567325
14613573245
14613579593
14613584842
14613591678
14613596744
14613603580
14613610538
14613615115
14613622440
14613627139
14613634097
14613640872
14613645755
14613651370
14613658694
14613664310
14613671512
14613677066
14613682010
14613689700
14613695682
14613702273
14613709109
14613713870
14613721560
14613726993
14613730655
14613740970
14613745242
14613753238
14613759463
14613766421
14613772525
14613778079
14613782962
14613789859
14613795352
14613799685
14613808047
14613814883
14613821292
14613825930
14613832400
14613838259
14613842837
14613848574
14613855044
14613861147
14613866213
14613871462
14613876895
14613881716
14613888674
14613893679
14613900637
14613905520
14613913271
14613918642
14613926028
14613935549
14613941714
14613948183
14613958376
14613966250
14613973330
14613978213
14613986574
14613992800
14613999758
14614007387
14614014773
14614019900
14614026980
14614033266
14614037844
14614044558
14614053042
14614061098
14614068300
14614077150
14614085817
14614090822
14614101015
14614108461
14614114870
14614122255
14614129518
14614136782
14614144228
14614148805
14614157167
14614164369
14614171205
14614177675
14614186281
14614190859
14614202089
14614210268
14614217714
14614223268
14614231142
14614238344
14614244142
14614251588
14614257448
14614262636
14614268861
14614273744
14614278749
14614284852
14614290407
14614298341
14614302064
14614308961
14614315004
14614319459
14614325013
14614330018
14614336305
14614342347
14614349489
14614354066
14614361268
14614366029
14614372316
14614377015
14614385743
14614390931
14614396669
14614402040
14614407960
14614412904
14614418580
14614424440
14614431397
14614435365
14614443666
14614447938
14614454713
14614459046
14614466065
14614473634
14614479432
14614486268
14614491578
14614496888
14614502259
14614509705
14614516602
14614520936
14614531373
14614536317
14614543031
14614547547
14614554078
14614558350
14614564454
14614569459
14614577943
14614582886
14614589173
14614594422
14614602234
14614607911
14614618897
14614626282
14614633973
14614638428
14614644410
14614647706
14614655396
14614662110
14614667664
14614673767
14614678162
14614684327
14614688782
14614695374
14614699829
14614706787
14614711182
14614717713
14614722840
14614728821
14614733887
14614741211
14614745911
14614753174
14614757569
14614763306
14614769531
14614774719
14614779175
14614785278
14614790222
14614797852
14614803040
14614809937
14614816956
14614822266
14614826965
14614833679
14614838562
14614846619
14614853638
14614859741
14614864807
14614872864
14614877991
14614884582
14614890686
14614899170
14614904846
14614909973
14614915100
14614920715
14614925781
14614931396
14614939331
14614944091
14614949707
14614954956
14614960510
14614966369
14614971801
14614976196
14614981628
14614987548
14614992981
14614998046
14615003723
14615009277
14615014770
14615019531
14615024414
14615030639
14615036315
14615041931
14615045471
14615052795
14615056640
14615064330
14615070922
14615078674
14615083740
14615094116
14615102355
14615108764
14615115844
14615123901
14615134582
14615142394
14615148009
14615158263
14615166259
14615173156
14615180297
14615190246
14615195739
14615205932
14615213378
14615222899
14615228393
14615239135
14615247191
14615254882
14615263182
14615270140
14615277343
14615285704
14615289611
14615296630
14615300658
14615308593
14615317382
14615322447
14615328368
14615334960
14615339659
14615345946
14615354064
14615361815
14615367613
14615373717
14615380675
14615384154
14615390807
14615397459
14615402647
14615409483
14615417174
14615421751
14615427489
14615432494
14615437559
14615443297
14615448119
14615454893
14615461729
14615467345
14615474852
14615480345
14615483946
14615491575
14615497496
14615504637
14615511900
14615515806
14615522642
14615528257
14615533812
14615539366
14615546690
14615550718
14615558592
14615564817
14615569517
14615575682
14615580320
14615588133
14615592833
14615598997
14615603514
14615610227
14615615232
14615620176
14615624998
14615633177
14615638487
14615645140
14615650572
14615657591
14615663450
14615669492
14615674741
14615681944
14615686277
14615692197
14615698179
14615704710
14615709776
14615716367
14615722715
14615729978
14615737424
14615742612
14615749265
14615754331
14615759031
14615766660
14615773496
14615778745
14615786069
14615794675
14615800352
14615807737
14615813779
14615818479
14615826291
14615833249
14615843320
14615845151
14615854123
14615858701
14615865781
14615873960
14615880429
14615885495
14615891416
14615897092
14615902341
14615910825
14615916318
14615924802
14615929624
14615937070
14615942563
14615948361
14615954038
14615959592
14615965390
14615971677
14615978024
14615984433
14615988095
14615994443
14615999631
14616004880
14616010251
14616015256
14616019833
14616027890
14616033993
14616039731
14616044064
14616052731
14616058774
14616064755
14616069150
14616072934
14616079281
14616083981
14616088803
14616096676
14616103024
14616108334
14616115231
14616121029
14616127377
14616132992
14616140561
14616144772
14616153195
14616159604
14616164486
14616171444
14616176449
14616183407
14616190976
14616195553
14616200863
14616207943
14616213192
14616219418
14616224911
14616230526
14616236752
14616241451
14616247433
14616253842
14616259640
14616264706
14616271542
14616277096
14616283566
14616289974
14616295651
14616299007
14616306698
14616310299
14616317867
14616325314
14616332149
14616337032
14616343014
14616350521
14616356319
14616361996
14616368465
14616376644
14616382992
14616389583
14616396847
14616404049
14616410640
14616416866
14616424556
14616430050
14616435299
14616441158
14616445980
14616450863
14616455318
14616461300
14616466732
14616474117
14616479488
14616485836
14616490413
14616496334
14616501522
14616508052
14616512630
14616516109
14616522335
14616528438
14616534908
14616541255
14616545406
14616550228
14616556331
14616565120
14616570491
14616575740
14616580440
14616588069
14616592403
14616597041
14616603877
14616610774
14616619746
14616626460
14616630855
14616638728
14616642573
14616650996
14616656550
14616662532
14616668819
14616673701
14616679683
14616686885
14616692134
14616697444
14616702693
14616707454
14616714473
14616722651
14616728328
14616734980
14616739680
14616744990
14616751765
14616757869
14616762568
14616768611
14616777400
14616781611
14616787959
14616793086
14616800288
14616806208
14616810908
14616817256
14616823786
14616829341
14616833979
14616842280
14616847163
14616852961
14616856989
14616864314
14616869929
14616875544
14616880793
14616886836
14616891901
14616896296
14616904047
14616908442
14616915156
14616923151
14616928828
14616932368
14616940546
14616946589
14616952875
14616956843
14616963923
14616970881
14616978632
14616984308
14616992182
14616999628
14617006708
14617012018
14617015864
14617026362
14617032160
14617040094
14617044733
14617050837
14617056696
14617062860
14617066401
14617073420
14617078608
14617086664
14617090021
14617096369
14617102167
14617108698
14617113642
14617118830
14617124445
14617130426
14617135614
14617140985
14617145441
14617151300
14617157770
14617163324
14617169183
14617174799
14617179437
14617183099
14617191217
14617197626
14617202386
14617207697
14617213983
14617220697
14617225946
14617230707
14617237482
14617243280
14617248163
14617254205
14617260370
14617266168
14617273431
14617281244
14617285760
14617291620
14617295892
14617303521
14617308893
14617314508
14617320123
14617327081
14617334405
14617342950
14617347711
14617355035
14617361993
14617367242
14617373895
14617378045
14617388665
14617394769
14617398858
14617403802
14617410943
14617416436
14617421197
14617425714
14617434197
14617439080
14617445733
14617450616
14617454827
14617461846
14617467400
14617473260
14617477593
14617485162
14617491509
14617495721
14617502129
14617506280
14617512566
14617517083
14617524346
14617530999
14617536187
14617540948
14617545953
14617551995
14617557244
14617562310
14617570183
14617576348
14617581536
14617586724
14617591790
14617597832
14617603936
14617611138
14617620598
14617630242
14617634636
14617641350
14617645989
14617653374
14617658928
14617663201
14617671807
14617676079
14617683220
14617687126
14617693352
14617697197
14617703057
14617708550
14617713982
14617719414
14617724541
14617729790
14617735771
14617741448
14617747246
14617752983
14617757927
14617763970
14617769646
14617774834
14617779717
14617784905
14617790093
14617795769
14617803398
14617808464
14617815483
14617819084
14617827446
14617833244
14617839043
14617843437
14617853630
14617871452
14617876823
14617882072
14617886406
14617891105
14617894584
14617899833
14617906791
14617910881
14617916313
14617921074
14617926384
14617929496
14617935539
14617941276
14617945305
14617951103
14617955192
14617958854
14617962394
14617968742
14617974052
14617979118
14617985099
14617989799
14617996086
14618000297
14618004936
14618010734
14618015373
14618023796
14618028251
14618033500
14618037650
14618044547
14618052787
14618057182
14618062614
14618068290
14618073722
14618078849
14618084831
14618089347
14618096549
14618102775
14618108024
14618113151
14618118583
14618123405
14618128837
14618135734
14618143851
14618150626
14618154777
14618159598
14618163383
14618168876
14618173148
14618178214
14618182853
14618187308
14618191642
14618196647
14618201102
14618206107
14618209342
14618216056
14618219901
14618225882
14618229361
14618235038
14618239676
14618245658
14618252188
14618257376
14618259085
14618266104
14618271292
14618275077
14618280387
14618285086
14618290030
14618296256
14618301200
14618306815
14618311820
14618316397
14618321280
14618326163
14618337149
14618342276
14618348624
14618352774
14618359122
14618363211
14618370291
14618375784
14618382437
14618386954
14618391043
14618397147
14618401419
14618406546
14618412405
14618418814
14618423270
14618429007
14618432547
14618438895
14618442374
14618449271
14618455984
14618461233
14618467886
14618473379
14618479971
14618484854
14618491446
14618496695
14618503531
14618509024
14618514029
14618518728
14618524771
14618530081
14618536001
14618540945
14618550283
14618554983
14618560904
14618565908
14618570669
14618575552
14618581777
14618586111
14618593862
14618598806
14618605032
14618609915
14618615957
14618620901
14618627127
14618633596
14618641592
14618649587
14618653921
14618661794
14618671072
14618676809
14618682912
14618689687
14618695974
14618700491
14618705984
14618710683
14618714773
14618718923
14618725393
14618730154
14618736013
14618741018
14618745412
14618750234
14618755910
14618759267
14618766164
14618771413
14618777578
14618782705
14618789419
14618794423
14618799733
14618804372
14618809133
14618813283
14618821889
14618828481
14618834279
14618839467
14618844228
14618850454
14618855642
14618861135
14618869924
14618876149
14618880971
14618886769
14618892751
14618898305
14618904653
14618908986
14618917287
14618922231
14618928517
14618933705
14618938039
14618944081
14618948537
14618953969
14618960805
14618965138
14618969045
14618975575
14618979665
14618986684
14618993092
14618999379
14619005727
14619010182
14619013905
14619021046
14619027272
14619031422
14619035451
14619042653
14619048329
14619055775
14619060170
14619065785
14619071583
14619077382
14619082326
14619088551
14619094716
14619101979
14619106190
14619112965
14619119313
14619123890
14619128346
14619136097
14619141041
14619148549
14619153309
14619160267
14619165272
14619169667
14619177052
14619180531
14619187062
14619193653
14619200856
14619206776
14619212635
14619219715
14619225758
14619231495
14619237171
14619245106
14619252186
14619260120
14619267689
14619272511
14619279713
14619283985
14619290089
14619295643
14619302784
14619307240
14619314136
14619318653
14619324818
14619328724
14619335010
14619341114
14619346912
14619351307
14619357960
14619362354
14619369129
14619374439
14619379993
14619387501
14619392505
14619397999
14619403431
14619408680
14619415516
14619431751
14619444996
14619451892
14619461719
14619469959
14619477832
14619485095
14619494129
14619501636
14619508289
14619516529
14619522571
14619530628
14619537402
14619547778
14619555347
14619563159
14619571643
14619581226
14619589893
14619596851
14619608874
14619615832
14619624255
14619632190
14619639148
14619647082
14619656360
14619667468
14619674487
14619683093
14619691699
14619699389
14619707568
14619715136
14619723071
14619730639
14619739245
14619747180
14619754992
14619763476
14619771411
14619779956
14619787097
14619795886
14619804309
14619813159
14619820666
14619828539
14619834826
14619844653
14619851305
14619861132
14619868823
14619877490
14619884997
14619894823
14619900805
14619910387
14619919176
14619928820
14619937060
14619943163
14619953173
14619959948
14619969713
14619976671
14619985705
14619993517
14620002489
14620007067
14620018297
14620027758
14620036181
14620043871
14620051744
14620060411
14620069078
14620076525
14620084886
14620094164
14620101549
14620108629
14620116014
14620126207
14620133898
14620143175
14620151964
14620159654
14620167650
14620173631
14620182726
14620191698
14620204332
14620219041
14620231798
14620245347
14620262498
14620279344
14620293870
14620307359
14620321580
14620335984
14620350877
14620363633
14620378404
14620388475
14620395677
14620405259
14620414292
14620421922
14620430284
14620442307
14620452134
14620462449
14620472276
14620483506
14620498154
14620510056
14620524277
14620537278
14620549058
14620562241
14620570847
14620579819
14620587754
14620596604
14620605332
14620614121
14620621567
14620629258
14620636643
14620646164
14620654404
14620663071
14620671921
14620680100
14620688278
14620696091
14620703842
14620710861
14620720627
14620727280
14620735031
14620742844
14620750229
14620758041
14620766403
14620775681
14620782639
14620798264
14620807541
14620817734
14620826584
14620842575
14620855331
14620865646
14620870712
14620881515
14620889877
14620897567
14620903183
14620911483
14620917099
14620927414
14620936142
14620942428
14620951706
14620959152
14620965499
14620970809
14620976058
14620979110
14620986862
14620993514
14620997360
14621003280
14621007675
14621013412
14621019088
14621024093
14621028182
14621034225
14621039535
14621044601
14621049300
14621054977
14621060409
14621065719
14621068771
14621075546
14621078353
14621084029
14621088546
14621092941
14621097762
14621102828
14621108626
14621113937
14621119491
14621123580
14621128890
14621134627
14621140243
14621145736
14621149337
14621154281
14621159163
14621164168
14621168502
14621173202
14621178206
14621184493
14621187972
14621194564
14621198775
14621205062
14621209029
14621216048
14621221968
14621225875
14621231124
14621235396
14621240340
14621244796
14621250350
14621256087
14621262191
14621267012
14621273055
14621276412
14621283126
14621289473
14621294112
14621299910
14621307662
14621312239
14621318404
14621322188
14621329695
14621335188
14621340926
14621345747
14621359602
14621365340
14621372481
14621379805
14621384383
14621391768
14621397444
14621403426
14621408491
14621412764
14621418196
14621423140
14621427473
14621432966
14621439497
14621443465
14621448958
14621452376
14621458113
14621462080
14621467573
14621471174
14621479292
14621484724
14621490889
14621495588
14621500349
14621505903
14621509749
14621513716
14621519575
14621523726
14621530256
14621535627
14621542524
14621547834
14621553389
14621559248
14621566999
14621571943
14621577864
14621582258
14621589155
14621596906
14621603315
14621607832
14621611067
14621619795
14621625532
14621629682
14621634809
14621640241
14621645979
14621652082
14621655866
14621663557
14621667036
14621674665
14621681379
14621686872
14621692182
14621696516
14621701520
14621708051
14621713789
14621719709
14621724897
14621729841
14621735578
14621741010
14621746076
14621753034
14621760175
14621769086
14621774152
14621780378
14621785322
14621791547
14621798749
14621805280
14621809369
14621816022
14621821088
14621827680
14621832563
14621838422
14621842450
14621849408
14621854169
14621860334
14621864423
14621870893
14621875409
14621879376
14621885541
14621889691
14621897748
14621903852
14621910748
14621917951
14621924481
14621930707
14621936749
14621945966
14621952069
14621958905
14621964215
14621970136
14621974774
14621980756
14621985516
14621989911
14621994794
14621999493
14622004315
14622009564
14622016034
14622022259
14622028424
14622033551
14622038434
14622043744
14622049298
14622055279
14622061200
14622067853
14622072735
14622079327
14622085186
14622091656
14622096783
14622103314
14622106915
14622112469
14622117474
14622124249
14622129559
14622135723
14622142804
14622147930
14622157513
14622165081
14622170452
14622177410
14622181561
14622188702
14622194134
14622198590
14622203716
14622209759
14622214520
14622221234
14622225262
14622232769
14622237896
14622243633
14622249004
14622253948
14622258465
14622264446
14622269451
14622276287
14622281353
14622285564
14622291912
14622299541
14622303875
14622309734
14622315105
14622321331
14622325848
14622331219
14622336590
14622343181
14622348797
14622354412
14622360760
14622366253
14622371013
14622376262
14622383526
14622388591
14622394939
14622399517
14622404583
14622412395
14622418438
14622423076
14622429851
14622434368
14622440166
14622445842
14622451519
14622457683
14622462810
14622469097
14622474529
14622481243
14622486064
14622493877
14622502056
14622507305
14622513408
14622519084
14622526958
14622533794
14622540141
14622547099
14622552776
14622558269
14622563152
14622568828
14622575603
14622580913
14622586223
14622591228
14622597026
14622602092
14622607402
14622614726
14622618877
14622624187
14622631023
14622635661
14622642253
14622647807
14622652812
14622657878
14622661418
14622669841
14622673503
14622679484
14622685038
14622690837
14622696574
14622701945
14622707316
14622713664
14622722209
14622728984
14622737956
14622743632
14622750590
14622754740
14622759928
14622764994
14622770121
14622775798
14622781962
14622788981
14622793254
14622800334
14622804850
14622810099
14622815226
14622821024
14622826823
14622836039
14622840128
14622846232
14622852641
14622857584
14622862040
14622868998
14622873820
14622879435
14622887125
14622891398
14622898173
14622901591
14622908732
14622914408
14622919779
14622925089
14622932230
14622937357
14622943094
14622948588
14622953837
14622960428
14622964518
14622970987
14622975687
14622984232
14622988993
14622994059
14622999735
14623005350
14623010294
14623017008
14623022135
14623028177
14623033915
14623040079
14623044535
14623048624
14623056925
14623061441
14623067301
14623073038
14623079752
14623083231
14623091287
14623097635
14623107096
14623111368
14623118143
14623125894
14623135477
14623141153
14623146524
14623152628
14623157327
14623161295
14623169534
14623174356
14623180093
14623184732
14623190408
14623195474
14623200906
14623204996
14623212564
14623217569
14623223733
14623228494
14623234537
14623238626
14623243875
14623249490
14623256631
14623260904
14623267373
14623271585
14623275369
14623282571
14623286905
14623294168
14623300515
14623305764
14623311807
14623317361
14623321328
14623327066
14623332925
14623337197
14623342630
14623349649
14623353921
14623359658
14623363748
14623370462
14623376199
14623380837
14623386758
14623394082
14623400125
14623406106
14623409951
14623417458
14623422463
14623428201
14623433022
14623441201
14623446633
14623452615
14623457192
14623463601
14623469521
14623474282
14623480630
14623486794
14623494546
14623498940
14623506325
14623510720
14623517007
14623520669
14623528359
14623532082
14623540322
14623544045
14623550637
14623555825
14623561562
14623568032
14623573098
14623577553
14623584694
14623589516
14623593605
14623601784
14623606606
14623612587
14623618569
14623623635
14623630226
14623636330
14623642922
14623648842
14623652748
14623661721
14623666176
14623674233
14623680092
14623689614
14623697914
14623703957
14623708473
14623716835
14623722756
14623728981
14623736549
14623744301
14623748146
14623754799
14623760109
14623765175
14623770912
14623776405
14623781227
14623788063
14623794228
14623798866
14623803810
14623809730
14623814552
14623822059
14623825783
14623832558
14623837501
14623842994
14623847877
14623854347
14623859840
14623864906
14623870887
14623877235
14623882179
14623888893
14623894142
14623900367
14623904884
14623910743
14623916908
14623924171
14623931312
14623937721
14623947914
14623954750
14623961402
14623966346
14623975379
14623981483
14623987586
14623993141
14623997840
14624001441
14624009620
14624013648
14624021461
14624028724
14624035499
14624041663
14624047706
14624051551
14624058753
14624064674
14624069312
14624075294
14624083411
14624089149
14624094215
14624100440
14624106177
14624112342
14624118384
14624124000
14624130103
14624135474
14624141273
14624146033
14624153357
14624158545
14624165076
14624170020
14624176429
14624181006
14624187354
14624193824
14624198706
14624204993
14624209937
14624217933
14624223792
14624230811
14624237525
14624242469
14624248511
14624254676
14624259253
14624265662
14624269934
14624278845
14624285620
14624290442
14624294653
14624305884
14624311377
14624317908
14624326209
14624336951
14624343787
14624348303
14624355994
14624362524
14624368201
14624374548
14624382178
14624388037
14624394141
14624399451
14624405859
14624411108
14624416479
14624421484
14624430578
14624436560
14624442236
14624447607
14624454687
14624459631
14624466101
14624470923
14624475927
14624482824
14624487707
14624495764
14624500341
14624506506
14624510229
14624518225
14624522619
14624530859
14624537451
14624542822
14624548742
14624554235
14624558264
14624565100
14624570776
14624577185
14624582067
14624588659
14624595617
14624602209
14624605993
14624614904
14624619787
14624628576
14624635290
14624640905
14624647314
14624652319
14624658117
14624663549
14624669530
14624675817
14624679601
14624686315
14624691686
14624696935
14624702489
14624707799
14624715917
14624720800
14624728185
14624733861
14624739965
14624744787
14624749242
14624756933
14624762365
14624768529
14624775121
14624779760
14624785680
14624790319
14624796361
14624802282
14624809972
14624814916
14624820409
14624825231
14624832311
14624837194
14624841954
14624850133
14624857091
14624861730
14624867589
14624873815
14624878514
14624885289
14624891820
14624897618
14624904271
14624909459
14624919896
14624926671
14624933202
14624939000
14624945836
14624951268
14624962010
14624968907
14624975377
14624977818
14624986729
14624991978
14624998265
14625004246
14625010533
14625015294
14625022252
14625027501
14625032200
14625036473
14625044468
14625051487
14625057103
14625063267
14625068028
14625072484
14625079869
14625085118
14625091832
14625098057
14625105015
14625109532
14625115757
14625119542
14625127293
14625133763
14625139195
14625145848
14625152073
14625158055
14625162449
14625167637
14625173374
14625178807
14625185764
14625191746
14625199070
14625204502
14625211338
14625215183
14625222752
14625228550
14625235874
14625242100
14625250095
14625254551
14625261814
14625269566
14625276646
14625282932
14625290623
14625296787
14625301975
14625308506
14625313267
14625317783
