14406176315
14406181809
14406188034
14406193771
14406198898
14406204086
14406210373
14406215439
14406220139
14406226242
14406231369
14406236618
14406241074
14406246628
14406253342
14406257919
14406264511
14406269150
14406274521
14406281112
14406285690
14406291855
14406298446
14406303390
14406310592
14406316574
14406322983
14406328659
14406335678
14406343307
14406349655
14406356369
14406360641
14406368393
14406375167
14406381820
14406388656
14406395614
14406404586
14406413192
14406418563
14406427169
14406434310
14406442123
14406449325
14406456222
14406467452
14406474044
14406479903
14406488082
14406493881
14406500350
14406508773
14406515731
14406522689
14406529586
14406537643
14406545882
14406553329
14406559798
14406569198
14406575545
14406581832
14406589034
14406595260
14406601729
14406608565
14406613753
14406620711
14406626632
14406632735
14406637435
14406643111
14406646712
14406652449
14406656905
14406661971
14406666426
14406670150
14406674117
14406678084
14406684249
14406687484
14406692427
14406696089
14406700789
14406705977
14406710494
14406715682
14406721053
14406725752
14406730452
14406734725
14406737349
14406743392
14406747908
14406753340
14406756941
14406761275
14406765364
14406769637
14406773482
14406779280
14406785628
14406791487
14406797224
14406801680
14406805769
14406810286
14406814741
14406821150
14406825911
14406830000
14406834456
14406839339
14406843855
14406849165
14406853682
14406859236
14406863386
14406867293
14406871870
14406879988
14406885603
14406892073
14406896773
14406901045
14406906782
14406910689
14406915632
14406921064
14406924849
14406930403
14406934553
14406938093
14406944258
14406946760
14406953474
14406961409
14406966352
14406973738
14406981367
14406986799
14406991743
14406999800
14407006025
14407010359
14407015425
14407020979
14407026167
14407032087
14407036848
14407041731
14407045576
14407052107
14407056501
14407062666
14407067243
14407072065
14407074323
14407080610
14407085554
14407089582
14407094221
14407099104
14407102583
14407107587
14407111860
14407116804
14407121320
14407125715
14407131757
14407136945
14407141645
14407146467
14407151411
14407156232
14407163740
14407167585
14407173688
14407177228
14407182905
14407187665
14407193036
14407196882
14407201581
14407206769
14407211957
14407215925
14407221296
14407226117
14407230634
14407235456
14407240033
14407243879
14407248456
14407253644
14407257001
14407263471
14407267133
14407273358
14407278974
14407288861
14407292646
14407303388
14407310346
14407316754
14407323895
14407332074
14407336041
14407347943
14407356183
14407363934
14407370099
14407378278
14407384747
14407392316
14407399701
14407407697
14407414960
14407420941
14407430279
14407436322
14407445599
14407451764
14407460980
14407465863
14407473736
14407479840
14407485699
14407489300
14407496625
14407501935
14407509442
14407514386
14407520428
14407524884
14407532330
14407537274
14407544049
14407548687
14407556073
14407559857
14407565228
14407570843
14407575177
14407580670
14407585003
14407590252
14407595623
14407600079
14407605328
14407609112
14407615032
14407621258
14407626385
14407634869
14407639630
14407645367
14407649761
14407656414
14407660870
14407666912
14407673260
14407678509
14407684795
14407690899
14407696209
14407701153
14407706585
14407711102
14407716534
14407722576
14407730266
14407736431
14407740520
14407746258
14407751507
14407756451
14407763958
14407768169
14407774517
14407779033
14407784527
14407789715
14407794903
14407799480
14407806743
14407811809
14407818584
14407824505
14407830974
14407834880
14407841900
14407844768
14407851909
14407859783
14407864849
14407869426
14407877544
14407882183
14407887432
14407893230
14407898967
14407905803
14407911601
14407916118
14407922405
14407928203
14407933391
14407940410
14407945964
14407951640
14407957744
14407962077
14407967876
14407974773
14407978801
14407985332
14407988261
14407995891
14408000591
14408007793
14408012187
14408017985
14408022441
14408028361
14408034831
14408040813
14408046733
14408051250
14408057170
14408063884
14408069438
14408074931
14408082744
14408087993
14408095744
14408102153
14408109416
14408116252
14408122538
14408127604
14408134745
14408140727
14408146098
14408151347
14408156596
14408160990
14408166423
14408172221
14408178080
14408182841
14408188945
14408195353
14408199443
14408206462
14408210734
14408216715
14408222148
14408226176
14408231425
14408237162
14408242411
14408247538
14408252726
14408258036
14408264201
14408268656
14408274271
14408280863
14408287272
14408292338
14408297709
14408305094
14408313029
14408319315
14408328898
14408335367
14408343851
14408352640
14408361796
14408368082
14408376078
14408384928
14408392923
14408402018
14408410013
14408421183
14408428812
14408437967
14408447062
14408453348
14408460550
14408470072
14408479532
14408488077
14408497537
14408505167
14408513651
14408521097
14408524088
14408532877
14408535990
14408544595
14408549112
14408555887
14408560892
14408567178
14408571695
14408578653
14408584879
14408591837
14408597818
14408602396
14408608682
14408613077
14408619974
14408625040
14408630167
14408636758
14408642557
14408647745
14408654825
14408661294
14408665201
14408670877
14408675821
14408682351
14408687723
14408692239
14408697488
14408702493
14408708474
14408713601
14408719217
14408729715
14408732766
14408741311
14408746926
14408754129
14408758828
14408764871
14408769082
14408778237
14408784463
14408791055
14408795938
14408800698
14408807107
14408812356
14408819009
14408825356
14408828103
14408836099
14408842141
14408847146
14408852761
14408857461
14408863625
14408868264
14408872292
14408879739
14408885049
14408890176
14408894265
14408900674
14408905679
14408913247
14408919533
14408925027
14408929543
14408935097
14408941506
14408947671
14408953896
14408960427
14409002663
14409004799
14409006752
14409009316
14409011757
14409013649
14409015603
14409018044
14409020302
14409023110
14409025795
14409028725
14409031655
14409034645
14409037392
14409041237
14409044350
14409047585
14409051613
14409055336
14409058876
14409062722
14409065956
14409070107
14409074807
14409080727
14409085243
14409089516
14409093972
14409099648
14409104592
14409110024
14409114418
14409118019
14409124245
14409131752
14409135964
14409139565
14409143410
14409148476
14409152382
14409157692
14409160988
14409165932
14409170265
14409175087
14409178871
14409184120
14409188393
14409193459
14409197914
14409202736
14409208656
14409212624
14409217628
14409221901
14409226356
14409230019
14409234718
14409238930
14409243202
14409246986
14409251808
14409256569
14409261207
14409265785
14409270546
14409274635
14409279274
14409284218
14409288246
14409295265
14409300026
14409305275
14409310524
14409316017
14409319740
14409326698
14409332374
14409336464
14409340736
14409345497
14409347938
14409354469
14409358070
14409363136
14409368751
14409373939
14409379005
14409384498
14409389625
14409394630
14409397682
14409403297
14409407569
14409411964
14409416603
14409419776
14409424659
14409427894
14409432350
14409435951
14409441566
14409446021
14409449867
14409454932
14409459022
14409461829
14409468910
14409476051
14409480811
14409485755
14409491004
14409496803
14409501441
14409506385
14409510841
14409517554
14409522132
14409525123
14409532569
14409537696
14409542701
14409546607
14409551551
14409556556
14409563392
14409568091
14409573768
14409579078
14409584388
14409588599
14409595923
14409600684
14409607032
14409611792
14409617102
14409623694
14409629493
14409634375
14409637244
14409644812
14409651282
14409656775
14409659583
14409666907
14409671241
14409677588
14409683325
14409689368
14409694007
14409700476
14409704993
14409710425
14409717322
14409721350
14409728674
14409731543
14409739661
14409745093
14409751013
14409755408
14409763281
14409767981
14409773657
14409779456
14409783240
14409790320
14409795996
14409802161
14409808081
14409814368
14409819678
14409827490
14409834204
14409840185
14409848486
14409855261
14409860022
14409867163
14409874487
14409881628
14409890295
14409897009
14409904211
14409910986
14409918554
14409925940
14409931555
14409940832
14409945410
14409954748
14409960913
14409970129
14409975866
14409983618
14409989904
14409997290
14410005041
14410011755
14410019445
14410027990
14410034338
14410044103
14410050268
14410058630
14410064001
14410070470
14410075719
14410082250
14410087865
14410092382
14410097448
14410103735
14410106786
14410114904
14410122228
14410127965
14410133031
14410137670
14410141576
14410148656
14410154149
14410158788
14410161718
14410170873
14410173681
14410180517
14410183568
14410190282
14410195226
14410201268
14410207921
14410214757
14410220067
14410226293
14410230443
14410235326
14410241918
14410245397
14410251317
14410257604
14410262731
14410268163
14410273168
14410277867
14410281713
14410285436
14410291844
14410298986
14410304112
14410310216
14410314244
14410320043
14410324315
14410329686
14410334996
14410339452
14410346532
14410350499
14410356725
14410360753
14410366673
14410372716
14410377538
14410384740
14410390660
14410396458
14410403844
14410408665
14410414647
14410420018
14410426060
14410435277
14410441563
14410448399
14410454564
14410462620
14410465855
14410473729
14410479100
14410487034
14410492894
14410499363
14410504185
14410508580
14410513279
14410518101
14410521153
14410529332
14410532750
14410538670
14410541539
14410548558
14410554295
14410559727
14410563633
14410571324
14410575657
14410580601
14410584934
14410590489
14410596897
14410601963
14410606175
14410612766
14410617527
14410623020
14410627964
14410633091
14410638523
14410644383
14410649448
14410655125
14410660618
14410666050
14410671421
14410675205
14410682285
14410686558
14410693211
14410696751
14410707554
14410710911
14410719150
14410723545
14410728794
14410733555
14410738438
14410745823
14410751194
14410755955
14410761326
14410767917
14410771885
14410777439
14410780246
14410788242
14410793369
14410798679
14410803257
14410809238
14410813816
14410820591
14410824802
14410830967
14410835239
14410841953
14410846836
14410852756
14410856906
14410863376
14410868442
14410874240
14410879917
14410888156
14410896274
14410903659
14410910800
14410915744
14410926486
14410930759
14410940769
14410947788
14410957431
14410964267
14410974521
14410980807
14410989108
14410996066
14411004550
14411010898
14411016757
14411025973
14411032748
14411040378
14411044955
14411058627
14411065707
14411073886
14411078341
14411089938
14411095492
14411104281
14411110385
14411115878
14411121005
14411125521
14411131015
14411135592
14411138461
14411148532
14411154818
14411160617
14411164462
14411169528
14411176852
14411183200
14411188204
14411195346
14411199679
14411204562
14411209628
14411215609
14411220736
14411228121
14411231417
14411237887
14411241976
14411248751
14411253634
14411260409
14411264925
14411272738
14411279513
14411283602
14411290316
14411295016
14411299166
14411304232
14411311495
14411318941
14411324679
14411329134
14411335543
14411340853
14411345736
14411350863
14411356844
14411362459
14411369967
14411377047
14411381441
14411386568
14411391573
14411397677
14411402315
14411406893
14411415987
14411419893
14411426668
14411431002
14411436678
14411441866
14411448702
14411453096
14411459993
14411467073
14411471590
14411475923
14411481600
14411487703
14411493929
14411498262
14411503755
14411510347
14411515474
14411521517
14411526705
14411531526
14411537142
14411543123
14411549837
14411556307
14411563142
14411568758
14411574190
14411579378
14411584138
14411590913
14411593965
14411603548
14411608491
14411617097
14411621248
14411626924
14411632173
14411637971
14411642671
14411652131
14411659150
14411665437
14411669832
14411676606
14411681245
14411687410
14411692231
14411698457
14411703401
14411709993
14411713838
14411718538
14411722688
14411729585
14411734773
14411741914
14411746797
14411752412
14411755952
14411761445
14411765351
14411770722
14411774934
14411781220
14411785859
14411790864
14411794770
14411800508
14411804536
14411809907
14411814607
14411822663
14411825715
14411833161
14411835908
14411842683
14411846589
14411852082
14411856599
14411864106
14411869355
14411875459
14411879731
14411884431
14411894196
14411900239
14411906831
14411914216
14411919099
14411927033
14411930817
14411941315
14411945283
14411957184
14411963471
14411977997
14411985138
14411993805
14411999909
14412011506
14412013825
14412026581
14412034394
14412042328
14412047211
14412057709
14412066315
14412074127
14412079071
14412089264
14412095856
14412106110
14412114838
14412128571
14412134552
14412143524
14412147919
14412154633
14412161163
14412167084
14412172760
14412180206
14412185699
14412190460
14412193756
14412202118
14412205658
14412213531
14412218353
14412225616
14412229950
14412236420
14412242096
14412248688
14412253692
14412259186
14412265106
14412268951
14412279266
14412286468
14412292694
14412300567
14412306793
14412314727
14412320282
14412327179
14412334381
14412338958
14412345855
14412351409
14412356170
14412361175
14412365325
14412368865
14412374359
14412380096
14412384674
14412390777
14412396392
14412402069
14412406890
14412413299
14412419097
14412425628
14412430572
14412435455
14412440276
14412445831
14412451202
14412455840
14412461883
14412467986
14412473540
14412479766
14412485503
14412490874
14412496184
14412501067
14412507049
14412512603
14412516814
14412524139
14412529388
14412534637
14412538665
14412545135
14412550078
14412554656
14412562346
14412567595
14412574126
14412580779
14412585418
14412591277
14412595977
14412601531
14412607451
14412612029
14412618499
14412624358
14412629546
14412632598
14412640410
14412644988
14412652617
14412657378
14412663237
14412669646
14412675933
14412680327
14412686370
14412692229
14412698088
14412704619
14412710600
14412716460
14412720732
14412727690
14412732573
14412739226
14412743987
14412750700
14412757658
14412762602
14412767851
14412773405
14412778410
14412785368
14412789824
14412796416
14412801298
14412807463
14412813566
14412818571
14412824553
14412830412
14412835112
14412841826
14412846647
14412854033
14412861479
14412868437
14412873991
14412878935
14412887297
14412895414
14412900785
14412910185
14412913054
14412921293
14412924162
14412931181
14412935392
14412941130
14412945646
14412953825
14412957975
14412965177
14412971037
14412976225
14412981474
14412987943
14412993192
14413001859
14413007902
14413015287
14413023161
14413031522
14413037748
14413044401
14413053434
14413062345
14413069791
14413076749
14413084318
14413091154
14413102079
14413109281
14413117155
14413126188
14413131864
14413140226
14413147123
14413155668
14413163846
14413170804
14413178129
14413188382
14413195279
14413198819
14413208341
14413213041
14413218473
14413223111
14413230802
14413236478
14413241910
14413244962
14413253446
14413258329
14413264127
14413269254
14413275907
14413280484
14413286405
14413291165
14413296414
14413303189
14413308011
14413314053
14413318509
14413323575
14413331265
14413336636
14413339444
14413349210
14413354642
14413359952
14413363187
14413371976
14413376858
14413382901
14413389004
14413394070
14413400113
14413405423
14413411587
14413414944
14413421658
14413428555
14413435025
14413439969
14413444424
14413450406
14413455472
14413461026
14413465909
14413471463
14413477749
14413481534
14413487820
14413492520
14413498196
14413503323
14413508572
14413515347
14413521511
14413525174
14413532803
14413538357
14413545925
14413551785
14413557156
14413562710
14413567349
14413571804
14413578335
14413583340
14413587856
14413590603
14413598049
14413600857
14413610317
14413615383
14413621670
14413624477
14413631252
14413635708
14413641262
14413646206
14413654507
14413659756
14413664639
14413667507
14413675442
14413679531
14413684109
14413688381
14413695827
14413700649
14413706570
14413713039
14413718349
14413724270
14413729458
14413734951
14413741298
14413745937
14413750698
14413756984
14413762233
14413768276
14413772854
14413779628
14413783230
14413792263
14413796535
14413803493
14413806423
14413815700
14413818752
14413826320
14413831691
14413838954
14413843959
14413852321
14413856777
14413863552
14413868068
14413874050
14413878505
14413886745
14413891689
14413897060
14413903591
14413907375
14413913844
14413920314
14413925624
14413933437
14413939296
14413943263
14413950404
14413954799
14413959560
14413965114
14413970363
14413976161
14413984889
14413989467
14413994228
14413998866
14414005397
14414010280
14414016139
14414020717
14414027186
14414033595
14414039577
14414044826
14414052394
14414060023
14414065822
14414075648
14414084498
14414094874
14414100612
14414110499
14414117945
14414128016
14414134364
14414143702
14414151759
14414162257
14414169154
14414176783
14414183436
14414192774
14414196620
14414208094
14414212611
14414224940
14414229395
14414239771
14414247462
14414254908
14414259852
14414265406
14414269923
14414277857
14414281336
14414288355
14414294520
14414299525
14414304957
14414310206
14414315333
14414323511
14414328943
14414334620
14414338892
14414343287
14414350123
14414355005
14414360438
14414363489
14414372095
14414373621
14414384424
14414390284
14414396448
14414399561
14414406641
14414409998
14414419397
14414422937
14414429468
14414434046
14414439905
14414446192
14414451441
14414455652
14414462427
14414467127
14414471399
14414478662
14414482996
14414489710
14414494409
14414500025
14414507105
14414513147
14414515833
14414523584
14414528833
14414534815
14414541406
14414546411
14414549768
14414557764
14414561060
14414568079
14414572595
14414579858
14414584192
14414590295
14414595544
14414601282
14414605981
14414611841
14414617944
14414623254
14414628015
14414634485
14414639001
14414646020
14414650903
14414655603
14414662011
14414663354
14414673425
14414677331
14414682092
14414688134
14414694970
14414699731
14414705041
14414711694
14414717858
14414724572
14414729577
14414733300
14414742883
14414748071
14414755639
14414760583
14414766320
14414773034
14414779870
14414785363
14414794152
14414799523
14414804406
14414808923
14414815514
14414820397
14414825097
14414831078
14414837914
14414843041
14414847070
14414853173
14414858178
14414864220
14414869591
14414874230
14414882653
14414887780
14414893334
14414897973
14414903588
14414910119
14414915124
14414920128
14414926293
14414931908
14414937462
14414943200
14414948998
14414953820
14414958031
14414964074
14414969384
14414976708
14414982018
14414987999
14414994469
14414999596
14415006066
14415011681
14415016869
14415023827
14415030358
14415035485
14415041405
14415045677
14415053124
14415058617
14415065392
14415068627
14415077721
14415083763
14415088829
14415091881
14415101036
14415103905
14415112084
14415118492
14415127586
14415135887
14415143944
14415149864
14415157372
14415165489
14415173729
14415181908
14415190758
14415197349
14415205650
14415211693
14415217918
14415227135
14415232628
14415241600
14415249473
14415258812
14415264976
14415271751
14415279442
14415286399
14415295921
14415302269
14415308616
14415318321
14415321739
14415327842
14415332664
14415339805
14415344139
14415349998
14415354698
14415362205
14415368797
14415374351
14415379234
14415386741
14415391929
14415397727
14415405174
14415411948
14415416282
14415423545
14415428001
14415433921
14415437827
14415442100
14415447898
14415454490
14415459922
14415465781
14415470176
14415475120
14415480918
14415485862
14415491599
14415497397
14415502036
14415507590
14415511863
14415515952
14415522483
14415527671
14415533103
14415538291
14415544700
14415549888
14415554770
14415559653
14415565024
14415569724
14415576804
14415582114
14415587302
14415591025
14415599265
14415604575
14415610739
14415615256
14415621421
14415626914
14415633322
14415638877
14415645590
14415650351
14415655966
14415660666
14415665183
14415671836
14415678794
14415683432
14415687460
14415694113
14415698386
14415705100
14415708029
14415714377
14415721030
14415727316
14415732565
14415737387
14415740317
14415747946
14415752585
14415758078
14415763632
14415769797
14415775168
14415781088
14415785300
14415791281
14415796164
14415800802
14415807760
14415813009
14415819052
14415822470
14415829062
14415834128
14415839560
14415844687
14415850851
14415856161
14415863180
14415867148
14415874106
14415878744
14415884176
14415889303
14415895163
14415899984
14415906759
14415910177
14415916769
14415921774
14415928610
14415933615
14415942282
14415947714
14415954550
14415960348
14415967306
14415974630
14415979879
14415986288
14415991049
14415996786
14416006185
14416010641
14416015951
14416021871
14416026571
14416032552
14416037313
14416042745
14416048971
14416055013
14416059957
14416065633
14416070089
14416075094
14416079305
14416085226
14416091878
14416096578
14416101827
14416106893
14416116842
14416123800
14416128377
14416134420
14416140951
14416145894
14416151632
14416159200
14416165670
14416174093
14416180135
14416189717
14416198446
14416205831
14416211507
14416221700
14416225911
14416237447
14416242513
14416252523
14416260518
14416268453
14416274922
14416283162
14416291707
14416298055
14416306172
14416311665
14416321675
14416329244
14416338643
14416345052
14416352437
14416358845
14416367329
14416372029
14416376790
14416382771
14416388020
14416393391
14416398274
14416401875
14416408650
14416414509
14416419758
14416424824
14416430317
14416435444
14416441853
14416446492
14416452595
14416458271
14416463215
14416470234
14416475728
14416482075
14416487202
14416494465
14416499958
14416505696
14416513020
14416518025
14416523030
14416528340
14416535237
14416539143
14416545307
14416550617
14416556294
14416559284
14416565632
14416570698
14416580036
14416585285
14416591938
14416596699
14416603657
14416609943
14416614155
14416621052
14416627094
14416631977
14416637714
14416642292
14416647480
14416653095
14416658344
14416663227
14416670124
14416674824
14416680317
14416685993
14416690510
14416696003
14416701313
14416706196
14416711689
14416718159
14416722553
14416728596
14416734089
14416739765
14416743061
14416750568
14416755451
14416761310
14416765949
14416771869
14416776813
14416782795
14416786884
14416791339
14416798725
14416805805
14416810321
14416815937
14416821003
14416826252
14416831684
14416836383
14416842914
14416848834
14416853717
14416860248
14416865375
14416868671
14416876361
14416882526
14416886615
14416892963
14416897907
14416904071
14416910175
14416916278
14416919940
14416926532
14416932147
14416937396
14416944537
14416949481
14416952472
14416961444
14416964496
14416971271
14416975909
14416982928
14416987689
14416994830
14416999652
14417005145
14417011249
14417016803
14417023883
14417028522
14417034259
14417040362
14417047870
14417051165
14417058917
14417064593
14417069964
14417076556
14417082110
14417088824
14417097064
14417102679
14417105792
14417113543
14417120990
14417126544
14417129901
14417137774
14417142474
14417149859
14417155779
14417162371
14417166949
14417171771
14417179095
14417184405
14417190203
14417197588
14417204913
14417210223
14417217730
14417222552
14417229449
14417236102
14417243731
14417248186
14417259478
14417265765
14417272295
14417279436
14417286455
14417294756
14417301836
14417309649
14417317278
14417321184
14417332354
14417338701
14417346758
14417353594
14417361528
14417367998
14417378496
14417385088
14417392717
14417400286
14417406633
14417417070
14417424456
14417431719
14417439348
14417444719
14417448076
14417457231
14417461504
14417466387
14417471697
14417477190
14417484575
14417489824
14417494829
14417501543
14417507463
14417513200
14417520158
14417529436
14417537431
14417546770
14417555925
14417561540
14417567155
14417570695
14417576128
14417579729
14417586565
14417590593
14417594255
14417598222
14417603166
14417607866
14417611772
14417617875
14417623857
14417628435
14417633073
14417637040
14417643632
14417648637
14417654802
14417660539
14417665910
14417671952
14417678056
14417684404
14417690263
14417696916
14417702226
14417710038
14417714738
14417721208
14417725785
14417732255
14417737321
14417742387
14417749650
14417753922
14417758805
14417765031
14417770158
14417777665
14417782914
14417788529
14417792191
14417800492
14417806168
14417814408
14417819657
14417826920
14417832719
14417839799
14417846207
14417851456
14417858414
14417863663
14417868058
14417874345
14417879227
14417885636
14417890031
14417894791
14417899796
14417904252
14417910050
14417914261
14417919877
14417924943
14417929886
14417935685
14417940018
14417945389
14417948746
14417956070
14417958878
14417965836
14417969437
14417975296
14417980545
14417985611
14417991043
14417996231
14418002457
14418008255
14418014054
14418019242
14418025345
14418030594
14418036209
14418041825
14418044571
14418052384
14418056961
14418063370
14418069046
14418073990
14418079910
14418085220
14418090225
14418097733
14418102921
14418109390
14418114945
14418121231
14418125381
14418132401
14418137039
14418142715
14418148819
14418154495
14418158462
14418164383
14418169815
14418175552
14418184341
14418192642
14418199844
14418208877
14418217300
14418224258
14418232742
14418240616
14418248489
14418256118
14418266128
14418276870
14418285659
14418295730
14418304397
14418313064
14418323196
14418333755
14418343582
14418352737
14418360732
14418368789
14418376602
14418385207
14418395706
14418405166
14418414077
14418425552
14418436111
14418446548
14418456924
14418468825
14418476333
14418490066
14418499160
14418510268
14418520827
14418531447
14418541457
14418550002
14418557448
14418565810
14418574660
14418581008
14418588881
14418596083
14418603835
14418613723
14418618239
14418628920
14418632888
14418644606
14418652236
14418659865
14418671217
14418677260
14418686354
14418695693
14418702773
14418713881
14418721510
14418728651
14418737868
14418744826
14418752943
14418761122
14418769545
14418777785
14418784010
14418794325
14418802565
14418809767
14418818861
14418826002
14418836500
14418844618
14418852858
14418859266
14418868177
14418878004
14418885084
14418894056
14418901258
14418909437
14418918714
14418927809
14418935804
14418943678
14418950086
14418961378
14418968824
14418977735
14418984388
14418994886
14419002210
14419010633
14419020033
14419027052
14419034986
14419043226
14419048719
14419063367
14419083875
14419102613
14419123243
14419142530
14419163709
14419184644
14419205884
14419226148
14419246350
14419263623
14419274854
14419286572
14419296887
14419313916
14419329175
14419342969
14419358044
14419372571
14419386853
14419396496
14419405163
14419414746
14419422680
14419430676
14419440197
14419448315
14419456128
14419464795
14419472790
14419480297
14419488720
14419495983
14419505200
14419513134
14419521069
14419529431
14419538037
14419546276
14419551098
14419563305
14419570629
14419579540
14419587658
14419595470
14419603588
14419609631
14419617504
14419625561
14419634838
14419641064
14419651623
14419658092
14419668712
14419672741
14419684460
14419692760
14419701549
14419708690
14419716930
14419721996
14419727794
14419731823
14419736705
14419742626
14419748119
14419754711
14419759777
14419767162
14419773632
14419780895
14419786205
14419793590
14419800853
14419807140
14419814586
14419820507
14419827098
14419834484
14419841258
14419850109
14419856639
14419863231
14419869640
14419875133
14419883495
14419890453
14419896495
14419903575
14419913463
14419918468
14419925670
14419931468
14419936656
14419942088
14419946849
14419951060
14419956004
14419961131
14419965709
14419971080
14419975780
14419979198
14419984508
14419988109
14419995067
14420000560
14420005198
14420013255
14420017161
14420024058
14420029002
14420035106
14420040294
14420044627
14420051280
14420056102
14420060984
14420064402
14420070262
14420075084
14420080272
14420084422
14420089610
14420094432
14420099192
14420103587
14420107981
14420114329
14420116893
14420124461
14420129100
14420133738
14420137828
14420143565
14420148509
14420154490
14420160105
14420164500
14420170786
14420174632
14420180613
14420185374
14420191599
14420196299
14420203379
14420210093
14420219248
14420224375
14420232859
14420239634
14420244578
14420249705
14420254099
14420259104
14420263071
14420268137
14420272227
14420276438
14420281138
14420286326
14420291086
14420295237
14420299631
14420303476
14420308542
14420314829
14420319834
14420322886
14420328806
14420332346
14420338144
14420341990
14420347361
14420351999
14420355906
14420361033
14420364939
14420369638
14420373911
14420380014
14420385385
14420390573
14420394785
14420399851
14420405527
14420409372
14420415720
14420418650
14420425119
14420430551
14420436533
14420441660
14420446298
14420450937
14420456369
14420464914
14420470285
14420475717
14420480356
14420486398
14420492685
14420498727
14420503305
14420511606
14420514413
14420521677
14420527170
14420531503
14420535593
14420540659
14420546091
14420551462
14420555246
14420560251
14420563547
14420568552
14420572580
14420577585
14420583749
14420588266
14420592966
14420597909
14420602975
14420607065
14420612985
14420618417
14420624521
14420633737
14420639535
14420648813
14420655221
14420663766
14420670114
14420678598
14420684335
14420692880
14420700204
14420707223
14420715585
14420724008
14420728097
14420738900
14420744882
14420755380
14420762704
14420769357
14420775277
14420786263
14420790597
14420800851
14420807442
14420819649
14420826241
14420832467
14420836800
14420842110
14420848885
14420854806
14420859261
14420864998
14420871346
14420877511
14420887032
14420892586
14420899361
14420902230
14420909981
14420916512
14420923470
14420926400
14420935006
14420938057
14420946724
14420949532
14420956246
14420960518
14420968636
14420974495
14420979805
14420986214
14420991219
14420996895
14421001717
14421008553
14421013558
14421020088
14421024605
14421031014
14421034004
14421041878
14421045723
14421052010
14421056465
14421063851
14421066902
14421074959
14421079048
14421086067
14421089790
14421096199
14421101204
14421109138
14421117073
14421124519
14421130012
14421136543
14421143135
14421150093
14421157783
14421161934
14421169014
14421173225
14421180855
14421183601
14421190925
14421195625
14421203193
14421206733
14421213997
14421219001
14421224189
14421229316
14421235603
14421240730
14421245735
14421251411
14421256477
14421261787
14421268074
14421274055
14421278450
14421286018
14421292182
14421297431
14421303474
14421307746
14421313362
14421318916
14421323860
14421328742
14421335212
14421340644
14421346565
14421350471
14421357856
14421362983
14421369575
14421376716
14421381538
14421387153
14421392463
14421399909
14421405280
14421408210
14421416511
14421419990
14421428291
14421433051
14421440986
14421446235
14421452399
14421458320
14421465034
14421469794
14421478644
14421483222
14421490546
14421495185
14421501533
14421506049
14421512580
14421517157
14421523505
14421528571
14421531562
14421539313
14421543830
14421551215
14421555671
14421562262
14421567084
14421574042
14421580024
14421585273
14421589728
14421596564
14421601264
14421606818
14421611945
14421619452
14421625067
14421627753
14421637824
14421640753
14421648566
14421651801
14421659064
14421665534
14421674323
14421677374
14421686408
14421692084
14421703314
14421710822
14421719550
14421726569
14421740607
14421745245
14421756659
14421763678
14421772162
14421778143
14421788946
14421792792
14421808050
14421815313
14421825079
14421830389
14421839422
14421846563
14421853460
14421862066
14421871099
14421877752
14421885199
14421894476
14421901739
14421905645
14421913275
14421917852
14421924627
14421929083
14421935308
14421942144
14421948004
14421952642
14421958868
14421965521
14421972418
14421977972
14421982793
14421989568
14421994573
14421999761
14422005499
14422012334
14422015752
14422023138
14422027898
14422034185
14422038763
14422045354
14422051275
14422057134
14422062017
14422068181
14422074651
14422079656
14422085271
14422091131
14422096380
14422102910
14422108037
14422114507
14422122136
14422125615
14422133916
14422138372
14422144292
14422150457
14422155706
14422162175
14422168889
14422178105
14422187688
14422199102
14422206182
14422214299
14422222844
14422228765
14422235661
14422242986
14422246221
14422253240
14422259953
14422266911
14422272832
14422277409
14422280095
14422288091
14422291020
14422299687
14422304936
14422310735
14422315251
14422322514
14422329167
14422337712
14422343083
14422349614
14422354375
14422360844
14422368840
14422376042
14422384892
14422391667
14422397343
14422404606
14422409611
14422415287
14422421879
14422427372
14422433903
14422439274
14422445317
14422450810
14422456303
14422461857
14422466435
14422473088
14422477421
14422482853
14422488896
14422493779
14422498905
14422504032
14422510136
14422513005
14422520390
14422525761
14422531864
14422536808
14422541691
14422547062
14422553471
14422558537
14422564213
14422568729
14422575321
14422579655
14422585148
14422589359
14422596989
14422601383
14422607548
14422613651
14422618717
14422623173
14422629826
14422636173
14422639530
14422646305
14422651737
14422657108
14422665165
14422670353
14422675785
14422682377
14422685428
14422692753
14422697330
14422704899
14422709659
14422716007
14422720585
14422727787
14422733768
14422737674
14422744815
14422751224
14422755619
14422762455
14422766971
14422773929
14422779239
14422784976
14422791629
14422796817
14422802494
14422810184
14422819889
14422824222
14422835452
14422839603
14422851871
14422856082
14422867862
14422874332
14422884036
14422890872
14422899661
14422906192
14422915652
14422922244
14422929202
14422939334
14422946902
14422957461
14422964725
14422975101
14422979861
14422990298
14422997439
14423007510
14423016909
14423026797
14423032473
14423040774
14423045840
14423052798
14423058230
14423063845
14423074038
14423079409
14423087100
14423093386
14423098452
14423109316
14423115664
14423120425
14423126834
14423131289
14423136721
14423142520
14423148196
14423151797
14423158633
14423164431
14423168704
14423174563
14423180850
14423184512
14423190554
14423195986
14423200747
14423207461
14423212954
14423216189
14423223147
14423229494
14423235781
14423240420
14423246523
14423252321
14423258120
14423264895
14423272158
14423276919
14423283327
14423287783
14423294253
14423298830
14423304995
14423310732
14423317263
14423324160
14423327150
14423333803
14423338320
14423346437
14423349855
14423356935
14423363100
14423369081
14423374025
14423378969
14423385378
14423391359
14423396364
14423402834
14423407411
14423414247
14423419618
14423425173
14423430300
14423436159
14423441896
14423446291
14423453371
14423458193
14423464784
14423470766
14423475038
14423480898
14423485780
14423492372
14423496950
14423503969
14423511537
14423516481
14423521181
14423529054
14423534547
14423540285
14423545045
14423552431
14423557985
14423564149
14423569765
14423576173
14423582643
14423587648
14423594789
14423599244
14423606019
14423614991
14423619874
14423624696
14423632142
14423636903
14423645021
14423650026
14423657716
14423660890
14423671327
14423681031
14423686891
14423694947
14423699952
14423706300
14423712892
14423720765
14423725160
14423731629
14423737733
14423742494
14423746644
14423752808
14423756959
14423764283
14423768739
14423773866
14423778077
14423785645
14423790101
14423795655
14423802064
14423807923
14423812379
14423817750
14423823182
14423827332
14423832825
14423839234
14423845826
14423853028
14423859131
14423864564
14423870240
14423875489
14423885560
14423892823
14423897950
14423904480
14423910889
14423917359
14423923584
14423931885
14423941162
14423949707
14423958313
14423965088
14423973633
14423979798
14423989441
14423993897
14424004212
14424010620
14424020508
14424031006
14424039002
14424045838
14424054016
14424060425
14424070007
14424078796
14424084290
14424093994
14424101196
14424109558
14424117004
14424124878
14424133545
14424139709
14424146118
14424151855
14424155090
14424163574
14424168823
14424174194
14424179504
14424185119
14424191101
14424196594
14424203308
14424208923
14424215332
14424221496
14424226562
14424232116
14424239196
14424244262
14424250000
14424257812
14424262878
14424269226
14424274902
14424282104
14424287902
14424292236
14424298950
14424304504
14424311828
14424316467
14424324218
14424330749
14424340759
14424346191
14424353332
14424359618
14424365356
14424371948
14424376586
14424382812
14424387878
14424393615
14424400329
14424405944
14424410522
14424416198
14424421569
14424427001
14424430724
14424436706
14424442199
14424447570
14424453429
14424460387
14424465148
14424471313
14424474364
14424482543
14424487487
14424492309
14424499389
14424504699
14424509337
14424515929
14424521056
14424525756
14424530211
14424537047
14424541686
14424548766
14424552733
14424558348
14424563719
14424568419
14424574340
14424580748
14424585448
14424592894
14424599181
14424602721
14424609435
14424614745
14424620299
14424627013
14424632018
14424637877
14424643553
14424651610
14424657347
14424660277
14424668944
14424673460
14424680357
14424685851
14424692992
14424697569
14424704893
14424709410
14424715636
14424721739
14424727721
14424732664
14424740233
14424745116
14424749388
14424755919
14424762083
14424767882
14424773558
14424778563
14424786253
14424792723
14424795775
14424803526
14424806639
14424815733
14424820005
14424826902
14424834410
14424841551
14424847410
14424852049
14424858580
14424863584
14424869505
14424875425
14424880125
14424887022
14424891355
14424897642
14424902769
14424905760
14424915586
14424920225
14424928221
14424932554
14424940916
14424947630
14424955198
14424960935
14424966795
14424972715
14424977171
14424982969
14424989744
14424994505
14424998228
14425003294
14425008665
14425014280
14425021299
14425027769
14425034971
14425041929
14425049375
14425056821
14425063840
14425070920
14425080381
14425086728
14425095823
14425103269
14425112180
14425119077
14425125974
14425132627
14425141355
14425148801
14425157773
14425163327
14425172238
14425179685
14425186521
14425194638
14425201718
14425208920
14425219052
14425221799
14425234250
14425237058
14425245480
14425248471
14425255734
14425261227
14425267087
14425272885
14425278134
14425283994
14425289059
14425293027
14425299252
14425304074
14425311093
14425316403
14425323056
14425327511
14425333554
14425339352
14425345151
14425351742
14425360592
14425365719
14425371945
14425376889
14425383236
14425389096
14425393673
14425398800
14425406857
14425413510
14425416439
14425423397
14425428097
14425435727
14425440304
14425446225
14425450802
14425458065
14425464596
14425468258
14425475155
14425480221
14425485836
14425490963
14425497921
14425504452
14425509640
14425512753
14425521053
14425526791
14425532162
14425536739
14425542477
14425549191
14425554867
14425561825
14425568234
14425575069
14425578793
14425586849
14425594234
14425599606
14425608456
14425614986
14425621273
14425625790
14425633297
14425637508
14425642818
14425646664
14425652584
14425657162
14425663997
14425668758
14425675167
14425679317
14425685116
14425689205
14425696468
14425702205
14425707637
14425711788
14425717647
14425723751
14425729061
14425735042
14425741878
14425747798
14425752742
14425758663
14425762508
14425768856
14425774715
14425778743
14425785091
14425789852
14425795955
14425800899
14425805477
14425811580
14425816768
14425821956
14425828243
14425835445
14425838191
14425846553
14425852168
14425857295
14425862056
14425868831
14425873714
14425880672
14425885371
14425892512
14425897151
14425902888
14425908687
14425914973
14425921199
14425927852
14425933467
14425937312
14425943782
14425948848
14425956050
14425961665
14425966792
14425970210
14425978206
14425981440
14425988887
14425994746
14425999385
14426005244
14426011409
14426017695
14426025142
14426029841
14426036128
14426040522
14426046382
14426052119
14426057368
14426062678
14426069270
14426075007
14426080439
14426088313
14426092646
14426103266
14426108271
14426121028
14426128352
14426137934
14426144892
14426154108
14426163264
14426171076
14426178400
14426187556
14426197138
14426209833
14426218378
14426227412
14426234980
14426244929
14426252436
14426259760
14426270624
14426278864
14426287897
14426295710
14426305842
14426312006
14426319330
14426323969
14426329340
14426337152
14426344294
14426347834
14426354853
14426359369
14426367121
14426370111
14426379145
14426383905
14426390070
14426395258
14426401727
14426406000
14426411615
14426418085
14426422724
14426429437
14426434931
14426441827
14426446039
14426452509
14426455499
14426464288
14426467401
14426475763
14426480951
14426486749
14426491632
14426498041
14426503900
14426508722
14426515069
14426521356
14426525690
14426533807
14426538446
14426545160
14426550287
14426556329
14426562066
14426566461
14426572809
14426580560
14426585687
14426591607
14426597223
14426602777
14426609857
14426614801
14426621209
14426627618
14426634942
14426639825
14426645806
14426653131
14426656976
14426664422
14426667779
14426675469
14426680169
14426688409
14426695550
14426700799
14426707269
14426711602
14426719476
14426723992
14426730950
14426734857
14426743768
14426749383
14426755059
14426760613
14426766778
14426773309
14426777276
14426785027
14426790765
14426798150
14426805474
14426810235
14426815789
14426822076
14426826897
14426833977
14426841424
14426846734
14426853570
14426859246
14426867302
14426871880
14426879754
14426885369
14426891594
14426899285
14426907280
14426913628
14426920403
14426926018
14426932427
14426938774
14426943230
14426949395
14426954583
14426960137
14426964226
14426969109
14426975579
14426981072
14426986138
14426992363
14426998589
14427001213
14427009209
14427012200
14427019890
14427024284
14427030510
14427036736
14427042900
14427047722
14427053459
14427059929
14427065849
14427070366
14427076286
14427082695
14427088921
14427093498
14427100456
14427105156
14427110588
14427117058
14427123039
14427128410
14427131706
14427138969
14427145500
14427151542
14427155937
14427162590
14427167351
14427173759
14427180168
14427184868
14427191093
14427197502
14427203361
14427209098
14427215324
14427219047
14427226432
14427232719
14427239189
14427244194
14427249992
14427255546
14427262260
14427265251
14427273673
14427277030
14427285636
14427288871
14427297172
14427302238
14427309196
14427313712
14427319511
14427326530
14427333732
14427340263
14427345207
14427348991
14427354850
14427359306
14427366691
14427370353
14427378165
14427385795
14427391837
14427398368
14427404105
14427409843
14427415641
14427422416
14427428702
14427436088
14427441581
14427447013
14427452323
14427459037
14427465995
14427471915
14427480887
14427488456
14427496451
14427501883
14427509085
14427515494
14427520499
14427528250
14427535086
14427539847
14427546378
14427551017
14427557120
14427562125
14427568961
14427575919
14427581900
14427587332
14427593924
14427598990
14427604544
14427609366
14427615714
14427620413
14427627860
14427631094
14427638724
14427641776
14427648612
14427655203
14427661185
14427666556
14427673819
14427680289
14427685477
14427691397
14427696158
14427702566
14427708304
14427713370
14427720022
14427725516
14427730215
14427737356
14427740347
14427748831
14427752066
14427760794
14427767996
14427773550
14427776480
14427784170
14427788504
14427794973
14427800161
14427807669
14427812368
14427821890
14427826956
14427833303
14427837759
14427843191
14427849783
14427854299
14427860952
14427868521
14427873220
14427878408
14427884939
14427889211
14427896292
14427901418
14427906545
14427909658
14427918813
14427922292
14427930349
14427933767
14427942434
14427947805
14427952932
14427957754
14427964468
14427971609
14427976186
14427981985
14427987356
14427993459
14427999380
14428005361
14428012136
14428018850
14428024831
14428029348
14428034902
14428040090
14428045949
14428053945
14428057790
14428065236
14428076467
14428081472
14428089101
14428094228
14428100332
14428107290
14428115285
14428123952
14428129934
14428137380
14428142568
14428149343
14428154836
14428159535
14428167531
14428173329
14428178395
14428183644
14428190358
14428194814
14428200124
14428206899
14428212514
14428219411
14428225148
14428231007
14428235341
14428241383
14428246510
14428253102
14428257619
14428264516
14428269032
14428275929
14428278737
14428287892
14428293996
14428299000
14428302052
14428310658
14428318959
14428323659
14428328541
14428335255
14428338307
14428346974
14428353505
14428360463
14428366627
14428371571
14428377369
14428382496
14428387379
14428394947
14428399830
14428406544
14428411915
14428418629
14428423024
14428428761
14428435231
14428441883
14428446400
14428454151
14428460438
14428465321
14428471119
14428476246
14428481922
14428487599
14428492665
14428498585
14428505909
14428511463
14428518421
14428521351
14428528797
14428533497
14428540272
14428545094
14428550587
14428557117
14428563404
14428569569
14428575306
14428579822
14428584705
14428591602
14428598621
14428605701
14428610645
14428613514
14428621693
14428626758
14428631641
14428638477
14428643543
14428651050
14428655811
14428660572
14428666553
14428670887
14428678394
14428685657
14428693531
14428701221
14428707019
14428715931
14428720630
14428726612
14428733814
14428740284
14428747303
14428753772
14428758106
14428764514
14428769336
14428774280
14428780322
14428787097
14428791919
14428796802
14428803760
14428808643
14428815234
14428819507
14428826465
14428830005
14428838611
14428841785
14428850024
14428853137
14428860767
14428865955
14428871448
14428877734
14428884814
14428889575
14428895618
14428900134
14428904834
14428911975
14428916492
14428923144
14428930713
14428935534
14428941028
14428946704
14428952868
14428957995
14428964099
14428970141
14428977710
14428983691
14428989550
14428995471
14429000110
14429006884
14429011401
14429017566
14429022021
14429029773
14429036059
14429040759
14429046679
14429051684
14429057482
14429060351
14429068835
14429074572
14429080371
14429083178
14429091357
14429095873
14429102221
14429108080
14429113757
14429118273
14429124804
14429130541
14429136828
14429141344
14429148058
14429154040
14429157702
14429164782
14429168810
14429178332
14429184069
14429189135
14429194506
14429202379
14429208910
14429214831
14429217760
14429232104
14429237719
14429244311
14429247423
14429254259
14429258898
14429266222
14429272081
14429280138
14429287157
14429293627
14429299425
14429305590
14429311571
14429317430
14429325060
14429331163
14429336718
14429343614
14429348436
14429355272
14429361925
14429368395
14429373888
14429379808
14429384386
14429390489
14429395128
14429401048
14429406908
14429411791
14429417589
14429423021
14429429430
14429434618
14429440599
14429445177
14429451158
14429455553
14429460252
14429467149
14429473497
14429477708
14429484239
14429488267
14429495470
14429498277
14429506822
14429510545
14429519395
14429524644
14429529344
14429533861
14429539171
14429543626
14429551805
14429557603
14429564622
14429569810
14429577501
14429582017
14429587266
14429593675
14429600084
14429604600
14429611497
14429617540
14429622361
14429628221
14429633409
14429637864
14429642991
14429649949
14429655442
14429662767
14429667100
14429673692
14429678391
14429684190
14429687058
14429695664
14429698777
14429707566
14429710984
14429718064
14429722886
14429730149
14429736009
14429741196
14429746201
14429752854
14429759080
14429763963
14429770066
14429775010
14429781724
14429785752
14429792283
14429799241
14429806321
14429810898
14429817979
14429823289
14429828354
14429834519
14429839585
14429845933
14429851975
14429857895
14429864365
14429868088
14429878098
14429882248
14429895188
14429903977
14429911240
14429915390
14429927170
14429931382
14429940781
14429945725
14429953049
14429958481
14429968186
14429971420
14429980393
14429983444
14429989365
14429995590
14430001938
14430007187
14430014267
14430018906
14430025803
14430031296
14430036667
14430042526
14430047348
14430053146
14430058823
14430065292
14430070969
14430077560
14430083237
14430089340
14430093979
14430100510
14430105942
14430114426
14430120285
14430127487
14430133774
14430138168
14430144272
14430148910
14430157333
14430161789
14430167404
14430174728
14430180404
14430186264
14430191757
14430196029
14430202438
14430206771
14430212631
14430219345
14430223861
14430231002
14430236496
14430243881
14430249130
14430255722
14430259445
14430265426
14430270004
14430276595
14430282760
14430286788
14430293624
14430298629
14430304000
14430308212
14430314071
14430319564
14430326400
14430331710
14430338363
14430344772
14430349715
14430355087
14430360458
14430366744
14430370162
14430378036
14430383956
14430389266
14430394088
14430401412
14430406539
14430412826
14430417281
14430424056
14430428634
14430436324
14430442550
14430448409
14430453475
14430459762
14430465743
14430469283
14430476424
14430482467
14430490035
14430496383
14430502059
14430509078
14430514937
14430522200
14430528304
14430533858
14430541487
14430547957
14430556380
14430561507
14430566939
14430573042
14430578536
14430582320
14430588973
14430593184
14430599349
14430603011
14430608870
14430612837
14430618880
14430623152
14430628584
14430632430
14430638045
14430641890
14430648299
14430654280
14430660200
14430665449
14430669661
14430674422
14430680159
14430685408
14430690169
14430693281
14430701948
14430707808
14430712324
14430717390
14430722090
14430726607
14430733565
14430738325
14430745222
14430749922
14430756392
14430760481
14430766401
14430770491
14430776411
14430783186
14430788557
14430794783
14430803755
14430808516
14430817182
14430821577
14430827619
14430831953
14430840193
14430846662
14430851728
14430855818
14430862348
14430866499
14430872419
14430877607
14430884809
14430890119
14430897199
14430901960
14430908064
14430912153
14430918806
14430923566
14430932722
14430937360
14430946455
14430952253
14430957990
14430963483
14430970319
14430974592
14430984052
14430988569
14430994123
14430998151
14431004560
14431009015
14431015241
14431021772
14431028425
14431033246
14431039594
14431044782
14431050702
14431056623
14431060529
14431068464
14431075055
14431082929
14431091657
14431096357
14431102033
14431108258
14431115216
14431120282
14431127484
14431134259
14431138593
14431143598
14431149274
14431152997
14431159284
14431165814
14431172101
14431177411
14431181928
14431187360
14431192243
14431195477
14431203656
14431209882
14431215375
14431220502
14431224896
14431227765
14431235577
14431242596
14431248212
14431251324
14431258832
14431261700
14431269391
14431272198
14431280865
14431285382
14431291669
14431296796
14431305096
14431309552
14431315777
14431321271
14431325665
14431331708
14431337445
14431343854
14431349041
14431354535
14431359478
14431364056
14431370709
14431375897
14431380658
14431388348
14431393536
14431400189
14431405987
14431411053
14431414837
14431423321
14431426617
14431433941
14431439068
14431447125
14431452801
14431457806
14431463909
14431470501
14431476177
14431481426
14431486736
14431493206
14431500958
14431506939
14431512310
14431518047
14431524090
14431527142
14431535259
14431540691
14431548504
14431553326
14431559734
14431565411
14431570660
14431575970
14431579204
14431588238
14431594585
14431599895
14431603313
14431611126
14431615948
14431622234
14431628643
14431633770
14431641338
14431648052
14431652752
14431658123
14431665264
14431669902
14431677349
14431682903
14431690349
14431698162
14431704387
14431709880
14431718792
14431724102
14431731121
14431736003
14431741802
14431748638
14431754070
14431756816
14431766216
14431771526
14431776409
14431779277
14431786296
14431793620
14431798686
14431801677
14431809306
14431812846
14431819743
14431826823
14431832317
14431836406
14431843852
14431849956
14431855754
14431861125
14431867839
14431872539
14431878276
14431884441
14431889690
14431896831
14431902324
14431907390
14431913310
14431918498
14431921550
14431929667
14431934367
14431942302
14431945598
14431952556
14431956950
14431963481
14431969951
14431975871
14431980510
14431987162
14431993449
14431999247
14432008647
14432016703
14432022258
14432028422
14432033183
14432039653
14432046244
14432051554
14432057353
14432060954
14432068949
14432073771
14432080241
14432085612
14432093607
14432098917
14432105631
14432110453
14432116007
14432123087
14432128275
14432134562
14432140421
14432146159
14432152018
14432157694
14432164530
14432170451
14432173807
14432180949
14432186503
14432195353
14432200968
14432207499
14432212931
14432219095
14432225931
14432231547
14432237772
14432241617
14432250223
14432257670
14432264505
14432268107
14432276041
14432281656
14432288187
14432294352
14432302957
14432310465
14432317484
14432322184
14432327127
14432335733
14432341471
14432347818
14432354044
14432361429
14432369669
14432374185
14432379373
14432384683
14432389261
14432395426
14432404215
14432408853
14432414896
14432419656
14432426126
14432431863
14432437784
14432443704
14432451089
14432456827
14432461893
14432467691
14432472147
14432478128
14432483743
14432489908
14432496011
14432502298
14432507608
14432512124
14432518350
14432524515
14432529031
14432534280
14432540384
14432547586
14432552530
14432557596
14432563638
14432569253
14432572183
14432579690
14432584268
14432591592
14432596841
14432604776
14432609719
14432615335
14432619912
14432625222
14432632302
14432639627
14432646340
14432650369
14432657022
14432661233
14432668313
14432673745
14432679543
14432686624
14432692056
14432699441
14432704934
14432707864
14432714578
14432719399
14432726968
14432731667
14432738503
14432743447
14432749978
14432756142
14432760964
14432767129
14432772866
14432777383
14432783913
14432789223
14432795876
14432802346
14432807595
14432813698
14432821145
14432827004
14432834145
14432840188
14432846535
14432855629
14432861916
14432870705
14432877968
14432885842
14432888222
14432901345
14432907936
14432916664
14432926308
14432934426
14432946388
14432953407
14432962441
14432974953
14432982338
14432991127
14433001198
14433006935
14433013649
14433022438
14433029701
14433037514
14433042397
14433048500
14433055336
14433060646
14433066688
14433071327
14433077797
14433081947
14433087990
14433093422
14433098671
14433104774
14433110756
14433116249
14433121742
14433128212
14433134559
14433141945
14433147438
14433153419
14433160621
14433166542
14433171241
14433175941
14433182716
14433188453
14433194313
14433199806
14433205299
14433212013
14433220253
14433226905
14433234901
14433240028
14433245521
14433248634
14433256812
14433263709
14433269142
14433275062
14433282142
14433286720
14433293495
14433298682
14433306434
14433312049
14433319068
14433324622
14433332069
14433336707
14433343604
14433350074
14433356483
14433362403
14433368262
14433373267
14433381629
14433387733
14433392310
14433399329
14433404517
14433410804
14433415809
14433422095
14433426978
14433434058
14433439429
14433444983
14433448523
14433456275
14433461219
14433468055
14433472937
14433478553
14433484778
14433491431
14433497046
14433504859
14433510169
14433516211
14433523780
14433529395
14433536414
14433540869
14433547278
14433552588
14433558203
14433563635
14433569251
14433578406
14433584265
14433591162
14433599036
14433604346
14433612463
14433618079
14433624731
14433633093
14433639441
14433646033
14433651282
14433656348
14433660681
14433667639
14433672095
14433680212
14433687109
14433692297
14433696326
14433702856
14433706946
14433712561
14433717199
14433725317
14433729651
14433736242
14433740332
14433745215
14433750586
14433756811
14433762915
14433768408
14433774511
14433780066
14433784521
14433789770
14433795568
14433800878
14433807653
14433814123
14433818823
14433825537
14433830297
14433837072
14433842993
14433849462
14433855993
14433863378
14433869116
14433875219
14433881017
14433886572
14433890966
14433896520
14433903295
14433911535
14433917516
14433924108
14433930761
14433936315
14433941015
14433946874
14433953344
14433959692
14433966588
14433971410
14433978246
14433982397
14433988866
14433993566
14434000707
14434008336
14434013585
14434019811
14434024755
14434030858
14434035985
14434038915
14434046788
14434051732
14434058751
14434063817
14434070958
14434075902
14434082799
14434088475
14434094396
14434100438
14434106481
14434111180
14434117284
14434123143
14434129125
14434133824
14434139806
14434144261
14434151525
14434157506
14434162511
14434170140
14434176732
14434185094
14434192601
14434198460
14434210118
14434217137
14434222813
14434231175
14434237279
14434242528
14434250523
14434254246
14434262791
14434267918
14434272313
14434277989
14434284581
14434289464
14434295994
14434301304
14434305333
14434311253
14434314915
14434320225
14434325108
14434330662
14434336033
14434342381
14434345677
14434354954
14434358372
14434365513
14434370945
14434375767
14434378514
14434387120
14434389927
14434398289
14434402867
14434408360
14434412876
14434421177
14434425205
14434430882
14434435337
14434441746
14434447239
14434454441
14434459690
14434466404
14434472508
14434478550
14434484532
14434489536
14434497410
14434502110
14434507969
14434514927
14434521091
14434527012
14434532688
14434538303
14434543613
14434548313
14434554111
14434559177
14434566929
14434572788
14434580356
14434585117
14434591282
14434596714
14434603000
14434609775
14434616733
14434621494
14434626194
14434633213
14434639072
14434645420
14434650608
14434656894
14434662632
14434668369
14434674839
14434679782
14434685031
14434690219
14434696933
14434708591
14434715976
14434722202
14434727512
14434735385
14434740085
14434744846
14434751132
14434757907
14434765781
14434772250
14434781284
14434788059
14434794406
14434802036
14434808871
14434817355
14434822116
14434826816
14434832431
14434837436
14434843784
14434849216
14434851718
14434861850
14434865817
14434872531
14434878573
14434883639
14434888705
14434896091
14434901095
14434906589
14434910556
14434917087
14434922091
14434927951
14434933017
14434939853
14434944796
14434949191
14434955233
14434960177
14434966281
14434971896
14434976535
14434982821
14434988681
14434995150
14435000155
14435005221
14435010287
14435016024
14435022677
14435028475
14435036837
14435041964
14435047701
14435053744
14435060031
14435066805
14435073946
14435080111
14435086642
14435094210
14435099398
14435106600
14435111117
14435118136
14435122836
14435127718
14435134310
14435139498
14435144869
14435151583
14435157564
14435165255
14435170382
14435177584
14435183626
14435189791
14435197298
14435202059
14435207552
14435214693
14435220797
14435225557
14435230867
14435237764
14435241549
14435247652
14435252840
14435258516
14435263155
14435268343
14435273348
14435279573
14435284700
14435289949
14435294893
14435301363
14435307161
14435310640
14435318758
14435327913
14435333711
14435337984
14435344332
14435352571
14435357454
14435363741
14435369600
14435376985
14435383211
14435390901
14435395845
14435403780
14435410066
14435415926
14435423250
14435429475
14435433992
14435439912
14435445100
14435451204
14435455171
14435461275
14435466218
14435472383
14435477876
14435481965
14435488374
14435492402
14435497713
14435501802
14435509736
14435514436
14435520295
14435524629
14435530732
14435536958
14435542146
14435549958
14435555574
14435562043
14435567109
14435570344
14435577668
14435584260
14435589997
14435595796
14435602571
14435607698
14435613374
14435618928
14435625093
14435629914
14435635346
14435643891
14435649262
14435656587
14435661653
14435667451
14435670686
14435679780
14435688752
14435696137
14435701691
14435708588
14435714204
14435718903
14435725556
14435731232
14435737397
14435744050
14435749055
14435754548
14435761506
14435766511
14435772675
14435777436
14435784272
14435789277
14435795930
14435802582
14435808625
14435814301
14435819062
14435824616
14435831147
14435837922
14435842743
14435848847
14435855988
14435861603
14435865021
14435872589
14435878815
14435886139
14435892304
14435896027
14435903412
14435909638
14435916474
14435922211
14435927338
14435936005
14435943634
14435951203
14435959137
14435964874
14435973541
14435980743
14435986725
14435994904
14436000763
14436008453
14436013702
14436019806
14436025665
14436030670
14436036468
14436041717
14436047150
14436052215
14436057831
14436063385
14436069610
14436075165
14436082123
14436087250
14436091583
14436097748
14436102325
14436109039
14436113861
14436120575
14436126190
14436133575
14436138153
14436143097
14436149627
14436155609
14436161468
14436167144
14436172515
14436179901
14436186065
14436191803
14436197601
14436203155
14436208465
14436211944
14436219696
14436225311
14436232147
14436236907
14436244903
14436249908
14436256255
14436261810
14436267974
14436274261
14436278838
14436285552
14436291534
14436297515
14436303863
14436309600
14436316314
14436323577
14436329803
14436336883
14436341827
14436348785
14436353484
14436359038
14436362212
14436371062
14436376372
14436381682
14436384978
14436393035
14436395843
14436405852
14436409209
14436416411
14436421599
14436430816
14436436248
14436441375
14436447234
14436453643
14436460173
14436466582
14436472197
14436478362
14436484587
14436491301
14436496367
14436502837
14436508086
14436515105
