14469917302
14469922734
14469928655
14469935368
14469940617
14469946538
14469952580
14469957951
14469964116
14469971379
14469977544
14469984258
14469991154
14469996831
14470002385
14470007024
14470013982
14470021001
14470025822
14470031682
14470036198
14470042241
14470047551
14470054143
14470060612
14470066472
14470073430
14470078801
14470086857
14470094670
14470100590
14470107426
14470113835
14470119145
14470127018
14470133488
14470139408
14470146611
14470153202
14470159733
14470165165
14470173527
14470180180
14470187565
14470192753
14470196293
14470204045
14470210819
14470215153
14470222843
14470227787
14470234379
14470239994
14470247196
14470253178
14470259464
14470268864
14470276066
14470282352
14470291752
14470297611
14470305668
14470312809
14470319401
14470325870
14470332706
14470338932
14470345951
14470352482
14470355106
14470361393
14470365482
14470370487
14470375980
14470381107
14470386112
14470390079
14470395267
14470400089
14470404545
14470407474
14470413639
14470418033
14470422794
14470427738
14470431278
14470437198
14470440555
14470445438
14470449161
14470455082
14470459598
14470464176
14470468631
14470473575
14470478702
14470481998
14470487491
14470491580
14470495731
14470499454
14470507327
14470513126
14470517887
14470522769
14470530216
14470534305
14470537967
14470543948
14470549014
14470554508
14470559940
14470564578
14470569888
14470574710
14470579288
14470581973
14470589969
14470596194
14470600406
14470606509
14470611270
14470617679
14470621036
14470627444
14470632754
14470637088
14470643130
14470648440
14470652347
14470657535
14470661746
14470667239
14470671390
14470676028
14470681949
14470686831
14470691714
14470696841
14470700808
14470705935
14470710025
14470715274
14470718692
14470725100
14470731265
14470735720
14470742007
14470746646
14470753299
14470756411
14470765017
14470770877
14470776858
14470781802
14470785708
14470791140
14470794924
14470799990
14470804690
14470810793
14470815737
14470820193
14470824099
14470828494
14470833437
14470837222
14470842165
14470847048
14470851626
14470857241
14470861819
14470867922
14470873110
14470878603
14470881594
14470888613
14470894045
14470898745
14470902712
14470908144
14470913332
14470917361
14470920046
14470928103
14470933718
14470939211
14470944033
14470949465
14470955202
14470959719
14470965029
14470971621
14470977053
14470981630
14470987185
14470993044
14470998537
14471002810
14471010195
14471014162
14471020021
14471024782
14471031435
14471036257
14471044252
14471052309
14471094911
14471105165
14471112184
14471119875
14471126772
14471133424
14471139772
14471146242
14471153261
14471159242
14471165407
14471171938
14471178102
14471184084
14471189943
14471195924
14471202882
14471207521
14471212343
14471214479
14471220460
14471222719
14471230409
14471235353
14471240053
14471245790
14471250673
14471256715
14471263795
14471270753
14471276246
14471283265
14471288575
14471293397
14471297853
14471303712
14471308412
14471313600
14471318361
14471323243
14471327577
14471331056
14471336061
14471340455
14471346803
14471351136
14471356629
14471359925
14471366151
14471371095
14471375856
14471380799
14471385011
14471390138
14471394349
14471398683
14471402467
14471407289
14471409669
14471416017
14471421388
14471425233
14471429688
14471435304
14471439576
14471444703
14471451112
14471455628
14471460877
14471465760
14471470765
14471475770
14471480653
14471487550
14471494080
14471499268
14471504029
14471508912
14471513612
14471519715
14471523194
14471531983
14471535889
14471542176
14471547242
14471551514
14471556641
14471562134
14471565980
14471573975
14471582398
14471587525
14471593384
14471599244
14471604676
14471609803
14471615296
14471621949
14471627503
14471632325
14471637696
14471641968
14471647095
14471651917
14471657105
14471661743
14471668701
14471673645
14471679749
14471686218
14471692200
14471699402
14471707886
14471712769
14471718079
14471722717
14471728211
14471734131
14471740784
14471749573
14471756958
14471764404
14471770996
14471776245
14471784729
14471790283
14471797241
14471804321
14471809021
14471813293
14471817993
14471822143
14471828796
14471834717
14471839294
14471843506
14471850769
14471855896
14471860534
14471866821
14471871277
14471876709
14471882141
14471888244
14471892883
14471898132
14471904174
14471909607
14471915466
14471922180
14471926941
14471933166
14471939819
14471947815
14471954162
14471962280
14471969848
14471977783
14471984313
14471992187
14471999816
14472007263
14472013549
14472021240
14472023864
14472037536
14472045226
14472052673
14472059081
14472067138
14472075072
14472080566
14472089904
14472098937
14472106689
14472113525
14472121520
14472126220
14472131347
14472135924
14472141906
14472146789
14472152648
14472157531
14472163146
14472167663
14472172240
14472177001
14472183532
14472186889
14472193847
14472196715
14472204039
14472206786
14472213866
14472217711
14472225097
14472230284
14472235472
14472239562
14472246947
14472253051
14472257628
14472264586
14472272216
14472276671
14472281188
14472287840
14472293578
14472298277
14472303771
14472308653
14472315428
14472320921
14472326476
14472333861
14472340697
14472347777
14472354552
14472363951
14472370543
14472376707
14472383665
14472390196
14472396056
14472401854
14472406737
14472412779
14472419066
14472424315
14472428709
14472432066
14472439573
14472443114
14472450621
14472454832
14472460325
14472464049
14472471617
14472475462
14472482542
14472487974
14472494688
14472499632
14472505735
14472510435
14472516600
14472519957
14472526854
14472532103
14472538450
14472543455
14472550657
14472554380
14472560423
14472566099
14472574339
14472580076
14472588072
14472592100
14472599424
14472605772
14472611204
14472615721
14472621214
14472625608
14472631590
14472636839
14472642210
14472647398
14472652342
14472655454
14472663450
14472667478
14472675352
14472680723
14472685667
14472689085
14472695066
14472700132
14472707151
14472710691
14472718076
14472721921
14472728330
14472732908
14472739011
14472744321
14472750425
14472755185
14472760740
14472768369
14472773313
14472777829
14472783811
14472787717
14472794065
14472800107
14472805722
14472812619
14472817807
14472822812
14472827756
14472833188
14472838254
14472844480
14472848935
14472856748
14472862180
14472866452
14472869748
14472877317
14472880857
14472887631
14472893247
14472902036
14472905759
14472915585
14472923520
14472928098
14472934873
14472944455
14472955319
14472964169
14472970456
14472974850
14472985532
14472991757
14472999142
14473004452
14473015317
14473023678
14473032223
14473039548
14473045712
14473054501
14473060788
14473068478
14473077816
14473084469
14473093441
14473099545
14473108578
14473115902
14473122738
14473131771
14473138058
14473142636
14473148190
14473153866
14473158078
14473163449
14473168209
14473177059
14473180722
14473189938
14473195065
14473199337
14473206722
14473212338
14473219540
14473225460
14473231625
14473236630
14473243221
14473249630
14473254269
14473261227
14473265865
14473272091
14473278316
14473284786
14473290768
14473296566
14473301693
14473307613
14473312374
14473318722
14473323604
14473330074
14473335811
14473342403
14473348568
14473355037
14473360592
14473367000
14473374508
14473380062
14473386959
14473390499
14473397518
14473402279
14473407711
14473413326
14473420284
14473424068
14473431331
14473435176
14473443355
14473449825
14473456356
14473462520
14473469539
14473475826
14473480525
14473485652
14473494258
14473500118
14473506099
14473511409
14473522884
14473529598
14473536739
14473545589
14473553279
14473559810
14473566890
14473571040
14473576472
14473581966
14473588313
14473593623
14473598994
14473605952
14473609431
14473615413
14473619075
14473628413
14473633967
14473638118
14473643245
14473649653
14473654414
14473661067
14473668391
14473673274
14473679316
14473684138
14473689937
14473696711
14473700984
14473705317
14473711604
14473716548
14473722773
14473728572
14473735713
14473742732
14473751704
14473759394
14473770442
14473775447
14473785578
14473794612
14473804316
14473811518
14473822688
14473831782
14473838984
14473845515
14473852961
14473861323
14473868403
14473877558
14473886896
14473893854
14473900507
14473907160
14473916865
14473924677
14473932368
14473941034
14473949396
14473958185
14473966059
14473974604
14473982355
14473990534
14473999445
14474007868
14474014887
14474022089
14474033686
14474038996
14474050226
14474055231
14474065912
14474070734
14474082636
14474091486
14474099481
14474106622
14474114679
14474125604
14474132562
14474143488
14474150201
14474160883
14474167657
14474177972
14474184808
14474197259
14474209222
14474222711
14474234613
14474241022
14474251031
14474261407
14474270379
14474279474
14474288018
14474295404
14474303643
14474312494
14474319085
14474329766
14474337274
14474344842
14474352349
14474360833
14474370050
14474378106
14474387017
14474394647
14474402154
14474410272
14474418878
14474427300
14474435235
14474441949
14474450860
14474457513
14474465630
14474475091
14474483025
14474490227
14474498284
14474505425
14474512993
14474520684
14474528496
14474537163
14474547661
14474554925
14474560784
14474568352
14474575249
14474583794
14474591362
14474600151
14474608574
14474616326
14474624993
14474633110
14474639885
14474649285
14474657952
14474665459
14474673821
14474682549
14474690239
14474695488
14474706474
14474713188
14474722893
14474731072
14474739372
14474744194
14474755486
14474765129
14474773125
14474779961
14474787834
14474796989
14474804802
14474811760
14474820061
14474829460
14474835502
14474843498
14474852104
14474859550
14474868278
14474876335
14474882988
14474891716
14474898552
14474907585
14474914360
14474923271
14474929863
14474940177
14474948844
14474957267
14474962394
14474974418
14474984550
14474993217
14475001640
14475011527
14475019462
14475028312
14475035392
14475040214
14475045402
14475050712
14475057792
14475061759
14475068534
14475073295
14475078910
14475083976
14475088920
14475093925
14475100150
14475105155
14475109916
14475114677
14475120353
14475124076
14475128531
14475133658
14475139335
14475144523
14475148490
14475154044
14475158194
14475164542
14475170096
14475174857
14475180289
14475184989
14475188529
14475192984
14475197745
14475202689
14475210013
14475213187
14475218741
14475223014
14475228263
14475232962
14475237418
14475241934
14475246634
14475251822
14475256766
14475261527
14475267569
14475274283
14475281180
14475290091
14475295279
14475304678
14475312125
14475319693
14475326773
14475334341
14475341727
14475347708
14475355338
14475364371
14475371512
14475377737
14475385245
14475391165
14475399222
14475405325
14475413626
14475420340
14475426382
14475432608
14475440481
14475446463
14475453665
14475458304
14475462210
14475467886
14475472586
14475477102
14475482168
14475486441
14475493032
14475497610
14475504751
14475508047
14475514151
14475518362
14475522940
14475527944
14475536123
14475541860
14475548208
14475554190
14475559622
14475566702
14475571157
14475577871
14475583181
14475590811
14475595754
14475600637
14475605093
14475610647
14475615957
14475621023
14475626272
14475631460
14475637258
14475643423
14475647329
14475653188
14475657583
14475661367
14475667043
14475670766
14475676504
14475682790
14475688283
14475692495
14475697195
14475702993
14475708242
14475712697
14475718557
14475722463
14475726247
14475733266
14475738393
14475743154
14475746877
14475751638
14475756582
14475761342
14475767019
14475774831
14475781850
14475786794
14475792897
14475798024
14475804921
14475811391
14475817922
14475824758
14475829763
14475835622
14475841786
14475845510
14475852651
14475855947
14475864491
14475869191
14475873952
14475880300
14475885854
14475890920
14475897511
14475904469
14475909230
14475916737
14475921193
14475929311
14475933522
14475939504
14475945546
14475950063
14475953358
14475960011
14475966603
14475971852
14475978627
14475983449
14475992726
14475998646
14476004079
14476008778
14476014454
14476020009
14476025685
14476029896
14476037098
14476041310
14476048695
14476053029
14476061268
14476068531
14476074086
14476081349
14476086720
14476095326
14476100514
14476106739
14476112843
14476120838
14476124501
14476131947
14476137684
14476142811
14476148915
14476154469
14476160084
14476165150
14476171314
14476176930
14476183460
14476187245
14476193714
14476199329
14476204090
14476210682
14476217274
14476223316
14476230701
14476239918
14476247120
14476255665
14476262989
14476271412
14476278614
14476287098
14476293507
14476302296
14476308399
14476318409
14476325916
14476335499
14476342823
14476350513
14476358753
14476366871
14476374012
14476379322
14476392261
14476403247
14476410694
14476415943
14476426807
14476433399
14476439258
14476445484
14476450733
14476458301
14476465442
14476470386
14476475330
14476481311
14476487354
14476493396
14476497974
14476505176
14476511096
14476516895
14476521289
14476527637
14476534045
14476539294
14476545642
14476547595
14476556018
14476559619
14476567187
14476573291
14476577746
14476582751
14476588733
14476594226
14476601794
14476607471
14476614612
14476620532
14476625842
14476633044
14476639880
14476645556
14476652636
14476657885
14476664782
14476669360
14476676745
14476681262
14476688220
14476694812
14476702136
14476709521
14476715319
14476723315
14476729968
14476736865
14476742480
14476746752
14476756396
14476763659
14476769213
14476773974
14476779101
14476783373
14476789111
14476794604
14476799670
14476806139
14476811694
14476816393
14476822131
14476826342
14476832262
14476838854
14476844103
14476849047
14476854174
14476861376
14476866747
14476870653
14476880114
14476884508
14476890307
14476895861
14476902392
14476907946
14476912523
14476918871
14476925646
14476930651
14476936937
14476943407
14476949633
14476956469
14476960375
14476967943
14476971911
14476979967
14476986742
14476992235
14476999498
14477004808
14477011583
14477016344
14477022264
14477027635
14477035021
14477039476
14477045946
14477049608
14477056810
14477060839
14477069505
14477075304
14477081835
14477087572
14477092333
14477100755
14477105943
14477112352
14477118639
14477125536
14477131395
14477137804
14477142442
14477149705
14477156236
14477160753
14477167223
14477172166
14477178270
14477185167
14477191087
14477197740
14477202379
14477207445
14477212877
14477218248
14477225816
14477229844
14477238633
14477243394
14477252183
14477257066
14477265855
14477274461
14477283372
14477293016
14477302171
14477311509
14477318101
14477328050
14477337510
14477345079
14477350938
14477360520
14477369859
14477377305
14477383653
14477389268
14477398667
14477406663
14477412766
14477417527
14477428819
14477437852
14477444260
14477451707
14477460313
14477464646
14477472459
14477478806
14477487290
14477491074
14477496934
14477501328
14477507004
14477512253
14477516587
14477521287
14477530198
14477533738
14477540513
14477544114
14477550522
14477555588
14477560715
14477565049
14477571640
14477576401
14477582566
14477587265
14477593186
14477598679
14477603257
14477607773
14477615341
14477620407
14477626328
14477631089
14477634995
14477643173
14477647873
14477652451
14477657822
14477664780
14477669174
14477674790
14477678574
14477687302
14477691025
14477696884
14477701889
14477707626
14477714401
14477719955
14477724350
14477730759
14477734909
14477740646
14477746750
14477751266
14477759018
14477765182
14477769394
14477774826
14477779098
14477782638
14477791061
14477797836
14477805771
14477808090
14477816330
14477821823
14477826339
14477831527
14477837143
14477840805
14477848617
14477854355
14477860031
14477865951
14477870041
14477874740
14477881393
14477886947
14477893112
14477898483
14477905929
14477911850
14477918991
14477925033
14477933029
14477940292
14477946273
14477952194
14477960311
14477964095
14477970382
14477974410
14477980880
14477986007
14477994613
14478000289
14478004989
14478010909
14478015487
14478021224
14478025436
14478031051
14478037643
14478042586
14478047408
14478051192
14478058944
14478062850
14478070907
14478074386
14478082870
14478087386
14478097030
14478103316
14478108748
14478115523
14478121261
14478124740
14478137252
14478143721
14478148177
14478153365
14478159591
14478164901
14478169539
14478175948
14478180770
14478186873
14478191024
14478196639
14478201461
14478206282
14478212081
14478217635
14478223983
14478229537
14478235518
14478240157
14478246504
14478251509
14478256880
14478261641
14478268660
14478275435
14478281722
14478287825
14478293746
14478298384
14478305281
14478310103
14478317732
14478323042
14478331648
14478340315
14478347761
14478355513
14478363142
14478371260
14478379683
14478384444
14478394087
14478400984
14478409651
14478417708
14478424299
14478430891
14478441267
14478447920
14478461409
14478468855
14478484236
14478491377
14478507368
14478516645
14478525190
14478533125
14478542402
14478549116
14478557600
14478561933
14478571516
14478575849
14478587202
14478593244
14478597944
14478604170
14478611189
14478617353
14478621259
14478629133
14478632856
14478638044
14478643903
14478649274
14478654035
14478660871
14478665266
14478671308
14478678205
14478682905
14478688886
14478694196
14478698347
14478704206
14478709638
14478715314
14478721662
14478726301
14478731672
14478736860
14478742353
14478748029
14478753888
14478759382
14478764814
14478769880
14478774091
14478780194
14478784345
14478790204
14478795270
14478798566
14478806195
14478809980
14478818158
14478821881
14478828961
14478833905
14478840009
14478845502
14478851056
14478857343
14478862836
14478867291
14478873822
14478880170
14478884747
14478890729
14478896832
14478903180
14478906781
14478915509
14478922406
14478927350
14478933636
14478941632
14478947308
14478955609
14478961163
14478966107
14478971661
14478977460
14478983868
14478988202
14478995160
14479001629
14479007123
14479013592
14479018170
14479024579
14479029095
14479035260
14479041668
14479046551
14479053631
14479057049
14479064984
14479068646
14479076092
14479079998
14479087628
14479092511
14479098248
14479103192
14479109417
14479116497
14479121990
14479128460
14479135906
14479141339
14479146710
14479155194
14479162029
14479167889
14479175701
14479181927
14479187969
14479196270
14479203594
14479211468
14479217510
14479222881
14479228985
14479234112
14479240765
14479245953
14479252056
14479257244
14479263103
14479267986
14479274578
14479279705
14479285503
14479290935
14479298076
14479303203
14479310039
14479315288
14479320965
14479326092
14479332927
14479338787
14479345318
14479348980
14479355449
14479358806
14479366558
14479371624
14479376812
14479380535
14479389934
14479393840
14479402813
14479406536
14479414531
14479420940
14479426982
14479435344
14479446514
14479453533
14479462139
14479468120
14479478801
14479485454
14479493694
14479499797
14479510356
14479519206
14479525005
14479534709
14479540507
14479547954
14479555705
14479563640
14479572490
14479580607
14479588908
14479598491
14479606364
14479613139
14479620463
14479631877
14479637858
14479644267
14479650676
14479656230
14479660685
14479669352
14479675578
14479680644
14479685771
14479692302
14479697551
14479703349
14479709147
14479713725
14479721476
14479726420
14479733866
14479738505
14479748088
14479752787
14479758586
14479762980
14479771830
14479777873
14479783244
14479787516
14479797282
14479804301
14479811381
14479820475
14479826334
14479832560
14479840311
14479848124
14479853068
14479858500
14479863627
14479868449
14479874125
14479880594
14479886515
14479892069
14479898112
14479903238
14479908671
14479916178
14479919779
14479926981
14479932474
14479939615
14479943827
14479950968
14479955790
14479960794
14479965616
14479971292
14479976358
14479983866
14479988871
14479995523
14480000284
14480007059
14480012796
14480019754
14480025980
14480031046
14480036356
14480039957
14480051126
14480054605
14480062113
14480067789
14480073099
14480079935
14480085794
14480089700
14480098184
14480104288
14480110757
14480116068
14480121317
14480126810
14480134195
14480139139
14480144754
14480151041
14480157144
14480163064
14480166788
14480174844
14480179605
14480188089
14480193460
14480200723
14480206704
14480213113
14480218973
14480223367
14480229837
14480235147
14480240640
14480247781
14480252603
14480258645
14480264749
14480271218
14480276712
14480280740
14480289041
14480296487
14480301919
14480308206
14480313150
14480320169
14480324990
14480328652
14480337197
14480341104
14480349832
14480355142
14480361611
14480366982
14480372720
14480378335
14480385537
14480391518
14480396157
14480402139
14480411599
14480417092
14480423745
14480429421
14480435769
14480441384
14480451150
14480459878
14480466103
14480471963
14480477090
14480484963
14480489480
14480495400
14480499550
14480505593
14480510903
14480519692
14480525673
14480534768
14480542824
14480550820
14480557228
14480566079
14480573098
14480579750
14480587319
14480594826
14480600014
14480608132
14480616249
14480624245
14480630715
14480639137
14480645363
14480653725
14480660317
14480670509
14480677773
14480687599
14480692543
14480701881
14480708656
14480715736
14480720741
14480729469
14480735268
14480741310
14480744972
14480751564
14480756630
14480761391
14480767616
14480775795
14480781898
14480788429
14480793922
14480800209
14480805275
14480811683
14480816566
14480823463
14480831520
14480836769
14480842262
14480847572
14480851234
14480857399
14480860756
14480869361
14480872963
14480879615
14480885475
14480889564
14480895179
14480901222
14480906288
14480911842
14480917762
14480923683
14480926856
14480932899
14480937354
14480943092
14480947852
14480957862
14480966224
14480971717
14480975257
14480982826
14480986610
14480994300
14480999732
14481007606
14481012244
14481018165
14481023841
14481029273
14481036780
14481043800
14481048682
14481056617
14481065528
14481070045
14481077125
14481082679
14481089515
14481094947
14481100135
14481105445
14481110999
14481114783
14481119788
14481124793
14481130103
14481133826
14481139075
14481144202
14481149573
14481155249
14481160437
14481164588
14481170020
14481176123
14481181739
14481190222
14481195594
14481202063
14481208411
14481212561
14481218177
14481222754
14481228919
14481235633
14481240759
14481245032
14481250708
14481256629
14481262366
14481268225
14481273840
14481279822
14481284399
14481291052
14481295081
14481300940
14481305029
14481308752
14481317419
14481323706
14481327734
14481334143
14481338293
14481344397
14481349036
14481355139
14481361365
14481366858
14481371069
14481376440
14481382483
14481388281
14481393835
14481399206
14481405737
14481412207
14481416845
14481422705
14481427160
14481432654
14481438391
14481444677
14481449377
14481456640
14481460974
14481467138
14481471899
14481478491
14481483129
14481488256
14481498266
14481504797
14481509313
14481512731
14481521948
14481525915
14481533544
14481537573
14481545934
14481555944
14481561804
14481570715
14481578588
14481585668
14481591589
14481602453
14481608251
14481618932
14481629125
14481638158
14481646947
14481653600
14481664098
14481671300
14481684301
14481691076
14481698034
14481705114
14481712926
14481720189
14481728490
14481735570
14481741369
14481748632
14481754064
14481758947
14481763707
14481771398
14481775731
14481783178
14481787023
14481793126
14481798558
14481804601
14481808324
14481817357
14481823094
14481828649
14481834203
14481839696
14481845006
14481850194
14481856481
14481863683
14481869054
14481875340
14481880467
14481887975
14481892430
14481898106
14481903966
14481910741
14481917271
14481923192
14481929478
14481934239
14481940160
14481944432
14481951451
14481955052
14481962193
14481968175
14481974888
14481978978
14481986119
14481990086
14481996800
14482002476
14482008946
14482013585
14482021397
14482026951
14482031041
14482037266
14482043004
14482048436
14482057286
14482063023
14482069249
14482074192
14482079747
14482085423
14482091404
14482095921
14482103794
14482109043
14482115818
14482121067
14482125523
14482133640
14482139561
14482145970
14482149326
14482158909
14482166111
14482170994
14482176975
14482183811
14482188450
14482195713
14482199619
14482209324
14482216709
14482223057
14482228489
14482234226
14482242039
14482246860
14482250645
14482259983
14482268833
14482273594
14482281345
14482285923
14482293064
14482298069
14482306064
14482312290
14482317478
14482321628
14482327732
14482333530
14482338779
14482342807
14482349582
14482355686
14482360508
14482364658
14482370822
14482375339
14482381382
14482387119
14482393039
14482398044
14482404209
14482409458
14482415073
14482419284
14482425510
14482430210
14482436435
14482443942
14482450717
14482456455
14482461032
14482466892
14482473483
14482478305
14482481662
14482490268
14482494357
14482501498
14482505099
14482514621
14482518161
14482524997
14482531161
14482539157
14482544040
14482552157
14482557590
14482563876
14482568881
14482574801
14482579806
14482586398
14482590915
14482597629
14482602694
14482608615
14482614474
14482620639
14482628512
14482633090
14482646334
14482655246
14482661044
14482670382
14482676303
14482685519
14482691561
14482701083
14482710116
14482720187
14482724642
14482734957
14482742159
14482749850
14482757845
14482767062
14482775485
14482781954
14482790499
14482794650
14482804964
14482809542
14482818270
14482826083
14482831209
14482836153
14482843172
14482848299
14482852389
14482858370
14482864351
14482871859
14482880099
14482885836
14482892916
14482899508
14482906283
14482914461
14482921846
14482929537
14482935640
14482939913
14482946260
14482950411
14482959017
14482964449
14482969088
14482974459
14482978975
14482985262
14482990145
14482997103
14483001924
14483008028
14483013521
14483018709
14483024080
14483029390
14483034212
14483040743
14483047456
14483051851
14483057405
14483063020
14483068758
14483074495
14483079256
14483084749
14483090242
14483094392
14483099519
14483105074
14483109651
14483116487
14483122163
14483128084
14483135713
14483141145
14483146333
14483152803
14483157319
14483163911
14483168977
14483176118
14483181550
14483186860
14483192903
14483198701
14483202791
14483209993
14483215608
14483222627
14483230073
14483234590
14483241243
14483247651
14483251802
14483258271
14483261750
14483269990
14483276094
14483282930
14483286531
14483293428
14483298493
14483304841
14483310456
14483318147
14483323762
14483331452
14483336457
14483342500
14483347138
14483352631
14483357331
14483363557
14483367768
14483376008
14483381989
14483386201
14483391755
14483397431
14483402802
14483409150
14483416230
14483421235
14483427399
14483432831
14483438630
14483443635
14483451386
14483459809
14483465546
14483476655
14483481659
14483487702
14483494782
14483500458
14483506379
14483511872
14483516694
14483521271
14483528290
14483531830
14483538849
14483543305
14483549897
14483555085
14483560456
14483564911
14483570465
14483576325
14483581024
14483587311
14483593781
14483598908
14483605927
14483610626
14483615082
14483621247
14483626251
14483632172
14483636688
14483642609
14483647247
14483654755
14483662140
14483667633
14483675751
14483684479
14483693085
14483699554
14483709747
14483717255
14483724762
14483732208
14483739777
14483746979
14483755401
14483762482
14483772003
14483776581
14483787018
14483791534
14483801056
14483809051
14483817291
14483834442
14483841644
14483847931
14483852386
14483860260
14483866363
14483872833
14483881195
14483886199
14483891998
14483894866
14483906524
14483913421
14483918182
14483924957
14483929473
14483936065
14483942535
14483944549
14483953521
14483957610
14483965667
14483971404
14483975982
14483982208
14483987090
14483993316
14483998870
14484003936
14484010894
14484017303
14484026702
14484030425
14484037810
14484043853
14484049590
14484054778
14484061858
14484066985
14484074798
14484080657
14484088592
14484092925
14484101226
14484110808
14484115447
14484123992
14484129912
14484140776
14484145415
14484148833
14484155974
14484160369
14484166045
14484170195
14484175322
14484179412
14484185332
14484189727
14484195769
14484200530
14484204497
14484208037
14484212981
14484216887
14484221709
14484227080
14484232390
14484237151
14484242522
14484247649
14484252532
14484256560
14484261260
14484264128
14484273222
14484278960
14484284209
14484289397
14484294341
14484298735
14484303557
14484306914
14484313567
14484318877
14484323698
14484327788
14484333037
14484335905
14484342924
14484348356
14484354155
14484357939
14484364165
14484369475
14484373686
14484378325
14484384367
14484388945
14484398527
14484402311
14484409208
14484413664
14484419584
14484423857
14484429655
14484434050
14484440336
14484444609
14484450407
14484455656
14484460783
14484466642
14484471342
14484476652
14484480680
14484487882
14484493742
14484498258
14484503568
14484509184
14484513700
14484521635
14484527738
14484534208
14484539518
14484546476
14484552641
14484557462
14484563932
14484569059
14484575590
14484583768
14484589872
14484595914
14484601347
14484606046
14484612699
14484618253
14484625944
14484631315
14484639554
14484644926
14484651151
14484654935
14484663358
14484670682
14484678739
14484684903
14484690397
14484697110
14484704435
14484710477
14484716337
14484725187
14484732511
14484741849
14484746610
14484756742
14484761808
14484771512
14484779203
14484787015
14484793302
14484801419
14484809293
14484815763
14484823819
14484830960
14484839749
14484846219
14484854215
14484860440
14484864957
14484869595
14484877347
14484881558
14484891263
14484896695
14484902798
14484909085
14484914334
14484919034
14484923306
14484930936
14484934476
14484942776
14484947842
14484954007
14484959805
14484966458
14484968655
14484979336
14484983914
14484989651
14484993130
14484999295
14485005887
14485010830
14485016507
14485024136
14485028408
14485035489
14485040493
14485046475
14485052700
14485057339
14485063443
14485069363
14485076382
14485078579
14485087734
14485092190
14485098782
14485102627
14485110928
14485114651
14485122891
14485126797
14485133938
14485139797
14485148037
14485153591
14485158657
14485163845
14485171230
14485178066
14485183437
14485188015
14485194424
14485200527
14485207302
14485212185
14485218227
14485225063
14485229092
14485237209
14485242946
14485249904
14485256740
14485261806
14485268398
14485275661
14485283230
14485290066
14485295315
14485302395
14485307644
14485314663
14485319790
14485326625
14485331813
14485338222
14485343471
14485350673
14485355251
14485361904
14485367458
14485374904
14485380153
14485387477
14485392787
14485398464
14485404445
14485410060
14485415004
14485422878
14485429592
14485434291
14485439418
14485445400
14485449489
14485454982
14485460658
14485465114
14485474757
14485481227
14485485866
14485491725
14485497707
14485501186
14485509303
14485512843
14485523585
14485527492
14485534450
14485539943
14485545192
14485550197
14485556849
14485561854
14485567714
14485574977
14485581202
14485588588
14485594447
14485599818
14485605922
14485610438
14485616908
14485623805
14485629725
14485634425
14485640101
14485645900
14485651637
14485657984
14485663417
14485669947
14485675013
14485680873
14485685755
14485692225
14485696009
14485703456
14485706996
14485715052
14485720667
14485727320
14485732630
14485739954
14485747340
14485757777
14485765528
14485776637
14485781886
14485790980
14485798487
14485808070
14485815516
14485823572
14485830225
14485839869
14485846644
14485856348
14485862818
14485872339
14485879542
14485884730
14485898096
14485903528
14485915979
14485925928
14485933069
14485942408
14485952539
14485960901
14485967493
14485971338
14485979822
14485983728
14485991052
14485995203
14486002161
14486007349
14486014124
14486017969
14486026758
14486030969
14486037866
14486042688
14486049280
14486053796
14486061426
14486066370
14486073084
14486077844
14486083887
14486090234
14486094812
14486101831
14486106164
14486114282
14486118188
14486125146
14486131494
14486137781
14486142969
14486148950
14486154870
14486161340
14486166162
14486172571
14486178308
14486181787
14486190820
14486194543
14486201623
14486208825
14486213647
14486220117
14486228540
14486232995
14486239587
14486244226
14486251489
14486257165
14486262536
14486269067
14486274621
14486280969
14486287499
14486294091
14486299523
14486305444
14486311303
14486317285
14486319238
14486329369
14486336144
14486341821
14486343957
14486351891
14486355737
14486364343
14486367822
14486376061
14486382104
14486387414
14486392907
14486399255
14486406090
14486412194
14486418359
14486424096
14486431603
14486438012
14486445763
14486451623
14486457055
14486464318
14486470116
14486476403
14486484765
14486491417
14486499291
14486506188
14486511559
14486521996
14486530785
14486538353
14486545494
14486548607
14486562767
14486570214
14486580529
14486586876
14486597801
14486606163
14486609642
14486622337
14486628624
14486641625
14486660423
14486667992
14486676598
14486683678
14486690208
14486695641
14486702782
14486710045
14486717491
14486722496
14486728660
14486734093
14486739403
14486743614
14486750877
14486756248
14486762413
14486767967
14486769737
14486777488
14486783470
14486789329
14486794029
14486801048
14486807029
14486811241
14486817711
14486822837
14486829307
14486833885
14486839439
14486847251
14486851402
14486858238
14486863365
14486870079
14486875144
14486881736
14486887168
14486892723
14486899436
14486903831
14486910423
14486915550
14486920066
14486926414
14486931175
14486935569
14486946250
14486954124
14486962669
14486972251
14486979209
14486988853
14486998435
14487007468
14487013999
14487022727
14487032432
14487040183
14487046897
14487056907
14487063559
14487072288
14487079368
14487088157
14487096702
14487103110
14487111472
14487119834
14487126914
14487134299
14487145285
14487152426
14487159018
14487164267
14487169394
14487174582
14487182883
14487187705
14487193564
14487200461
14487207114
14487212851
14487219016
14487223654
14487227194
14487234763
14487239218
14487246298
14487252524
14487259421
14487263266
14487270041
14487276205
14487283102
14487289389
14487296103
14487302756
14487308798
14487315268
14487323324
14487329916
14487337729
14487344198
14487349508
14487356344
14487362814
14487366293
14487372397
14487378378
14487384787
14487389608
14487396139
14487402182
14487407064
14487412436
14487418844
14487423971
14487431112
14487435568
14487441366
14487446310
14487453207
14487458212
14487464743
14487469320
14487472982
14487483175
14487486837
14487506552
14487513143
14487517477
14487522848
14487528707
14487534322
14487540182
14487545431
14487551107
14487555746
14487561605
14487566854
14487571432
14487577535
14487584920
14487591451
14487595968
14487602438
14487609090
14487614339
14487619955
14487624166
14487631063
14487636251
14487643575
14487647542
14487654317
14487658529
14487666524
14487671895
14487677877
14487683309
14487690633
14487696615
14487701619
14487707662
14487709676
14487720357
14487726400
14487732076
14487739156
14487745015
14487749166
14487756490
14487760640
14487769063
14487773091
14487779500
14487784444
14487790364
14487795613
14487803548
14487808248
14487813985
14487819600
14487824239
14487832539
14487837483
14487842793
14487846455
14487856038
14487860555
14487867696
14487872762
14487879170
14487885640
14487891804
14487899068
14487907246
14487912984
14487917317
14487925069
14487932881
14487943562
14487949788
14487952717
14487961567
14487967366
14487972127
14487976765
14487983418
14487988179
14487993916
14487998799
14488003193
14488006794
14488015767
14488019368
14488027363
14488030781
14488037068
14488042439
14488049153
14488057087
14488065022
14488069844
14488079121
14488085713
14488093769
14488100666
14488107807
14488116230
14488123310
14488129536
14488138935
14488147724
14488154255
14488162983
14488169941
14488176411
14488185566
14488192402
14488202656
14488209492
14488220295
14488226703
14488235187
14488241291
14488246967
14488257648
14488264057
14488269123
14488275898
14488281879
14488289386
14488293293
14488300129
14488305988
14488311298
14488316974
14488323932
14488330097
14488335407
14488341877
14488347736
14488353900
14488360797
14488366474
14488373249
14488379291
14488384174
14488390582
14488396503
14488401569
14488407550
14488414020
14488419086
14488424030
14488430621
14488436725
14488442523
14488447711
14488454486
14488461993
14488466510
14488471271
14488478473
14488484088
14488490314
14488495257
14488502277
14488509418
14488514850
14488521625
14488527484
14488533038
14488538836
14488544635
14488553241
14488559344
14488567401
14488576556
14488583941
14488590228
14488596942
14488602252
14488608844
14488613848
14488620196
14488624835
14488629779
14488635943
14488640948
14488646868
14488652667
14488659075
14488665301
14488670245
14488675982
14488680499
14488686236
14488691546
14488697833
14488702593
14488708880
14488714739
14488719683
14488723773
14488729449
14488735247
14488742327
14488747515
14488754412
14488760027
14488762041
14488771258
14488775347
14488782610
14488787066
14488795977
14488800738
14488807329
14488810808
14488820025
14488823687
14488831499
14488835345
14488845720
14488852801
14488857988
14488863909
14488871904
14488877520
14488882830
14488888079
14488895403
14488901140
14488907610
14488912798
14488919268
14488924273
14488930681
14488935625
14488940874
14488947344
14488954180
14488958940
14488965898
14488973589
14488979143
14488984636
14488991838
14488996660
14489002336
14489007707
14489015276
14489021745
14489028703
14489033952
14489039385
14489045305
14489051897
14489057024
14489062761
14489067522
14489074968
14489079729
14489083452
14489092485
14489094621
14489105180
14489109148
14489116228
14489120439
14489128068
14489133439
14489139543
14489146013
14489153337
14489160783
14489172319
14489179094
14489188432
14489195512
14489201371
14489215409
14489228044
14489235734
14489246293
14489253739
14489260392
14489269914
14489277421
14489283952
14489293656
14489300370
14489309953
14489316605
14489326493
14489332963
14489338212
14489349564
14489354935
14489365250
14489371293
14489377030
14489382401
14489388993
14489393876
14489401566
14489406266
14489412186
14489421891
14489429215
14489435013
14489443131
14489448014
14489450089
14489459488
14489463883
14489470658
14489476883
14489483963
14489491105
14489497147
14489504166
14489509598
14489515946
14489521378
14489525406
14489533768
14489537491
14489544266
14489550675
14489558548
14489562882
14489569596
14489575028
14489579788
14489583512
14489591019
14489597122
14489604935
14489608963
14489615372
14489620804
14489628128
14489634659
14489639664
14489644791
14489651382
14489657852
14489662735
14489667557
14489673843
14489681351
14489686539
14489691299
14489694900
14489704788
14489708450
14489717117
14489721878
14489727676
14489732986
14489739700
14489746048
14489753921
14489759231
14489765762
14489770584
14489777115
14489783889
14489786148
14489794632
14489801345
14489806594
14489810379
14489818130
14489822341
14489829849
14489835586
14489842544
14489846511
14489853591
14489860061
14489867446
14489871292
14489878677
14489883132
14489892288
14489898025
14489905715
14489911147
14489917800
14489923110
14489929580
14489934341
14489939956
14489945693
14489953262
14489959060
14489965408
14489970412
14489977126
14489982619
14489988113
14489992507
14489998366
14490004287
14490008742
14490013747
14490021071
14490026870
14490031753
14490037978
14490042129
14490051650
14490055373
14490064711
14490068618
14490074721
14490081435
14490087600
14490092849
14490097976
14490103530
14490109450
14490115065
14490122634
14490129287
14490134902
14490141249
14490147536
14490153151
14490159316
14490164626
14490171279
14490177077
14490182997
14490189284
14490194350
14490201369
14490205763
14490212660
14490217909
14490223158
14490230238
14490234938
14490242323
14490246962
14490253371
14490259291
14490263197
14490271132
14490277541
14490285475
14490292799
14490303053
14490310255
14490317885
14490325148
14490333571
14490342848
14490350111
14490356581
14490367323
14490373976
14490384047
14490390944
14490400282
14490406874
14490412062
14490424147
14490429090
14490439772
14490444960
14490456190
14490464918
14490471998
14490479322
14490487928
14490495191
14490501722
14490506971
14490513990
14490522718
14490528700
14490536390
14490542188
14490550550
14490556104
14490564161
14490569959
14490578382
14490580762
14490588514
14490591993
14490599317
14490604993
14490609632
14490616407
14490621717
14490628126
14490632581
14490637403
14490644239
14490647718
14490655835
14490661512
14490666517
14490669996
14490676221
14490682142
14490689466
14490695325
14490702527
14490708814
14490714368
14490719190
14490727002
14490731824
14490737500
14490743604
14490749585
14490755323
14490761731
14490766370
14490770032
14490778333
14490784619
14490790723
14490795972
14490801770
14490807202
14490814526
14490819287
14490824841
14490830579
14490837659
14490843579
14490847241
14490855481
14490860120
14490867383
14490871106
14490879101
14490883008
14490890942
14490896802
14490902722
14490907544
14490915112
14490919812
14490925122
14490932141
14490937512
14490944714
14490949841
14490955090
14490962536
14490967419
14490973156
14490977978
14490983960
14490990490
14490997387
14491002942
14491008801
14491013562
14491020398
14491026440
14491031445
14491036633
14491043713
14491049877
14491054638
14491061962
14491067089
14491073315
14491078320
14491085461
14491091381
14491097057
14491102917
14491108532
14491116345
14491122021
14491129162
14491134533
14491138989
14491149120
14491156994
14491163341
14491171032
14491177074
14491183727
14491190929
14491195324
14491204235
14491209057
14491213817
14491219982
14491226818
14491231457
14491237377
14491242565
14491248058
14491251354
14491260509
14491267040
14491271557
14491277050
14491282482
14491286266
14491295665
14491301220
14491307933
14491312450
14491318004
14491323131
14491330028
14491334728
14491343456
14491350292
14491355785
14491360973
14491366161
14491371532
14491377574
14491384288
14491389537
14491394481
14491400462
14491407054
14491413707
14491420177
14491424876
14491431285
14491433177
14491442882
14491448558
14491454295
14491460399
14491464915
14491468394
14491477916
14491481334
14491490733
14491494517
14491502147
14491505748
14491512462
14491517650
14491526195
14491531871
14491537364
14491544444
14491549693
14491555919
14491561290
14491565867
14491571971
14491578379
14491584605
14491591868
14491597483
14491602122
14491608165
14491613169
14491619578
14491625499
14491629893
14491636973
14491643687
14491649546
14491653697
14491660288
14491666575
14491671031
14491676402
14491686106
14491690074
14491697337
14491701304
14491709361
14491713084
14491719004
14491725962
14491732005
14491737803
14491745921
14491751536
14491756663
14491763438
14491769297
14491774790
14491782114
14491790232
14491800120
14491807139
14491814402
14491820383
14491824595
14491831003
14491838267
14491843149
14491848520
14491854380
14491860422
14491865122
14491870920
14491877329
14491883616
14491889597
14491893869
14491900400
14491906321
14491910410
14491915903
14491919138
14491928354
14491934885
14491940500
14491945749
14491951609
14491955454
14491961801
14491967600
14491973337
14491979257
14491983713
14491987253
14491995249
14492001535
14492007456
14492011118
14492020883
14492024973
14492031503
14492036935
14492044015
14492048776
14492055673
14492061044
14492067026
14492073740
14492079782
14492084848
14492090402
14492095712
14492102365
14492108285
14492113351
14492120798
14492127145
14492133127
14492138803
14492143564
14492150033
14492154428
14492161874
14492167733
14492173715
14492178476
14492184030
14492189523
14492194894
14492200387
14492206247
14492212411
14492218881
14492223764
14492229745
14492234384
14492241036
14492244393
14492252084
14492258554
14492264413
14492269418
14492274789
14492279550
14492285043
14492288949
14492297433
14492305001
14492310189
14492316659
14492321725
14492328011
14492333688
14492342965
14492349252
14492357919
14492363595
14492370248
14492375436
14492382394
14492387887
14492396248
14492401742
14492409371
14492414986
14492420785
14492424386
14492431771
14492435616
14492442879
14492449532
14492454049
14492460701
14492465950
14492470101
14492476021
14492479500
14492488655
14492492623
14492499581
14492502694
14492510323
14492513314
14492521675
14492525338
14492533699
14492540352
14492544686
14492550240
14492554878
14492559456
14492565560
14492570015
14492576241
14492581307
14492588020
14492593147
14492598518
14492603645
14492608345
14492614143
14492619270
14492626595
14492632698
14492637581
14492643440
14492647957
14492652901
14492656929
14492664925
14492672066
14492677071
14492681160
14492686958
14492693428
14492696052
14492704719
14492710029
14492715828
14492722053
14492726509
14492732490
14492737007
14492740608
14492747810
14492752083
14492759651
14492766670
14492771003
14492777839
14492783271
14492787483
14492792793
14492798774
14492804878
14492811042
14492815498
14492820930
14492826728
14492831916
14492835945
14492840278
14492849006
14492854743
14492860908
14492866645
14492872260
14492875984
14492883369
14492886482
14492897529
14492902717
14492908698
14492915290
14492920112
14492927802
14492933051
14492939216
14492946784
14492953559
14492963142
14492968635
14492974372
14492979377
14492985419
14492990241
14492997565
14493001349
14493007941
14493013312
14493017585
14493022773
14493028815
14493034675
14493039985
14493045173
14493050605
14493052375
14493060065
14493065131
14493071418
14493077338
14493083503
14493089057
14493093390
14493099616
14493103827
14493110602
14493115790
14493122138
14493127326
14493133246
14493137885
14493145087
14493150275
14493156256
14493163397
14493169074
14493174323
14493180121
14493185065
14493192450
14493196295
14493204718
14493208624
14493216498
14493221075
14493227118
14493233221
14493239447
14493245123
14493249518
14493256964
14493263373
14493269354
14493275091
14493278937
14493285162
14493291144
14493296515
14493303717
14493308844
14493314520
14493320074
14493324835
14493331244
14493336249
14493342413
14493348028
14493354315
14493359259
14493363348
14493369940
14493374090
14493381231
14493386114
14493392889
14493397528
14493402227
14493408636
14493414007
14493418280
14493425115
14493432012
14493437750
14493442449
14493448492
14493454534
14493459783
14493467352
14493474615
14493480718
14493487676
14493495062
14493502813
14493509466
14493516302
14493518743
14493528326
14493534978
14493539129
14493545476
14493551519
14493557378
14493562505
14493567632
14493573247
14493578252
14493582708
14493588567
14493595342
14493600957
14493605413
14493608831
14493617559
14493624761
14493630498
14493638433
14493643865
14493649663
14493653814
14493659734
14493665288
14493670903
14493675054
14493681218
14493686528
14493692449
14493697576
14493702886
14493708623
14493713262
14493719426
14493724126
14493729985
14493736028
14493740788
14493744390
14493752141
14493756291
14493762090
14493765752
14493772160
14493777593
14493784306
14493789250
14493795232
14493800725
14493807561
14493812505
14493816960
14493821721
14493829045
14493834111
14493839055
14493843449
14493849187
14493854863
14493860417
14493865910
14493873234
14493878056
14493881779
14493891240
14493895146
14493903081
14493909306
14493914677
14493920109
14493926274
14493932377
14493939335
14493944340
14493950810
14493955632
14493963322
14493969120
14493974064
14493980290
14493987126
14493992070
14493998478
14494003910
14494008000
14494016178
14494020024
14494026799
14494032658
14494039860
14494047123
14494052555
14494057316
14494064335
14494070622
14494077641
14494083073
14494089604
14494096989
14494099125
14494112614
14494120976
14494128849
14494133183
14494139896
14494147160
14494151676
14494158695
14494161930
14494168461
14494174381
14494180424
14494185917
14494192570
14494197880
14494203922
14494209659
14494214176
14494220646
14494225162
14494231937
14494238407
14494242801
14494248600
14494253482
14494259586
14494265079
14494271061
14494276432
14494283023
14494288028
14494293582
14494300602
14494305545
14494311039
14494315982
14494320865
14494327030
14494333133
14494339725
14494345462
14494350772
14494355838
14494363834
14494368656
14494374942
14494380252
14494386905
14494391849
14494397952
14494402896
14494406741
14494414798
14494421817
14494427371
14494432681
14494438602
14494444095
14494451968
14494457889
14494464419
14494469852
14494476382
14494481937
14494488711
14494494632
14494500308
14494504825
14494508243
14494517032
14494520450
14494530642
14494535525
14494541690
14494545108
14494552127
14494557132
14494563601
14494569217
14494577029
14494580813
14494588687
14494592288
14494599673
14494605410
14494609500
14494612857
14494621585
14494628421
14494634524
14494640444
14494646243
14494651187
14494658267
14494663821
14494671023
14494680666
14494684390
14494693545
14494697512
14494705752
14494712161
14494719607
14494723391
14494731142
14494734316
14494740786
14494745364
14494750979
14494755923
14494764040
14494769045
14494775393
14494780092
14494786196
14494790774
14494796633
14494801699
14494810061
14494813845
14494821230
14494826235
14494831484
14494836001
14494841555
14494847475
14494854311
14494858156
14494866152
14494871706
14494877321
14494880556
14494887697
14494893068
14494899965
14494905031
14494911196
14494916078
14494921327
14494929506
14494934511
14494938967
14494945314
14494953981
14494960878
14494967226
14494974733
14494979311
14494985597
14494992189
14495000185
14495005678
14495012880
14495018800
14495023500
14495029481
14495034181
14495038698
14495046022
14495052736
14495059328
14495065553
14495071229
14495075746
14495079835
14495087526
14495091005
14495100404
14495104127
14495110841
14495116395
14495121827
14495127199
14495134218
14495139344
14495146058
14495151368
14495159486
14495163026
14495170594
14495176759
14495181214
14495187562
14495194032
14495199098
14495205018
14495210023
14495216065
14495222840
14495228883
14495234071
14495239564
14495246400
14495251710
14495258302
14495266480
14495273621
14495279176
14495285828
14495293519
14495299439
14495305848
14495312196
14495319154
14495322755
14495330384
14495333131
14495343568
14495348023
14495353699
14495359559
14495365296
14495370850
14495375611
14495380921
14495386597
14495392884
14495398865
14495402283
14495410157
14495415711
14495420899
14495424256
14495432129
14495435730
14495443360
14495447205
14495453675
14495457703
14495463379
14495466797
14495475403
14495480957
14495486756
14495490052
14495497559
14495500611
14495508911
14495515198
14495522339
14495526428
14495534119
14495537293
14495544800
14495548401
14495554260
14495561340
14495567627
14495575317
14495582581
14495587402
14495596314
14495600891
14495607361
14495610413
14495619812
14495624451
14495635498
14495643005
14495649414
14495655395
14495662292
14495668335
14495674011
14495678650
14495683716
14495688232
14495692688
14495697204
14495701538
14495707458
14495711792
14495717834
14495722839
14495727905
14495732788
14495737365
14495742004
14495748169
14495752563
14495757568
14495761840
14495766784
14495770385
14495777160
14495781555
14495786926
14495792541
14495797485
14495801635
14495806579
14495811645
14495816711
14495818359
14495827514
14495833984
14495837585
14495845275
14495849853
14495856994
14495862182
14495869140
14495875488
14495881591
14495886535
14495891601
14495895263
14495900512
14495904357
14495909484
14495914916
14495920959
14495926147
14495931701
14495937072
14495942687
14495947143
14495953124
14495958434
14495962218
14495966979
14495971984
14495976745
14495981689
14495986266
14495991637
14495996764
14496001647
14496006286
14496011229
14496014098
14496021361
14496024657
14496033690
14496039672
14496045470
14496048705
14496056273
14496059996
14496067076
14496072020
14496079406
14496082885
14496089659
14496094969
14496099425
14496104247
14496110655
14496115538
14496123168
14496130126
14496135863
14496141478
14496146300
14496150939
14496157042
14496161559
14496166625
14496172972
14496179198
14496183836
14496189757
14496196227
14496203734
14496208739
14496215575
14496220518
14496226073
14496231932
14496236388
14496241881
14496246947
14496252623
14496259337
14496264159
14496272337
14496277159
14496283568
14496288145
14496291563
14496299620
14496305540
14496311705
14496318907
14496323179
14496326780
14496334471
14496338133
14496347166
14496350584
14496360044
14496363890
14496371092
14496376219
14496382139
14496388304
14496395933
14496401609
14496407835
14496416136
14496426267
14496432493
14496438719
14496444883
14496449339
14496456663
14496463438
14496469541
14496474180
14496480283
14496484373
14496491026
14496495298
14496501279
14496505674
14496512144
14496516294
14496522092
14496528257
14496534360
14496538877
14496545469
14496551633
14496557004
14496563108
14496568601
14496574644
14496576719
14496584897
14496591245
14496597776
14496603879
14496609983
14496615171
14496621030
14496625608
14496633115
14496636655
14496645078
14496651670
14496657407
14496660825
14496666990
14496672116
14496679441
14496684629
14496691220
14496698300
14496704831
14496709836
14496715268
14496722104
14496727414
14496731931
14496736020
14496744565
14496750058
14496756406
14496762448
14496768369
14496773801
14496778378
14496782040
14496790707
14496794736
14496801877
14496808347
14496813351
14496818356
14496824216
14496829282
14496835934
14496841977
14496849789
14496855221
14496860776
14496865658
14496872250
14496878964
14496886960
14496892453
14496900082
14496904660
14496911801
14496918332
14496923520
14496928219
14496934079
14496941525
14496946225
14496953305
14496957150
14496965451
14496971432
14496976071
14496983273
14496991391
14496996212
14497005001
14497008847
14497018307
14497024716
14497031796
14497036007
14497048214
14497053036
14497059506
14497062740
14497069149
14497073666
14497079952
14497085018
14497091976
14497098019
14497104305
14497107540
14497114864
14497119503
14497124569
14497129513
14497136593
14497141476
14497148495
14497153622
14497159115
14497164364
14497170345
14497176571
14497181026
14497187008
14497193172
14497197567
14497203731
14497211971
14497216549
14497222408
14497232906
14497239742
14497245906
14497251522
14497257930
14497262630
14497268428
14497273067
14497280880
14497285823
14497291988
14497296504
14497303829
14497308956
14497314693
14497320613
14497325069
14497331966
14497338619
14497345088
14497350704
14497354915
14497360652
14497366573
14497370052
14497377864
14497384151
14497390743
14497394038
14497401546
14497406490
14497412349
14497416988
14497424007
14497429134
14497435420
14497440425
14497446651
14497451228
14497458430
14497463008
14497470515
14497477778
14497483943
14497489009
14497494624
14497501521
14497506526
14497511165
14497515193
14497523677
14497529292
14497535212
14497540217
14497546382
14497550105
14497557002
14497562678
14497571711
14497575679
14497582637
14497588496
14497594783
14497601313
14497607844
14497614924
14497621699
14497627925
14497633296
14497644038
14497649287
14497656184
14497659602
14497667048
14497670649
14497677363
14497681086
14497687861
14497691096
14497698664
14497702021
14497710627
14497716608
14497722529
14497726008
14497733393
14497736567
14497744135
14497747370
14497755549
14497761164
14497766840
14497770014
14497776789
14497781428
14497787470
14497792658
14497800470
14497806208
14497813044
14497817988
14497822931
14497829462
14497835505
14497840021
14497845697
14497851984
14497858149
14497862665
14497869196
14497875727
14497881525
14497886042
14497893000
14497900629
14497903009
14497912470
14497918878
14497923212
14497926691
14497934931
14497938715
14497947504
14497954157
14497960687
14497964166
14497970819
14497975824
14497981195
14497988092
14497994745
14497999872
14498007623
14498012445
14498018793
14498025568
14498030633
14498035150
14498041925
14498048639
14498053888
14498060296
14498065851
14498070733
14498077814
14498082391
14498086480
14498095392
14498102350
14498107293
14498113519
14498119378
14498122979
14498129693
14498135980
14498144281
14498148248
14498155084
14498161309
14498166742
14498171624
14498179071
14498184991
14498192315
14498198907
14498205255
14498210870
14498217767
14498223260
14498231866
14498237176
14498245355
14498251031
14498261407
14498266778
14498271356
14498276238
14498282220
14498288445
14498293999
14498301263
14498306512
14498313592
14498319329
14498324395
14498329278
14498335564
14498343255
14498348687
14498356621
14498361443
14498367364
14498373406
14498378350
14498384820
14498389336
14498395867
14498403008
14498408135
14498414238
14498420037
14498423760
14498431084
14498436577
14498444512
14498450982
14498456963
14498461907
14498467034
14498471550
14498478447
14498482903
14498490044
14498496758
14498501885
14498506401
14498513237
14498518059
14498525139
14498530266
14498536797
14498543022
14498547844
14498553642
14498557243
14498564812
14498568657
14498576714
14498582268
14498588554
14498594780
14498600273
14498606132
14498612602
14498616081
14498623161
14498628349
14498636467
14498642143
14498647331
14498652336
14498659416
14498664543
14498670463
14498674675
14498682182
14498687553
14498695549
14498699577
14498707023
14498713432
14498720573
14498726555
14498732841
14498737297
14498745475
14498749565
14498756828
14498762809
14498768852
14498773307
14498780632
14498787712
14498794548
14498799674
14498806266
14498812126
14498819145
14498824150
14498832145
14498843803
14498849906
14498856437
14498862724
14498869193
14498875114
14498884147
14498888175
14498896476
14498900077
14498907951
14498911491
14498918265
14498923820
14498930045
14498936088
14498942557
14498947440
14498954093
14498959037
14498964164
14498968680
14498974540
14498981742
14498986991
14498993949
14498999686
14499003959
14499009879
14499016288
14499023551
14499030631
14499035941
14499042899
14499049002
14499053702
14499059806
14499065726
14499067801
14499077384
14499084281
14499089163
14499095755
14499100272
14499106681
14499111930
14499117789
14499125113
14499131461
14499136282
14499142386
14499147879
14499152152
14499159354
14499163321
14499171072
14499178702
14499183890
14499187857
14499195425
14499199515
14499207205
14499211661
14499221182
14499225027
14499233816
14499237356
14499243826
14499249075
14499254996
14499260489
14499267569
14499272513
14499279043
14499283865
14499290335
14499295828
14499301748
14499306387
14499312307
14499318838
14499325186
14499329947
14499336660
14499341116
14499344595
14499352407
14499355947
14499365103
14499369192
14499376516
14499381948
14499388967
14499394400
14499400930
14499406179
14499412771
14499419485
14499427419
14499432791
14499441213
14499449758
14499460867
14499471609
14499493093
14499505056
14499515493
14499525381
14499534780
14499543081
14499550100
14499556631
14499563711
14499571889
14499580190
14499588491
14499598317
14499605764
14499613271
14499621633
14499629750
14499637380
14499646108
14499654775
14499662526
14499670522
14499678334
14499686940
14499694875
14499702321
14499711659
14499720265
14499728078
14499735829
14499744740
14499747975
14499759328
14499767934
14499776051
14499784352
14499790883
14499799855
14499807484
14499815785
14499823781
14499831593
14499839650
14499848439
14499857960
14499865468
14499873646
14499882130
14499890553
14499900136
14499908680
14499916981
14499924550
14499933461
14499938343
14499950367
14499958180
14499970204
14499985890
14500000599
14500013966
14500029774
14500043507
14500057972
14500073841
14500088123
14500102222
14500115162
14500130176
14500144581
14500153126
14500160328
14500168445
14500178272
14500194019
14500207996
14500220142
14500233265
14500244739
14500254322
14500263599
14500271839
14500280078
14500292163
14500300342
14500308826
14500318103
14500325733
14500334888
14500343799
14500352893
14500360278
14500368213
14500376819
14500384814
14500392749
14500401172
14500410022
14500417590
14500422046
14500431262
14500438769
14500445666
14500454211
14500466235
14500475329
14500481860
14500489551
14500495532
14500503894
14500512011
14500520190
14500527697
14500535327
14500542529
14500550097
14500557849
14500564990
14500572436
14500581225
14500589587
14500597644
14500604357
14500611559
14500618945
14500625659
14500634265
14500639575
14500649035
14500655810
14500665026
14500670886
14500679308
14500686510
14500695238
14500702441
14500711352
14500715807
14500727099
14500734484
14500741686
14500748339
14500755785
14500764513
14500772631
14500778978
14500787340
14500794542
14500801745
14500809496
14500817431
14500825914
14500832323
14500840868
14500847277
14500854235
14500863207
14500870409
14500876451
14500887987
14500892809
14500903124
14500910875
14500918260
14500926622
14500933519
14500943102
14500951158
14500957506
14500961473
14500966905
14500969408
14500975450
14500980699
14500985887
14500990953
14500996263
14501001634
14501006090
14501011095
14501015916
14501023790
