183909164628
183909169938
183909173112
183909178300
183909182938
183909186234
183909190507
183909194840
183909201798
183909206071
183909209550
183909214738
183909220475
183909224869
183909228165
183909232255
183909235795
183909240800
183909244584
183909248551
183909253251
183909256424
183909260392
183909264481
183909269242
183909273636
183909277848
183909282181
183909286149
183909289811
183909293656
183909297623
183909302811
183909306290
183909310318
183909313980
183909318009
183909322220
183909325943
183909329422
183909334549
183909338394
183909341751
183909345108
183909349869
183909353836
183909358719
183909363602
183909367813
183909371659
183909375015
183909378861
183909383560
183909386734
183909392777
183909398148
183909402237
183909406815
183909410538
183909415421
183909419083
183909423111
183909428665
183909432877
183909436722
183909440140
183909443863
183909448074
183909452103
183909456436
183909461014
183909465164
183909469315
183909474442
183909479324
183909482986
183909488052
183909492020
183909495865
183909500320
183909504471
183909507950
183909511856
183909515640
183909520767
183909524490
183909529068
183909533523
183909538894
183909542862
183909547012
183909550735
183909555252
183909559097
183909564102
183909568313
183909572342
183909576065
183909580459
183909584305
183909588821
183909592788
183909597183
183909602920
183909609512
183909614517
183909618972
183909624343
183909628860
183909632949
183909636673
183909640823
183909645401
183909650100
183909654373
183909658523
183909663040
183909667129
183909670852
183909675613
183909679214
183909683364
183909686782
183909690872
183909694839
183909699417
183909703262
183909707717
183909712295
183909717056
183909721572
183909726333
183909731887
183909736221
183909739272
183909743484
183909747329
183909752395
183909757034
183909761550
183909766677
183909770522
183909775161
183909780044
183909784927
183909789382
183909794570
183909798904
183909803786
183909807632
183909812148
183909816787
183909822036
183909826247
183909830947
183909836806
183909841445
183909846816
183909851577
183909856154
183909860976
183909865493
183909869643
183909874465
183909878859
183909884536
183909888991
183909894057
183909898452
183909903395
183909908095
183909912185
183909918532
183909924086
183909928359
183909933730
183909938796
183909944411
183909948256
183909953444
183909959181
183909964980
183909969374
183909974318
183909979018
183909983718
183909987746
183909992323
183909997572
183910002760
183910006911
183910012038
183910017592
183910021254
183910027052
183910031813
183910036818
183910043410
183910047316
183910052504
183910057692
183910062575
183910068068
183910072829
183910077040
183910082289
183910087599
183910092482
183910097243
183910102125
183910106703
183910111525
183910116835
183910123121
183910128493
183910133497
183910138563
183910143385
183910147535
183910152174
183910157118
183910160353
183910165785
183910171034
183910175490
183910179457
183910185011
183910189161
183910194227
183910198927
183910205091
183910210157
183910215467
183910220289
183910224501
183910231214
183910236891
183910240614
183910245680
183910250746
183910255567
183910260755
183910264418
183910268568
183910273512
183910277967
183910282484
183910286573
183910292005
183910296156
183910300794
183910305128
183910310072
183910316175
183910320204
183910326185
183910330457
183910334242
183910339491
183910343336
183910348524
183910353284
183910360242
183910364088
183910368726
183910372327
183910377088
183910382581
183910386854
183910392286
183910396924
183910400770
183910405408
183910410352
183910414075
183910419935
183910425428
183910429456
183910435682
183910439832
183910444593
183910449659
183910454114
183910458692
183910463270
183910468152
183910474927
183910478956
183910483594
183910488294
183910491468
183910496961
183910501844
183910507398
183910511487
183910516797
183910520948
183910524976
183910529981
183910533826
183910538892
183910543225
183910548474
183910552747
183910558850
183910562818
183910567884
183910572034
183910576856
183910581433
183910585706
183910590344
183910596082
183910600110
183910605176
183910609631
183910613782
183910618482
183910623914
183910629773
183910633923
183910638440
183910642529
183910645398
183910652112
183910656140
183910659924
183910665723
183910669873
183910674451
183910679211
183910683789
183910687390
183910691968
183910697095
183910700024
183910706555
183910709302
183910714001
183910718396
183910723279
183910728039
183910733044
183910738354
183910742322
183910746899
183910751416
183910755749
183910760754
183910765149
183910770581
183910777050
183910781018
183910785840
183910789990
183910794568
183910800244
183910803601
183910809704
183910815625
183910821423
183910824475
183910829602
183910833935
183910838513
183910842846
183910847607
183910852429
183910858715
183910861706
183910867565
183910870556
183910876538
183910879650
183910885449
183910891918
183910897473
183910901745
183910906262
183910911144
183910914623
183910919140
183910923596
183910927868
183910934277
183910939465
183910943554
183910948071
183910951611
183910954906
183910966076
183910974377
183910980724
183910989880
183910996654
183911005321
183911011242
183911019543
183911025951
183911036938
183911044018
183911049999
183911058605
183911066295
183911073986
183911079906
183911089245
183911098644
183911105907
183911112621
183911120555
183911127391
183911134960
183911142162
183911150035
183911161022
183911168346
183911177745
183911182079
183911185985
183911191661
183911195812
183911200389
183911204295
183911208995
183911213207
183911217052
183911222789
183911227306
183911231090
183911235606
183911239818
183911243297
183911249217
183911254283
183911259105
183911263072
183911267100
183911270946
183911274791
183911278575
183911282664
183911289683
183911293101
183911297008
183911301280
183911305797
183911310496
183911314647
183911318858
183911324473
183911328624
183911333629
183911337657
183911341380
183911344920
183911349254
183911354442
183911358592
183911363231
183911367442
183911371959
183911376536
183911380565
183911385081
183911389476
183911394481
183911398570
183911401805
183911406627
183911410105
183911413951
183911419505
183911424021
183911427989
183911431712
183911435557
183911439952
183911443919
183911447520
183911451976
183911457408
183911461619
183911464854
183911469004
183911474375
183911477671
183911484507
183911490244
183911494517
183911499461
183911504283
183911507456
183911513926
183911518198
183911523814
183911528819
183911534312
183911537730
183911542735
183911547495
183911552073
183911556467
183911561167
183911567759
183911572642
183911576548
183911581736
183911585459
183911590647
183911593821
183911600046
183911603892
183911610850
183911614023
183911619883
183911624949
183911629160
183911634043
183911638682
183911645151
183911649607
183911654001
183911657908
183911664133
183911668589
183911673166
183911678782
183911683970
183911688791
183911694223
183911698313
183911704233
183911709482
183911712656
183911717295
183911723825
183911728281
183911732798
183911736948
183911743235
183911746958
183911750376
183911755258
183911761606
183911765695
183911770883
183911774484
183911779123
183911783884
183911789194
183911793710
183911799936
183911805979
183911810861
183911816354
183911821176
183911825571
183911830454
183911836374
183911841196
183911846567
183911851389
183911856027
183911860788
183911865488
183911870370
183911876047
183911881479
183911887094
183911891916
183911896554
183911901681
183911907846
183911912729
183911917428
183911922861
183911928110
183911932931
183911937570
183911942453
183911947885
183911952768
183911958505
183911963876
183911967782
183911972421
183911977060
183911981637
183911986154
183911990609
183911994333
183912001718
183912006540
183912011178
183912015451
183912019967
183912024667
183912029611
183912035348
183912039010
183912045236
183912048837
183912053842
183912058358
183912063546
183912067208
183912072335
183912077706
183912083322
183912088326
183912093392
183912098458
183912102731
183912107675
183912113046
183912117928
183912123849
183912128854
183912133614
183912138436
183912143136
183912148080
183912153878
183912159493
183912164620
183912169869
183912173897
183912178963
183912184029
183912189278
183912194832
183912198434
183912204720
183912209664
183912214181
183912218941
183912224862
183912229745
183912234749
183912239388
183912245431
183912250252
183912254525
183912259774
183912264595
183912269112
183912273995
183912277779
183912283455
183912287056
183912292244
183912297066
183912301155
183912305855
183912311531
183912317269
183912321541
183912327523
183912331185
183912335823
183912341500
183912345528
183912352059
183912355904
183912362435
183912365914
183912371346
183912376290
183912381233
183912385689
183912390694
183912395943
183912401619
183912406441
183912411018
183912415901
183912421394
183912425972
183912431465
183912436836
183912441353
183912445930
183912450203
183912455269
183912460945
183912466072
183912470894
183912476570
183912480415
183912485542
183912490974
183912494820
183912500252
183912503792
183912508858
183912514473
183912519356
183912524849
183912529609
183912534065
183912539009
183912542488
183912548103
183912552803
183912557441
183912562019
183912565742
183912570442
183912575569
183912580757
183912585151
183912591926
183912597419
183912601997
183912605903
183912610603
183912615852
183912619453
183912625495
183912631721
183912637336
183912642768
183912647102
183912651618
183912656440
183912659736
183912667732
183912673530
183912679328
183912684394
183912689460
183912694099
183912699531
183912704353
183912709846
183912715827
183912720649
183912725410
183912730537
183912735358
183912739875
183912744331
183912749335
183912753913
183912758857
183912763923
183912768928
183912771796
183912777534
183912782416
183912786506
183912791999
183912798286
183912803229
183912807197
183912812324
183912817206
183912821235
183912825507
183912830451
183912836616
183912840644
183912846198
183912850104
183912853949
183912859198
183912863410
183912869880
183912874640
183912879096
183912882148
183912888800
183912893439
183912898627
183912903937
183912908515
183912913214
183912918463
183912922980
183912926398
183912932013
183912936591
183912941107
183912946540
183912951239
183912955512
183912959784
183912964728
183912969245
183912973883
183912980841
183912984686
183912989691
183912994269
183912998786
183913004340
183913009100
183913013007
183913018561
183913023993
183913028998
183913032965
183913038153
183913042487
183913047858
183913052985
183913060736
183913065375
183913071295
183913075445
183913080511
183913085028
183913095038
183913103461
183913111883
183913119818
183913127936
183913139715
183913149115
183913158331
183913167730
183913177130
183913183661
183913188665
183913198919
183913211309
183913218695
183913228338
183913235906
183913241644
183913246954
183913252325
183913258795
183913262823
183913268072
183913271917
183913277410
183913281317
183913287664
183913292242
183913297003
183913300604
183913306890
183913310491
183913316595
183913321722
183913326238
183913331915
183913336431
183913341680
183913346197
183913350896
183913355230
183913360296
183913365728
183913371160
183913375005
183913381353
183913386541
183913391241
183913396429
183913401617
183913406133
183913412053
183913417791
183913423406
183913429571
183913434636
183913440435
183913445318
183913451177
183913458867
183913464116
183913469365
183913474675
183913478826
183913485662
183913490422
183913495488
183913499822
183913507512
183913513372
183913518804
183913524175
183913528691
183913535527
183913541204
183913547795
183913551580
183913557866
183913563237
183913568364
183913574040
183913578374
183913583440
183913589787
183913596257
183913601140
183913606267
183913610844
183913616277
183913619939
183913625371
183913630315
183913635808
183913640874
183913645940
183913651555
183913656621
183913662175
183913668095
183913674077
183913680302
183913686162
183913690434
183913696232
183913701298
183913707585
183913712773
183913719304
183913724736
183913730107
183913734379
183913740910
183913747929
183913752995
183913758549
183913764653
183913769535
183913774174
183913779850
183913788090
183913791996
183913799015
183913803471
183913808354
183913815617
183913819706
183913825688
183913832402
183913838627
183913844242
183913848332
183913853886
183913859379
183913863835
183913870732
183913876957
183913882450
183913888126
183913893498
183913898869
183913904240
183913908207
183913914433
183913921146
183913926151
183913932316
183913936832
183913941715
183913948002
183913952824
183913959354
183913964542
183913970219
183913976566
183913981998
183913986698
183913992740
183913997867
183914004032
183914008549
183914014042
183914020084
183914025699
183914031498
183914035587
183914041263
183914047184
183914052677
183914057926
183914062320
183914069217
183914075138
183914079654
183914087101
183914092594
183914097843
183914103580
183914108097
183914113346
183914118595
183914125003
183914130191
183914136051
183914141910
183914147220
183914153140
183914156436
183914163883
183914170169
183914175601
183914181766
183914187686
183914192935
183914197208
183914203067
183914207340
183914213870
183914220340
183914225894
183914230960
183914235355
183914242129
183914248660
183914253665
183914258731
183914263431
183914268924
183914275516
183914279178
183914286441
183914291385
183914296512
183914303164
183914308780
183914314212
183914320315
183914325381
183914331729
183914336734
183914343387
183914348391
183914353335
183914358035
183914364444
183914370669
183914375491
183914380801
183914387210
183914391909
183914398013
183914404116
183914410037
183914414065
183914419985
183914425540
183914431094
183914436587
183914442080
183914448367
183914453738
183914459902
183914465334
183914471377
183914476260
183914481326
183914487124
183914492495
183914499209
183914502932
183914509219
183914515017
183914520693
183914525820
183914532168
183914538271
183914542971
183914548403
183914552798
183914559206
183914564089
183914570315
183914575075
183914581057
183914586367
183914592959
183914598391
183914603029
183914609011
183914614565
183914620608
183914625551
183914631838
183914636660
183914642153
183914647097
183914652712
183914660708
183914665773
183914671999
183914677675
183914683413
183914689150
183914693178
183914700441
183914705873
183914711245
183914717897
183914723024
183914728090
183914732668
183914739443
183914744997
183914750856
183914755922
183914761537
183914765627
183914772035
183914777345
183914782106
183914787721
183914793153
183914799684
183914805544
183914810182
183914815553
183914820436
183914825685
183914831606
183914836732
183914841066
183914847169
183914851808
183914856813
183914863161
183914869936
183914875795
183914880983
183914885988
183914890993
183914895448
183914901552
183914906251
183914913576
183914918214
183914924867
183914931154
183914936403
183914941957
183914948060
183914953431
183914958925
183914964296
183914969545
183914975709
183914980592
183914986207
183914994142
183914998719
183915004090
183915009400
183915015321
183915020509
183915025941
183915031312
183915037416
183915042848
183915047486
183915052552
183915058045
183915062562
183915068543
183915075868
183915080934
183915085755
183915091309
183915096131
183915102052
183915107118
183915114198
183915118470
183915124818
183915130311
183915134583
183915139893
183915146180
183915150513
183915156861
183915161011
183915167237
183915174073
183915179444
183915184571
183915189210
183915194764
183915201050
183915207215
183915212586
183915217652
183915223145
183915228760
183915234009
183915239502
183915244385
183915250550
183915254761
183915261475
183915265442
183915270874
183915276062
183915281067
183915287293
183915295594
183915303955
183915311768
183915319763
183915328064
183915338928
183915348267
183915358521
183915365418
183915373840
183915382080
183915389221
183915395874
183915404785
183915416138
183915424011
183915432312
183915440002
183915444397
183915449341
183915453796
183915458862
183915463989
183915468750
183915473633
183915479919
183915484619
183915488525
183915493591
183915499206
183915505127
183915508728
183915513916
183915518554
183915522949
183915526977
183915531555
183915535888
183915541198
183915544677
183915549255
183915553711
183915558105
183915561767
183915565918
183915570800
183915576233
183915580383
183915584472
183915588562
183915593444
183915597839
183915602600
183915607482
183915612060
183915616088
183915620971
183915625427
183915629760
183915634643
183915639953
183915646301
183915650390
183915655822
183915661010
183915665893
183915670654
183915675598
183915679626
183915686767
183915692443
183915697936
183915703307
183915708373
183915714050
183915719604
183915725890
183915729125
183915736388
183915739928
183915746032
183915751342
183915756774
183915762450
183915767150
183915773315
183915778441
183915783324
183915788268
183915793029
183915797606
183915802306
183915807738
183915813170
183915818419
183915823424
183915827514
183915832213
183915837523
183915842345
183915846740
183915853881
183915859618
183915862792
183915869567
183915874266
183915877806
183915883849
183915887877
183915892516
183915898497
183915902587
183915907897
183915912535
183915918029
183915922057
183915927428
183915932372
183915937132
183915942320
183915947142
183915951415
183915956175
183915961608
183915966551
183915971312
183915976317
183915980895
183915985777
183915990782
183915995665
183916001158
183916004271
183916010191
183916016722
183916021666
183916026671
183916031493
183916036314
183916041808
183916046629
183916050413
183916057494
183916061461
183916066588
183916071776
183916076658
183916080870
183916085081
183916090758
183916095579
183916101378
183916105711
183916110716
183916115111
183916120543
183916124449
183916131102
183916136900
183916142515
183916146910
183916151671
183916157103
183916161802
183916165709
183916170774
183916175352
183916180906
183916187559
183916191954
183916195677
183916200499
183916206480
183916211363
183916217222
183916224363
183916234068
183916242674
183916250852
183916259336
183916263975
183916268858
183916272825
183916278013
183916283140
183916287290
183916292844
183916297178
183916302061
183916306394
183916312070
183916316709
183916319822
183916326536
183916329588
183916335813
183916340635
183916344968
183916351072
183916355405
183916360288
183916364866
183916369932
183916374937
183916379880
183916385190
183916390867
183916396543
183916401670
183916406309
183916411252
183916416013
183916420713
183916424924
183916429258
183916435361
183916439145
183916445432
183916449582
183916454343
183916458249
183916463071
183916468808
183916473569
183916479795
183916483152
183916489499
183916492856
183916499631
183916502927
183916508481
183916513364
183916519162
183916525632
183916530271
183916535214
183916539670
183916544614
183916548703
183916552915
183916559018
183916562924
183916569211
183916574033
183916578732
183916582944
183916587949
183916592221
183916597714
183916602414
183916607236
183916612729
183916617856
183916621701
183916625241
183916631345
183916636105
183916641049
183916647397
183916652219
183916657040
183916661191
183916665890
183916671872
183916676816
183916681149
183916686764
183916691281
183916695798
183916701535
183916706845
183916711484
183916716244
183916722409
183916728451
183916732907
183916738217
183916742794
183916747433
183916753476
183916758664
183916763791
183916769101
183916774411
183916780270
183916785885
183916791561
183916796810
183916802059
183916806698
183916813290
183916818783
183916823971
183916828976
183916834591
183916839535
183916844113
183916850643
183916856564
183916863705
183916867733
183916874874
183916878597
183916884518
183916889034
183916895138
183916901058
183916906002
183916911434
183916915585
183916921444
183916925838
183916931332
183916936642
183916942440
183916947506
183916952633
183916958492
183916962398
183916969234
183916972957
183916979793
183916985531
183916989864
183916995357
183917001095
183917005245
183917010860
183917015255
183917022396
183917028255
183917032711
183917038021
183917043819
183917049434
183917054012
183917059383
183917064510
183917070064
183917075924
183917079158
183917085811
183917090633
183917096187
183917101070
183917107418
183917112911
183917116512
183917123592
183917128658
183917133113
183917139278
183917144222
183917149593
183917154842
183917160640
183917166927
183917171077
183917176936
183917182308
183917186946
183917191829
183917198299
183917205135
183917211482
183917214961
183917220760
183917225581
183917231197
183917237239
183917242122
183917247554
183917254329
183917259090
183917262691
183917268489
183917273799
183917279964
183917284175
183917289546
183917296199
183917302669
183917308162
183917312129
183917317744
183917323787
183917328975
183917333186
183917340876
183917346309
183917351436
183917356318
183917361018
183917367915
183917371211
183917377925
183917383235
183917389399
183917394099
183917397578
183917404780
183917408259
183917415156
183917421015
183917425959
183917431758
183917438044
183917441523
183917446650
183917452082
183917457575
183917463069
183917468623
183917473994
183917480769
183917484736
183917490229
183917495661
183917500849
183917506342
183917511286
183917516535
183917523859
183917527216
183917534113
183917542536
183917552424
183917561823
183917568415
183917576777
183917590143
183917598932
183917606989
183917618891
183917626093
183917635065
183917646296
183917655634
183917665155
183917674311
183917680902
183917692804
183917699335
183917705072
183917710626
183917716242
183917721796
183917727899
183917733087
183917737909
183917743036
183917748224
183917753229
183917758600
183917764093
183917767877
183917772760
183917777094
183917782343
183917788812
183917792963
183917798151
183917802240
183917807123
183917812494
183917816400
183917822931
183917827875
183917832696
183917837762
183917842157
183917846673
183917851190
183917856561
183917860956
183917865289
183917869379
183917874933
183917879205
183917884759
183917887933
183917893365
183917898370
183917905572
183917908990
183917915643
183917920465
183917924371
183917929193
183917934137
183917939325
183917945123
183917951165
183917954889
183917959771
183917964166
183917969049
183917973870
183917980889
183917985406
183917991510
183917995355
183918000115
183918004510
183918009332
183918014398
183918021539
183918028497
183918031976
183918036981
183918041802
183918047051
183918051873
183918056085
183918062127
183918068108
183918073235
183918077691
183918082635
183918087823
183918092522
183918098382
183918104852
183918109795
183918114922
183918119744
183918124566
183918129021
183918133965
183918138665
183918147393
183918152581
183918158196
183918162896
183918167779
183918171929
183918176751
183918182244
183918187615
183918193352
183918198418
183918203484
183918208306
183918214287
183918219109
183918223443
183918230156
183918236321
183918241326
183918246453
183918251213
183918256096
183918260308
183918265374
183918270867
183918276726
183918281914
183918286675
183918291802
183918296318
183918301689
183918307305
183918312798
183918318657
183918323784
183918328057
183918332939
183918337090
183918342034
183918346306
183918352715
183918357781
183918361199
183918367241
183918371880
183918376640
183918382622
183918387444
183918392204
183918399345
183918402824
183918409904
183918415459
183918421013
183918426689
183918432915
183918439506
183918444572
183918449760
183918456718
183918462761
183918467766
183918473991
183918478142
183918485588
183918490532
183918496025
183918502128
183918506401
183918512748
183918516166
183918523185
183918530754
183918536796
183918540458
183918546989
183918551567
183918557487
183918562004
183918566886
183918573173
183918579704
183918583671
183918591484
183918595329
183918601249
183918606132
183918612968
183918618522
183918624870
183918630424
183918636588
183918642204
183918646293
183918653190
183918660148
183918667228
183918674735
183918681449
183918689201
183918694999
183918701774
183918707023
183918714164
183918722037
183918728385
183918733817
183918743949
183918748893
183918756888
183918763358
183918768851
183918775138
183918781974
183918786796
183918795768
183918803519
183918810416
183918818961
183918825553
183918830863
183918835929
183918843985
183918852042
183918859610
183918866019
183918873099
183918880667
183918886039
183918894889
183918900504
183918908133
183918912772
183918917716
183918927725
183918934561
183918944388
183918950919
183918957755
183918962698
183918970633
183918976920
183918984549
183918990408
183919000174
183919006583
183919012015
183919019583
183919025748
183919033316
183919038809
183919046316
183919052237
183919062735
183919071158
183919077872
183919086172
183919092093
183919099661
183919105948
183919112539
183919117605
183919124929
183919133169
183919140432
183919148916
183919155386
183919161917
183919167166
183919173330
183919181265
183919187246
183919195486
183919203787
183919211355
183919216604
183919223501
183919231069
183919236379
183919243093
183919251455
183919256460
183919264517
183919272085
183919278555
183919285024
183919292165
183919297414
183919305898
183919312063
183919319875
183919325368
183919334157
183919341360
183919346487
183919354604
183919360525
183919368337
183919373098
183919382070
183919387380
183919396352
183919403920
183919412282
183919419240
183919424245
183919429067
183919437551
183919445485
183919452260
183919460500
183919468434
183919473683
183919478810
183919487172
183919493093
183919502126
183919508107
183919515492
183919523671
183919533559
183919538075
183919546071
183919553273
183919559255
183919566884
183919570851
183919580067
183919586537
183919592213
183919601735
183919608449
183919616017
183919621266
183919628590
183919636220
183919641774
183919650380
183919661183
183919668446
183919674122
183919678883
183919687794
183919693409
183919702199
183919707753
183919713856
183919721791
183919731495
183919738514
183919743885
183919751393
183919757313
183919764210
183919771229
183919776417
183919783558
183919792164
183919801441
183919807545
183919813343
183919819996
183919827992
183919833973
183919839771
183919847279
183919856190
183919864124
183919869251
183919874256
183919883595
183919889393
183919896229
183919904041
183919910328
183919917835
183919922718
183919930775
183919939503
183919945057
183919953297
183919959766
183919966724
183919972034
183919979053
183919988697
183919996265
183920001453
183920010059
183920016651
183920022022
183920029712
183920035694
183920042041
183920049671
183920057422
183920064014
183920072132
183920077686
183920082508
183920091785
183920095935
183920103198
183920110462
183920122974
183920129932
183920135486
183920144641
183920149097
183920156665
183920163684
183920168445
183920176929
183920186145
183920193469
183920198291
183920206042
183920212329
183920219775
183920226733
183920233569
183920238818
183920247241
183920258410
183920266345
183920272387
183920278430
183920285266
183920293445
183920299853
183920305591
183920312793
183920318225
183920326831
183920334521
183920339770
183920347400
183920355456
183920361499
183920366320
183920371569
183920381274
183920387866
183920396899
183920403247
183920410205
183920416857
183920422045
183920430224
183920440417
183920455248
183920468432
183920479601
183920488390
183920501513
183920518236
183920527819
183920539294
183920555346
183920563585
183920579149
183920586168
183920600451
183920616259
183920625902
183920639269
183920650866
183920661730
183920669115
183920676195
183920681749
183920688707
183920697069
183920705248
183920710619
183920718736
183920726793
183920736131
183920744432
183920747850
183920757616
183920764330
183920774217
183920784044
183920791124
183920803880
183920810655
183920819383
183920825120
183920833848
183920842027
183920848253
183920856553
183920863939
183920869859
183920878526
183920885911
183920893602
183920900255
183920905259
183920910142
183920919236
183920926927
183920935350
183920942125
183920949937
183920954820
183920962144
183920967942
183920975328
183920982530
183920990037
183920995408
183921005052
183921011643
183921015794
183921023423
183921030808
183921035874
183921042893
183921049241
183921056809
183921064866
183921070786
183921078233
183921085069
183921091721
183921097642
183921105637
183921111741
183921116502
183921124863
183921129380
183921137986
183921146836
183921152695
183921159836
183921164536
183921172288
183921178208
183921186081
183921192124
183921200791
183921206894
183921213852
183921220871
183921227097
183921233078
183921239060
183921246201
183921253281
183921260483
183921269272
183921275559
183921283737
183921290146
183921296616
183921301621
183921308762
183921316086
183921323410
183921329575
183921336044
183921342575
183921349411
183921355332
183921362595
183921369980
183921374313
183921381454
183921390549
183921398178
183921404037
183921409531
183921416550
183921421005
183921429855
183921436020
183921440903
183921447494
183921457199
183921462997
183921469833
183921475631
183921481674
183921488876
183921496200
183921501816
183921509506
183921515365
183921525070
183921531845
183921536605
183921544296
183921549972
183921558029
183921562606
183921571273
183921575851
183921586715
183921596847
183921603073
183921609237
183921616683
183921623092
183921628646
183921636886
183921642745
183921651778
183921659896
183921668197
183921674789
183921681747
183921687057
183921693404
183921701400
183921707015
183921715072
183921723800
183921731124
183921736617
183921744735
183921750777
183921758468
183921762679
183921770247
183921777022
183921785262
183921792952
183921800887
183921809432
183921816329
183921821212
183921830245
183921836409
183921842940
183921854048
183921861251
183921869002
183921873763
183921882369
183921888289
183921895980
183921900862
183921909163
183921917220
183921922896
183921931807
183921940047
183921946455
183921951155
183921959944
183921967146
183921972090
183921978926
183921990279
183921997542
183922005904
183922012190
183922019209
183922024214
183922031172
183922038924
183922045515
183922053633
183922061995
183922068648
183922074507
183922084150
183922090010
183922096480
183922103315
183922108503
183922117170
183922125715
183922133833
183922139875
183922145735
183922152510
183922157453
183922165693
183922173628
183922180464
183922188520
183922199812
183922205000
183922210432
183922219770
183922226911
183922236677
183922245588
183922253706
183922260297
183922269270
183922275678
183922283613
183922291669
183922297346
183922308637
183922314680
183922324689
183922333112
183922342267
183922347516
183922356367
183922364118
183922373029
183922377729
183922383893
183922394147
183922401105
183922410383
183922416425
183922424298
183922431134
183922437238
183922445111
183922450544
183922460248
183922468488
183922476056
183922481916
183922489545
183922496686
183922502973
183922512311
183922520917
183922528302
183922536847
183922543866
183922553021
183922561200
183922568341
183922576459
183922580914
183922589703
183922595868
183922606915
183922614178
183922622479
183922628461
183922636273
183922643475
183922650555
183922658673
183922667950
183922673504
183922681012
183922688763
183922695050
183922702557
183922708172
183922714276
183922721661
183922728192
183922736737
183922743878
183922752301
183922758282
183922765240
183922770123
183922777874
183922783551
183922791424
183922798565
183922808758
183922815899
183922821819
183922827923
183922835552
183922841290
183922847881
183922852825
183922861004
183922866985
183922877056
183922883099
183922889080
183922895611
183922900555
183922908611
183922916485
183922922832
183922934307
183922942486
183922947429
183922955120
183922961223
183922968914
183922973797
183922981731
183922987896
183922995342
183923003521
183923010723
183923016887
183923025249
183923031231
183923038066
183923046489
183923051494
183923059062
183923070476
183923076763
183923086345
183923093608
183923100505
183923105632
183923112651
183923120159
183923126323
183923136272
183923143413
183923151042
183923155803
183923165019
183923172466
183923177898
183923185588
183923192851
183923197917
183923207133
183923213908
183923222453
183923229167
183923235026
183923241801
183923248393
183923253459
183923260417
183923272624
183923280559
183923286113
183923290934
183923300090
183923305644
183923313762
183923321269
183923327372
183923335612
183923343852
183923351420
183923356303
183923364360
183923370341
183923377665
183923384318
183923389445
183923395732
183923405375
183923412882
183923418131
183923426859
183923431315
183923439066
183923446146
183923451640
183923458353
183923466044
183923471781
183923481974
183923486979
183923495524
183923501444
183923508097
183923515848
183923521220
183923528666
183923537394
183923546793
183923553202
183923560221
183923565104
183923573038
183923579142
183923586954
183923593363
183923602274
183923610453
183923615519
183923623758
183923627787
183923635538
183923642008
183923649759
183923655558
183923663858
183923671793
183923678446
183923686319
183923692850
183923697794
183923706278
183923713053
183923718240
183923726114
183923735880
183923742227
183923750467
183923752420
183923761514
183923767252
183923777078
183923782999
183923789285
183923797464
183923804849
183923812540
183923818643
183923827859
183923835123
183923844217
183923853128
183923860086
183923866495
183923877054
183923883645
183923893655
183923899820
183923906106
183923915933
183923922769
183923931375
183923941018
183923948281
183923956765
183923965249
183923970315
183923975747
183923984353
183923990640
183924003213
183924012612
183924025063
183924038186
183924053811
183924067178
