16365738316
16365743137
16365748203
16365753513
16365758945
16365763279
16365769016
16365773838
16365778110
16365783970
16365788242
16365793613
16365798557
16365803501
16365808140
16365813389
16365817966
16365822239
16365826694
16365831577
16365836277
16365841343
16365846775
16365851841
16365857822
16365862827
16365867771
16365873081
16365877842
16365883396
16365888217
16365892734
16365897373
16365901950
16365907199
16365911960
16365917209
16365921604
16365926975
16365932407
16365938449
16365943820
16365950290
16365956333
16365961398
16365969028
16365976962
16365984470
16365990329
16365996616
16366002536
16366008212
16366015292
16366020175
16366027927
16366034030
16366039218
16366046115
16366052341
16366059177
16366065890
16366071933
16366077853
16366084567
16366092257
16366098056
16366105075
16366113192
16366118747
16366124972
16366130343
16366137423
16366144992
16366151828
16366156527
16366163363
16366170016
16366175265
16366186496
16366193209
16366199313
16366210665
16366221285
16366232455
16366243319
16366250948
16366256014
16366264742
16366270419
16366276339
16366285006
16366291781
16366298495
16366303805
16366312228
16366318514
16366325838
16366332613
16366339205
16366346834
16366351656
16366357699
16366366366
16366372347
16366378756
16366386629
16366396944
16366402315
16366410799
16366416353
16366424166
16366431978
16366438936
16366445772
16366451326
16366459200
16366465425
16366471102
16366478487
16366485689
16366491182
16366497835
16366502291
16366508943
16366514864
16366521334
16366528230
16366535066
16366541048
16366548372
16366555818
16366560884
16366567842
16366574556
16366581209
16366586946
16366595064
16366601167
16366607576
16366614107
16366621248
16366627473
16366634004
16366639863
16366647676
16366653779
16366661897
16366669282
16366677400
16366682527
16366691377
16366699067
16366706697
16366712129
16366718904
16366724885
16366733125
16366738435
16366746553
16366754365
16366760530
16366768281
16366775056
16366782197
16366787629
16366794526
16366801728
16366809175
16366815217
16366823152
16366831819
16366841584
16366856843
16366862580
16366870881
16366879182
16366885224
16366893525
16366900910
16366908173
16366916108
16366921418
16366928559
16366935944
16366942353
16366949128
16366957001
16366963593
16366969208
16366975739
16366982575
16366989716
16366996430
16367003388
16367009797
16367017609
16367023530
16367030915
16367038483
16367045807
16367053376
16367058808
16367069184
16367077118
16367084992
16367092865
16367102021
16367110871
16367117218
16367124420
16367134369
16367141388
16367148773
16367155731
16367164948
16367170319
16367176117
16367180512
16367186920
16367192169
16367196869
16367204926
16367209625
16367215790
16367219818
16367226532
16367232208
16367237823
16367243011
16367250397
16367255157
16367261444
16367266083
16367271576
16367275787
16367280792
16367290130
16367295624
16367300323
16367305694
16367309601
16367315033
16367318817
16367323028
16367328949
16367335785
16367340789
16367345306
16367351348
16367355499
16367361358
16367367584
16367372772
16367378631
16367383148
16367388397
16367394561
16367399688
16367406341
16367412811
16367419403
16367429656
16367437164
16367441314
16367447845
16367456451
16367461761
16367467498
16367471832
16367476836
16367480621
16367485931
16367491973
16367495757
16367501739
16367506133
16367510711
16367515533
16367521392
16367526153
16367531585
16367537078
16367544036
16367549590
16367555083
16367557769
16367567168
16367572417
16367580047
16367585479
16367590423
16367593535
16367599761
16367606170
16367612151
16367615752
16367623381
16367629485
16367634734
16367637725
16367644744
16367650298
16367657866
16367663726
16367669829
16367674529
16367681670
16367686919
16367692412
16367700041
16367705596
16367710784
16367717070
16367723479
16367728606
16367734221
16367739165
16367745574
16367751250
16367758269
16367764861
16367770232
16367775420
16367782378
16367788908
16367794890
16367800627
16367804900
16367810210
16367817229
16367822172
16367829497
16367833830
16367839873
16367846709
16367852690
16367861418
16367867766
16367873076
16367879118
16367884794
16367890837
16367896208
16367904631
16367911406
16367916960
16367923735
16367930204
16367936308
16367941374
16367947905
16367952970
16367960173
16367963835
16367970549
16367975065
16367981535
16367988615
16367996122
16368002104
16368010343
16368016569
16368026029
16368030729
16368036955
16368042448
16368049711
16368055814
16368062223
16368069059
16368074857
16368081266
16368086576
16368092863
16368097562
16368104826
16368110136
16368113981
16368120206
16368124357
16368131437
16368134244
16368142301
16368145475
16368154447
16368158353
16368165250
16368170560
16368175565
16368180753
16368186124
16368193448
16368199430
16368204496
16368210538
16368214994
16368222013
16368226468
16368232755
16368238553
16368245694
16368250455
16368256864
16368261808
16368267118
16368273770
16368279935
16368284574
16368291471
16368296414
16368303556
16368313260
16368322476
16368331326
16368339810
16368346646
16368355985
16368362271
16368373563
16368380154
16368388333
16368397794
16368403165
16368413174
16368423489
16368430386
16368440091
16368448819
16368454617
16368464444
16368472317
16368480008
16368488125
16368497586
16368503628
16368514065
16368519436
16368530117
16368537503
16368545987
16368554654
16368562771
16368567288
16368577603
16368584255
16368593899
16368600430
16368608303
16368618984
16368626492
16368635281
16368641689
16368651638
16368657864
16368667263
16368673000
16368682949
16368693447
16368700710
16368709743
16368717251
16368728298
16368735134
16368745998
16368753445
16368766628
16368774318
16368780300
16368787319
16368796047
16368803249
16368812526
16368820217
16368826442
16368833217
16368842250
16368848415
16368858303
16368863674
16368873256
16368878810
16368888149
16368895717
16368902736
16368910365
16368917446
16368921596
16368932521
16368940334
16368949733
16368957546
16368964565
16368972743
16368980312
16368988307
16368995509
16369004420
16369011745
16369019008
16369026576
16369035182
16369042079
16369048610
16369056239
16369062343
16369072963
16369079799
16369087489
16369095668
16369103480
16369110072
16369117640
16369123683
16369132533
16369138392
16369147548
16369156092
16369163600
16369170924
16369179103
16369185877
16369194789
16369203089
16369210902
16369219691
16369227320
16369236109
16369242213
16369251978
16369260523
16369267481
16369275965
16369283472
16369291346
16369301112
16369308985
16369316492
16369323511
16369334193
16369341578
16369349940
16369358118
16369364344
16369374109
16369382593
16369392664
16369400904
16369409082
16369417505
16369424280
16369432703
16369441919
16369450098
16369457178
16369467188
16369473291
16369483240
16369488977
16369497644
16369506861
16369515894
16369524805
16369536890
16369543176
16369554468
16369563074
16369570093
16369579431
16369587183
16369595056
16369603784
16369610986
16369617761
16369624231
16369633691
16369638818
16369648889
16369656457
16369663965
16369670556
16369680139
16369687585
16369695459
16369702600
16369710107
16369718469
16369728296
16369736108
16369743005
16369749902
16369757409
16369763818
16369769921
16369775292
16369781884
16369785729
16369792138
16369797082
16369802453
16369805383
16369811486
16369816918
16369824609
16369830468
16369838097
16369842919
16369849328
16369854211
16369860925
16369866723
16369872155
16369877709
16369882592
16369890038
16369896386
16369901818
16369906335
16369912255
16369918114
16369923852
16369928796
16369935143
16369941247
16369947533
16369952843
16369959740
16369965294
16369972191
16369976952
16369983483
16369987999
16369993676
16370001671
16370007653
16370013451
16370020714
16370026146
16370031945
16370037438
16370043053
16370048180
16370053185
16370059960
16370066551
16370072594
16370078148
16370085045
16370089806
16370095909
16370101952
16370108666
16370112694
16370120934
16370125572
16370131188
16370137657
16370143089
16370147423
16370154442
16370163353
16370168602
16370175316
16370182579
16370190269
16370197227
16370201927
16370208153
16370215965
16370221764
16370229088
16370233909
16370239830
16370244346
16370250084
16370256370
16370261314
16370265709
16370271263
16370273765
16370284019
16370287559
16370295311
16370301231
16370307274
16370312462
16370317772
16370322288
16370327415
16370332237
16370337486
16370340843
16370348777
16370353477
16370360923
16370365257
16370372337
16370377403
16370384483
16370390403
16370398826
16370404258
16370410911
16370417076
16370424095
16370429160
16370435569
16370440391
16370445945
16370452476
16370458762
16370465476
16370469688
16370474876
16370480796
16370486961
16370493308
16370499168
16370505820
16370512229
16370517966
16370523337
16370528647
16370535422
16370539207
16370547141
16370551719
16370558005
16370563193
16370570701
16370576499
16370581138
16370588157
16370592429
16370599387
16370604575
16370612571
16370617392
16370622886
16370628073
16370634421
16370641135
16370646384
16370652182
16370658408
16370664328
16370670371
16370676047
16370680564
16370688925
16370694541
16370699851
16370706687
16370712302
16370717001
16370722312
16370728964
16370736716
16370741171
16370747763
16370751547
16370758505
16370765341
16370771201
16370777365
16370784018
16370795126
16370801962
16370808615
16370815451
16370820883
16370827414
16370833273
16370837424
16370843710
16370849142
16370854574
16370860006
16370866720
16370871420
16370878683
16370883383
16370889486
16370894613
16370899191
16370905600
16370911032
16370916647
16370922079
16370928915
16370934042
16370940023
16370944967
16370950277
16370955160
16370961447
16370968832
16370978842
16370986044
16370990377
16371001425
16371009176
16371017416
16371023947
16371034994
16371044454
16371052816
16371059591
16371068990
16371075521
16371084676
16371091329
16371101217
16371107870
16371115194
16371124715
16371131673
16371141683
16371149618
16371157308
16371165670
16371173482
16371181417
16371189657
16371196615
16371207784
16371214925
16371223775
16371232015
16371240316
16371247029
16371255452
16371261922
16371271016
16371280110
16371288350
16371294942
16371303609
16371312886
16371320943
16371327413
16371335164
16371345052
16371353108
16371360738
16371368855
16371378377
16371385396
16371393025
16371401143
16371408711
16371414571
16371422505
16371430073
16371438435
16371446736
16371454793
16371463521
16371469868
16371476460
16371486287
16371492634
16371499043
16371508870
16371517048
16371527913
16371538349
16371546101
16371556721
16371565327
16371575581
16371586262
16371593037
16371603657
16371610920
16371620442
16371627522
16371636555
16371643147
16371651691
16371660542
16371668720
16371676350
16371682575
16371692768
16371700581
16371708088
16371716816
16371724384
16371728412
16371737873
16371746479
16371754413
16371760944
16371769184
16371777118
16371784687
16371791034
16371799091
16371807148
16371812580
16371821857
16371830646
16371838947
16371846576
16371852680
16371861225
16371869037
16371877155
16371886615
16371894245
16371900409
16371909015
16371917194
16371925311
16371933307
16371938861
16371948505
16371955158
16371964191
16371970294
16371979205
16371986285
16371995074
16372000568
16372009967
16372017535
16372024615
16372033587
16372041278
16372049762
16372057330
16372064349
16372073077
16372082232
16372090350
16372098590
16372106952
16372115008
16372123309
16372129779
16372139361
16372146685
16372155535
16372164141
16372170245
16372181048
16372187945
16372198016
16372204058
16372213763
16372223040
16372232806
16372239459
16372247332
16372255083
16372267046
16372273516
16372281634
16372290362
16372298601
16372303179
16372315874
16372324114
16372330584
16372340227
16372349810
16372357744
16372372698
16372378679
16372388567
16372395525
16372405230
16372411882
16372423723
16372430925
16372436907
16372442949
16372449541
16372454119
16372459001
16372463762
16372471147
16372477373
16372483415
16372489031
16372494219
16372499773
16372504778
16372510149
16372515642
16372521440
16372527666
16372532365
16372537187
16372542680
16372548662
16372555620
16372560503
16372565080
16372570634
16372573442
16372582719
16372589311
16372594987
16372597978
16372604692
16372610795
16372616472
16372622575
16372627702
16372634904
16372639726
16372646135
16372650285
16372656206
16372661516
16372666093
16372671892
16372676530
16372683183
16372688005
16372694780
16372700456
16372706987
16372713578
16372718156
16372725358
16372730790
16372735124
16372739518
16372746781
16372751176
16372759416
16372765214
16372771012
16372776017
16372781938
16372789384
16372794389
16372799882
16372807206
16372811967
16372817033
16372821855
16372828324
16372832780
16372838029
16372844193
16372850175
16372855058
16372862260
16372866776
16372874528
16372881058
16372886918
16372893693
16372898331
16372905717
16372911393
16372918290
16372923722
16372930863
16372937638
16372944169
16372950028
16372958329
16372964066
16372971756
16372976883
16372983109
16372989884
16372998246
16373002884
16373012833
16373016556
16373027481
16373033280
16373039566
16373046952
16373052933
16373059830
16373065628
16373071976
16373078568
16373084061
16373090347
16373096390
16373102310
16373107437
16373113846
16373118363
16373124283
16373127823
16373135880
16373141861
16373147293
16373153030
16373157791
16373162857
16373168472
16373174942
16373180130
16373186844
16373192520
16373198013
16373204117
16373209976
16373215835
16373219314
16373228226
16373235245
16373239883
16373244644
16373251419
16373257034
16373264480
16373269302
16373274856
16373282974
16373289627
16373294815
16373302139
16373307083
16373314041
16373320327
16373326126
16373333328
16373337905
16373343948
16373350906
16373357742
16373362991
16373369277
16373374099
16373381912
16373387161
16373394790
16373399307
16373407852
16373414199
16373418044
16373425063
16373431167
16373438979
16373443069
16373451675
16373456924
16373464187
16373470290
16373476455
16373482375
16373491164
16373498427
16373506667
16373513137
16373519301
16373522536
16373532424
16373537368
16373544997
16373549209
16373558181
16373563613
16373569594
16373575026
16373582534
16373587355
16373595656
16373604201
16373609999
16373618911
16373629164
16373635451
16373644789
16373651625
16373658644
16373665358
16373670790
16373677077
16373683547
16373690566
16373696974
16373704237
16373712538
16373728529
16373742812
16373753737
16373763502
16373771620
16373779860
16373786635
16373793715
16373801222
16373807936
16373814955
16373821608
16373828505
16373834608
16373841322
16373847059
16373854445
16373860182
16373864637
16373872999
16373879774
16373884962
16373893385
16373898939
16373905714
16373910658
16373917433
16373926283
16373933180
16373940870
16373947950
16373954542
16373961073
16373969313
16373975782
16373982801
16373990248
16373995191
16374002271
16374007704
16374014967
16374023145
16374031324
16374037794
16374045850
16374052137
16374060438
16374067579
16374076673
16374085157
16374092542
16374100904
16374106763
16374115125
16374122999
16374129774
16374137342
16374144361
16374151502
16374159375
16374167005
16374175306
16374183912
16374191602
16374197644
16374206006
16374215100
16374222303
16374231580
16374240247
16374248365
16374255933
16374263196
16374271863
16374281690
16374289807
16374297315
16374306531
16374315137
16374322827
16374329297
16374336438
16374345471
16374352124
16374359143
16374366956
16374373730
16374381482
16374391003
16374397534
16374406262
16374412243
16374421460
16374428601
16374434765
16374443860
16374452771
16374461010
16374468701
16374475232
16374482922
16374489880
16374498791
16374510327
16374522229
16374531384
16374539624
16374548962
16374559399
16374571057
16374580639
16374592175
16374603954
16374612805
16374622204
16374630261
16374640392
16374650829
16374659557
16374669140
16374680126
16374689892
16374703075
16374713207
16374723583
16374733898
16374744091
16374754345
16374764232
16374774181
16374785289
16374794445
16374805126
16374815380
16374826000
16374835704
16374846508
16374856212
16374865856
16374876720
16374886852
16374895824
16374903026
16374916332
16374927013
16374937267
16374947948
16374957225
16374967235
16374977183
16374986156
16374995860
16375007091
16375016490
16375026744
16375035106
16375045421
16375055674
16375067027
16375076426
16375087779
16375099131
16375109019
16375119212
16375129222
16375135691
16375146922
16375157054
16375165110
16375172373
16375179881
16375189158
16375198679
16375204417
16375212840
16375222483
16375228159
16375237925
16375245310
16375252818
16375260325
16375269541
16375276255
16375285166
16375293101
16375298594
16375307261
16375312571
16375323374
16375331003
16375338694
16375350046
16375358408
16375366037
16375372507
16375380869
16375388742
16375396555
16375404673
16375411509
16375419565
16375426462
16375434030
16375441782
16375449045
16375456369
16375463571
16375470835
16375478647
16375485422
16375490122
16375501352
16375510385
16375516245
16375524301
16375529855
16375538522
16375544504
16375552866
16375561899
16375569955
16375578928
16375585947
16375594064
16375601572
16375608163
16375618295
16375626291
16375633676
16375640634
16375649484
16375657785
16375663766
16375672006
16375678231
16375688729
16375695321
16375705087
16375711068
16375721994
16375729684
16375739083
16375746774
16375753671
16375761666
16375770333
16375777291
16375786324
16375795602
16375802133
16375811532
16375819283
16375830514
16375834420
16375845834
16375851510
16375856210
16375863412
16375867867
16375875130
16375879769
16375886361
16375892586
16375898629
16375901986
16375907540
16375912484
16375917977
16375923043
16375927926
16375932931
16375937386
16375943184
16375948433
16375952706
16375957467
16375962899
16375968514
16375972603
16375979927
16375983834
16375989876
16375992257
16375999764
16376004769
16376010689
16376015938
16376020760
16376025276
16376030587
16376035652
16376040901
16376045540
16376050667
16376056771
16376061714
16376066292
16376071419
16376077034
16376082527
16376090767
16376095772
16376102242
16376107979
16376113838
16376119820
16376124580
16376131355
16376135872
16376142342
16376144539
16376152473
16376157661
16376162605
16376168037
16376173225
16376180611
16376186714
16376192207
16376198189
16376201423
16376206978
16376212105
16376217598
16376222847
16376227363
16376233650
16376237739
16376245064
16376249397
16376254646
16376261055
16376266426
16376271614
16376278267
16376282539
16376287910
16376294258
16376299324
16376305061
16376312019
16376317695
16376324714
16376328865
16376335517
16376339851
16376347969
16376355964
16376362434
16376366645
16376375251
16376385688
16376393623
16376401801
16376409126
16376419685
16376428107
16376436042
16376442207
16376449470
16376458198
16376463752
16376472297
16376481086
16376487311
16376494636
16376504035
16376511970
16376521247
16376526618
16376536200
16376543219
16376553901
16376559882
16376570136
16376576178
16376584418
16376593268
16376601630
16376610236
16376620551
16376626654
16376637213
16376644721
16376652899
16376660163
16376669013
16376675910
16376686163
16376692694
16376701849
16376710150
16376717596
16376723700
16376731879
16376740912
16376749091
16376758185
16376763861
16376773810
16376781195
16376790594
16376797430
16376807745
16376815985
16376823553
16376831000
16376839239
16376848822
16376856939
16376861090
16376872076
16376879461
16376890448
16376896917
16376907293
16376913641
16376920660
16376930548
16376937628
16376947271
16376955389
16376963934
16376969793
16376980169
16376988165
16376995733
16377003545
16377013555
16377021368
16377028631
16377037298
16377045171
16377053411
16377063177
16377070318
16377080572
16377089605
16377098089
16377106512
16377112615
16377121282
16377127569
16377136785
16377146550
16377154973
16377161138
16377170171
16377179876
16377188237
16377197271
16377206182
16377214604
16377221807
16377232488
16377241460
16377250188
16377260259
16377266667
16377275456
16377283147
16377290105
16377298711
16377305364
16377314763
16377323125
16377330327
16377338506
16377345341
16377353032
16377362370
16377370244
16377377385
16377383366
16377392827
16377399235
16377406743
16377414067
16377423832
16377431401
16377440068
16377446843
16377454167
16377462651
16377470585
16377477726
16377485844
16377495488
16377504399
16377510990
16377519413
16377526188
16377533940
16377543522
16377551823
16377560978
16377567509
16377577274
16377584965
16377592411
16377600224
16377608341
16377616764
16377626896
16377632511
16377642765
16377649967
16377658878
16377665348
16377674320
16377684086
16377692448
16377699100
16377708378
16377714847
16377723636
16377732975
16377739505
16377749271
16377755253
16377764713
16377771976
16377782291
16377789981
16377797367
16377804996
16377815128
16377821781
16377832035
16377837650
16377848575
16377852725
16377862552
16377871402
16377877139
16377882510
16377888126
16377894534
16377898990
16377905643
16377911624
16377916202
16377922549
16377929630
16377934695
16377941104
16377945254
16377952090
16377957095
16377962283
16377968570
16377973758
16377983218
16377987796
16377995425
16378000857
16378008059
16378013980
16378020328
16378026248
16378034915
16378041018
16378046389
16378051211
16378057681
16378062075
16378069156
16378074160
16378079287
16378084719
16378089785
16378095279
16378100650
16378107180
16378113406
16378120181
16378125918
16378132083
16378137698
16378142092
16378148623
16378153445
16378159792
16378164553
16378171145
16378175845
16378181399
16378188601
16378192996
16378199770
16378205325
16378210268
16378214663
16378221560
16378227847
16378233706
16378238100
16378243777
16378248354
16378255495
16378263308
16378268130
16378274660
16378280215
16378284792
16378289980
16378297182
16378301394
16378308535
16378313967
16378319216
16378325686
16378330813
16378336123
16378343874
16378348147
16378353884
16378360781
16378366823
16378371889
16378379152
16378384096
16378390566
16378395327
16378402651
16378409792
16378416567
16378421083
16378427858
16378432192
16378438600
16378443544
16378450075
16378458315
16378464479
16378468019
16378475466
16378479799
16378487489
16378493044
16378500246
16378506105
16378512880
16378519411
16378524355
16378530275
16378534547
16378541017
16378547731
16378553224
16378559145
16378564394
16378570192
16378577089
16378583681
16378589235
16378595338
16378601442
16378613099
16378618226
16378624940
16378631532
16378637758
16378642946
16378648805
16378656617
16378661561
16378666932
16378672364
16378677125
16378683412
16378687928
16378692933
16378698365
16378706239
16378709413
16378716310
16378722413
16378727601
16378731874
16378737855
16378743775
16378748841
16378752992
16378758790
16378762879
16378769593
16378775636
16378781495
16378787843
16378792909
16378797547
16378803590
16378810242
16378814698
16378821229
16378825440
16378832764
16378837647
16378844239
16378849488
16378856385
16378862122
16378867127
16378872315
16378878541
16378885987
16378891541
16378896912
16378903016
16378908265
16378915284
16378920105
16378926819
16378933533
16378939820
16378944886
16378952393
16378957215
16378964112
16378968567
16378974610
16378982178
16378986939
16378993775
16378999146
16379005616
16379010071
16379017395
16379022522
16379027771
16379034729
16379041443
16379046875
16379052002
16379058167
16379064758
16379072205
16379081299
16379089050
16379097717
16379106812
16379115051
16379122620
16379131348
16379138367
16379146789
16379155517
16379164429
16379171387
16379181213
16379187317
16379195801
16379204040
16379212341
16379220337
16379235351
16379242309
16379249267
16379259765
16379267028
16379278808
16379286377
16379297241
16379306335
16379316955
16379324157
16379332092
16379342285
16379350280
16379356262
16379367309
16379374999
16379383056
16379387389
16379398254
16379405090
16379415405
16379421874
16379431457
16379437987
16379447753
16379456786
16379464355
16379471007
16379479186
16379488830
16379495727
16379505736
16379513122
16379520507
16379531066
16379538634
16379545165
16379554931
16379561400
16379569091
16379578490
16379585387
16379593077
16379599913
16379608885
16379617613
16379626036
16379634154
16379643492
16379651854
16379658446
16379668700
16379675047
16379685179
16379692687
16379700804
16379710143
16379718260
16379726561
16379734068
16379741148
16379751158
16379758238
16379766966
16379773985
16379783751
16379790098
16379799925
16379806456
16379815306
16379824400
16379832701
16379841734
16379848143
16379857786
16379864195
16379873350
16379879454
16379888304
16379895750
16379903440
16379912168
16379921995
16379929746
16379936582
16379944517
16379951231
16379958006
16379966306
16379977720
16379985105
16379991209
16379999265
16380007017
16380014890
16380021421
16380030637
16380040403
16380049070
16380056150
16380064634
16380074216
16380083311
16380091123
16380099607
16380113706
16380119748
16380130124
16380140439
16380148679
16380158506
16380165830
16380173032
16380185605
16380192929
16380199948
16380206967
16380216733
16380225644
16380234799
16380243161
16380251218
16380259152
16380266965
16380277768
16380286435
16380294125
16380300595
16380309872
16380316037
16380323483
16380332883
16380340512
16380347531
16380356869
16380365964
16380372250
16380381772
16380390378
16380398495
16380405148
16380413388
16380421383
16380429074
16380437314
16380445004
16380451474
16380459225
16380467343
16380477414
16380485287
16380493954
16380500851
16380509762
16380516110
16380525143
16380532894
16380539730
16380549252
16380557430
16380561703
16380568112
16380574093
16380578060
16380583675
16380588863
16380596127
16380601131
16380608334
16380613155
16380619686
16380625606
16380631649
16380637081
16380643795
16380649593
16380655147
16380659969
16380666317
16380672603
16380678890
16380684200
16380690609
16380696834
16380702389
16380707210
16380713741
16380718624
16380724788
16380731807
16380737423
16380743404
16380748958
16380753414
16380758724
16380764522
16380769649
16380776729
16380784053
16380788753
16380795345
16380799922
16380807613
16380813167
16380820735
16380826717
16380835567
16380840877
16380847347
16380851985
16380858699
16380864131
16380868831
16380874568
16380880000
16380884090
16380889644
16380895076
16380900447
16380906856
16380912837
16380920222
16380926021
16380930476
16380935359
16380942012
16380948054
16380952876
16380960017
16380965571
16380972346
16380978023
16380983211
16380990108
16380993159
16381001887
16381007991
16381012080
16381018855
16381024470
16381029048
16381035945
16381040522
16381046443
16381052363
16381056453
16381063838
16381068354
16381075190
16381082209
16381087886
16381093135
16381098262
16381104609
16381110285
16381116084
16381122553
16381126399
16381134699
16381140925
16381146357
16381151484
16381157099
16381163874
16381173396
16381178095
16381184199
16381190058
16381196650
16381200007
16381206843
16381212275
16381219477
16381224787
16381231684
16381236689
16381243220
16381247797
16381254511
16381261713
16381266108
16381273371
16381277949
16381283442
16381289972
16381297358
16381303095
16381308344
16381315851
16381322565
16381325861
16381333551
16381338984
16381347406
16381352350
16381358332
16381364923
16381369135
16381376703
16381381037
16381387873
16381394037
16381400690
16381407892
16381413751
16381422479
16381427912
16381434015
16381441156
16381448480
16381453119
16381458124
16381463617
16381469904
16381474909
16381479547
16381483942
16381490106
16381494867
16381499689
16381506219
16381511224
16381516351
16381523798
16381527338
16381535089
16381540521
16381546075
16381551324
16381557245
16381563165
16381568536
16381573419
16381579584
16381585504
16381592645
16381596612
16381605157
16381610711
16381616327
16381621087
16381626703
16381633355
16381637384
16381645257
16381652887
16381659661
16381663507
16381671075
16381675714
16381682672
16381686761
16381694329
16381700128
16381706109
16381711541
16381716790
16381722405
16381729119
16381734673
16381740472
16381746819
16381751336
16381758477
16381767144
16381775079
16381781182
16381789727
16381797173
16381805718
16381813348
16381821954
16381830193
16381836907
16381846856
16381853326
16381860222
16381870293
16381878472
16381888665
16381898125
16381904778
16381911492
16381921135
16381929070
16381936699
16381946526
16381954033
16381962700
16381970635
16381979729
16381987419
16381994255
16382004448
16382014214
16382022026
16382029656
16382037956
16382046379
16382055046
16382063774
16382071831
16382084160
16382092949
16382101067
16382108147
16382117973
16382126091
16382135857
16382144340
16382151176
16382162834
16382169060
16382179619
16382184135
16382196037
16382203666
16382211784
16382218925
16382227531
16382234367
16382243156
16382251762
16382260429
16382267387
16382277336
16382286064
16382295646
16382302421
16382312736
16382319938
16382328056
16382335502
16382344291
16382352348
16382360221
16382370597
16382376212
16382384574
16382394889
16382401054
16382410148
16382418388
16382428092
16382437797
16382445792
16382455619
16382468680
16382477042
16382485343
16382494132
16382504752
16382514396
16382520499
16382529837
16382534049
16382544059
16382550162
16382561148
16382569327
16382577445
16382584403
16382591727
16382597708
16382610892
16382618643
16382629202
16382638358
16382644461
16382652640
16382662039
16382667777
16382676505
16382684683
16382691580
16382698721
16382707327
16382714346
16382721854
16382730643
16382737784
16382744742
16382752371
16382760306
16382767691
16382775442
16382783255
16382790701
16382798452
16382807486
16382815298
16382823172
16382831045
16382839834
16382847586
16382854055
16382862417
16382871206
16382877310
16382887442
16382894461
16382904104
16382911184
16382921377
16382929678
16382938162
16382947439
16382954336
16382963491
16382970693
16382979787
16382989858
16382995718
16383006155
16383012868
16383022329
16383029897
16383036672
16383046316
16383053396
16383059987
16383070730
16383078969
16383085866
16383095571
16383102407
16383110585
16383117543
16383123647
16383133046
16383139882
16383147512
16383155263
16383162770
16383170583
16383178823
16383186330
16383193959
16383202565
16383209157
16383220021
16383227590
16383233388
16383242116
16383250539
16383257985
16383263783
16383269032
16383275380
16383281300
16383287343
16383291676
16383298451
16383304372
16383310414
16383314748
16383321400
16383328236
16383333363
16383340077
16383344655
16383348988
16383355092
16383359974
16383367299
16383372975
16383378163
16383383900
16383390614
16383395497
16383400380
16383405690
16383412831
16383418080
16383423329
16383428517
16383434864
16383440907
16383446888
16383452626
16383458668
16383465321
16383472096
16383475514
16383482655
16383489247
16383493458
16383501209
16383506092
16383511830
16383518604
16383523060
16383528614
16383536122
16383540089
16383546375
16383550892
16383558277
16383564869
16383570484
16383577808
16383582386
16383587513
16383593983
16383598438
16383605274
16383612843
16383619800
16383625599
16383631336
16383638416
16383645985
16383651356
16383658558
16383663929
16383672474
16383678577
16383683582
16383690113
16383695667
16383699512
16383706348
16383711048
16383717884
16383722095
16383728992
16383734790
16383739856
16383745594
16383751026
16383756641
16383761829
16383767566
16383772510
16383777149
16383783557
16383789966
16383797473
16383803028
16383809741
16383814563
16383822070
16383826831
16383833179
16383836536
16383844837
16383849597
16383856677
16383861865
16383868701
16383874072
16383880237
16383885852
16383890247
16383897510
16383902393
16383909717
16383915271
16383920825
16383926196
16383932422
16383937854
16383944446
16383951221
16383957751
16383964343
16383970386
16383973620
16383981738
16383987292
16383993396
16383998523
16384005969
16384011340
16384016589
16384024035
16384032336
16384037768
16384044238
16384051013
16384058398
16384063525
16384070056
16384074755
16384080432
16384086718
16384092578
16384098254
16384103320
16384110522
16384117541
16384122851
16384126574
16384134631
16384139330
16384145129
16384152270
16384157946
16384163744
16384170641
16384177477
16384183581
16384186755
16384197680
16384201403
16384211535
16384216601
16384222765
16384227648
16384235888
16384241503
16384249743
16384254687
16384262438
16384273485
16384279406
16384287829
16384294420
16384299242
16384303942
16384309435
16384313524
16384319078
16384322985
16384328417
16384333727
16384338182
16384344164
16384350512
16384354723
16384361010
16384365892
16384372545
16384377794
16384384874
16384390367
16384396532
16384402147
16384407213
16384411608
16384417650
16384422960
16384428087
16384433824
16384440233
16384444994
16384450914
16384454881
16384460680
16384467943
16384475877
16384481615
16384490099
16384499315
16384509141
16384521410
16384525865
16384538011
16384545152
16384553514
16384560838
16384571824
16384580247
16384586595
16384593126
16384602891
16384609727
16384621080
16384627855
16384636155
16384645005
16384653184
16384662034
16384669786
16384678575
16384685411
16384693345
16384700852
16384710679
16384718553
16384726182
16384730515
16384743516
16384752061
16384760301
16384767075
16384775437
16384782151
16384792832
16384801743
16384807786
16384816575
16384825120
16384831528
16384840806
16384849534
16384855698
16384866685
16384875779
16384882432
16384890122
16384899949
16384908371
16384915940
16384923996
16384931626
16384939072
16384947983
16384958237
16384967575
16384977707
16384985642
16384993332
16385002732
16385011276
16385020798
16385030014
16385046127
16385054367
16385061813
16385069626
16385075851
16385085129
16385094101
16385101730
16385108017
16385117599
16385124863
16385132065
16385140854
16385148361
16385155990
16385162826
16385172043
16385179245
16385183334
16385195175
16385199203
16385209030
16385219772
16385226791
16385234359
16385241989
16385248153
16385257492
16385264694
16385272567
16385280319
16385287948
16385296005
16385303573
16385310165
16385317916
16385326888
16385334579
16385340682
16385349471
16385355514
16385364669
16385371017
16385380477
16385387313
16385394271
16385404281
16385413375
16385422042
16385427962
16385438277
16385444625
16385454574
16385462508
16385470199
16385476973
16385487166
16385493392
16385502242
16385511702
16385517928
16385524886
16385535079
16385544844
16385553450
16385560347
16385570784
16385577437
16385587081
16385593855
16385600875
16385611067
16385617232
16385626814
16385635848
16385643233
16385649580
16385675887
16385684737
16385693343
16385701033
16385709456
16385718672
16385727034
16385734541
16385743147
16385749983
16385760298
16385765791
16385776045
16385784346
16385792891
16385801741
16385810469
16385820234
16385828230
16385836653
16385847700
16385853376
16385864302
16385870588
16385880537
16385884504
16385896650
16385904157
16385911787
16385918501
16385926069
16385934492
16385942182
16385951399
16385959028
16385965253
16385972700
16385978010
16385983808
16385988630
16385995710
16386001264
16386009504
16386013898
16386017744
16386023420
16386027265
16386034345
16386038251
16386046918
16386053510
16386059125
16386064985
16386068769
16386075116
16386077863
16386085065
16386090375
16386097028
16386102765
16386108258
16386112836
16386117536
16386126630
16386135541
16386141462
16386147992
16386154584
16386159345
16386165326
16386169782
16386176007
16386180707
16386189496
16386194257
16386200421
16386206342
16386213483
16386218732
16386224469
16386231915
16386236798
16386243573
16386248761
16386256146
16386261700
16386267804
16386271527
16386280560
16386284344
16386290570
16386294720
16386299908
16386305218
16386310101
16386317120
16386322247
16386327435
16386332257
16386336896
16386343182
16386347333
16386353314
16386359051
16386366375
16386370709
16386377911
16386383099
16386389203
16386392560
16386400921
16386409588
16386415509
16386423565
16386427960
16386435101
16386441388
16386450543
16386461163
16386467633
16386472576
16386477520
16386481854
16386486370
16386493328
16386499066
16386504254
16386508465
16386513592
16386518841
16386522930
16386529156
16386535320
16386540386
16386546063
16386549603
16386555767
16386561749
16386567181
16386574322
16386579388
16386585125
16386590130
16386595562
16386602520
16386607342
16386614178
16386619732
16386625164
16386632000
16386638286
16386642559
16386648479
16386653545
16386658733
16386665630
16386670757
16386678447
16386684246
16386689800
16386694927
16386701091
16386710125
16386716716
16386722393
16386728374
16386733562
16386739666
16386745464
16386748394
16386757793
16386761577
16386769268
16386774272
16386781780
16386787090
16386792705
16386797649
16386804912
16386810466
16386816509
16386823711
16386829448
16386834392
16386840801
16386845989
16386852885
16386857829
16386862773
16386869426
16386874126
16386881145
16386885478
16386892253
16386897319
16386902019
16386907573
16386913249
16386921062
16386928447
16386934062
16386939433
16386945109
16386950053
16386954875
16386960795
16386966655
16386972087
16386977092
16386982280
16386986796
16386992656
16386998393
16387004435
16387009257
16387017375
16387025187
16387031169
16387037699
16387043559
16387050700
16387055705
16387061564
16387069010
16387073710
16387078837
16387083293
16387087687
16387094279
16387100382
16387104899
16387109965
16387116984
16387126688
16387134989
16387142497
16387152079
16387160136
16387166850
16387174662
16387181498
16387190592
16387201884
16387210673
16387219034
16387227457
16387234415
16387243632
16387250590
16387258341
16387265543
16387273050
16387280619
16387289713
16387296610
16387300699
16387312052
16387319132
16387327066
16387336222
16387344156
16387351419
16387359781
16387366434
16387375528
16387384439
16387389810
16387399820
16387408731
16387415384
16387422586
16387432352
16387440347
16387447977
16387454691
16387465311
16387470987
16387481607
16387489358
16387495706
16387505716
16387512430
16387519205
16387529092
16387537942
16387545816
16387554422
16387560525
16387569803
16387577371
16387583841
16387592080
16387599344
16387608194
16387617959
16387623635
16387632608
16387640176
16387646035
16387653482
16387660501
16387670938
16387678445
16387686624
16387693948
16387697976
16387707742
16387715127
16387722512
16387731973
16387745095
16387753518
16387761330
16387772256
16387781655
16387790322
16387801308
16387813149
16387820229
16387827553
16387833230
16387844033
16387848366
16387860512
16387864907
16387876809
16387884255
16387891457
16387897988
16387907509
16387914711
16387922280
16387928810
16387936379
16387942482
16387951454
16387960854
16387966652
16387975197
16387983010
16387992531
16387998207
16388006203
16388014626
16388020790
16388029335
16388037575
16388043434
16388052773
16388058998
16388067909
16388074074
16388082863
16388089821
16388096901
16388105080
16388114174
16388119301
16388128944
16388135658
16388142738
16388151588
16388158912
16388167640
16388174659
16388182533
16388189857
16388199745
16388207069
16388215309
16388223976
16388232093
16388240882
16388247657
16388255348
16388261329
16388270545
16388276832
16388284828
16388291541
16388301612
16388308875
16388322059
16388328956
16388339393
16388346412
16388355750
16388361671
16388370277
16388377296
16388386939
16388396155
16388404883
16388411536
16388421912
16388428016
16388437781
16388445838
16388453589
16388460486
16388469031
16388477454
16388485999
16388493506
16388504065
16388512000
16388520484
16388527808
16388536353
16388544287
16388554358
16388560523
16388571387
16388581092
16388590247
16388594153
16388603247
16388610022
16388616248
16388621008
16388626013
16388630835
16388635840
16388640967
16388646460
16388651221
16388656226
16388662878
16388668127
16388673315
16388679053
16388681799
16388691382
16388696570
16388702612
16388710913
16388716162
16388722021
16388726782
16388731543
16388736059
16388741247
16388746252
16388750525
16388755896
16388760229
16388765967
16388771887
16388776587
16388783117
16388788427
16388795202
16388800695
16388806128
16388813330
16388819250
16388823950
16388829870
16388835668
16388839880
16388847204
16388853124
16388857458
16388861608
16388868261
16388874792
16388880041
16388884313
16388892065
16388898596
16388904333
16388908972
16388915563
16388922460
16388928564
16388936254
16388940954
16388945715
16388953466
16388960485
16388966589
16388971532
16388977453
16388983007
16388989355
16388999853
16389004491
16389010961
16389015233
16389022375
16389027074
16389035802
16389042638
16389047704
16389053380
16389060643
16389065709
16389073156
16389078893
16389086644
16389093480
16389099889
16389105748
16389111547
16389118688
16389124364
16389129674
16389135350
16389141820
16389150182
16389157384
16389162572
16389169103
16389173314
16389180150
16389185643
16389192845
16389199986
16389206212
16389210240
16389216161
16389220006
16389226964
16389231297
16389238622
16389243199
16389247960
16389253819
16389258946
16389263097
16389269078
16389273717
16389281346
16389286656
16389291844
16389296788
16389302464
16389308934
16389314488
16389321324
16389326939
16389329686
16389337926
16389342137
16389350377
16389355198
16389360264
16389367711
16389372654
16389377476
16389382542
16389387852
16389393711
16389398106
16389404637
16389409642
16389417271
16389421727
16389428318
16389433384
16389439488
16389445286
16389450901
16389455906
16389463230
16389469578
16389474888
16389479344
16389484348
16389491306
16389497227
16389502354
16389508762
16389514256
16389520237
16389525303
16389530247
16389537937
16389540745
16389548252
16389555637
16389561863
16389565037
16389572483
16389577305
16389585422
16389589695
16389597690
16389603001
16389611057
16389616306
16389622532
16389627537
16389633579
16389639438
16389644138
16389651096
16389658603
16389664158
16389669529
16389674900
16389681064
16389687168
16389693454
16389697666
16389704929
16389710666
16389716281
16389721469
16389728122
16389734775
16389740451
16389748386
16389757663
16389766269
16389777561
16389787631
16389795993
16389803317
16389812595
16389820529
16389829562
16389835971
16389844943
16389851291
16389860446
16389867831
16389874972
16389882358
16389891940
16389899814
16389907687
16389915500
16389923923
16389932284
16389940463
16389947116
16389957309
16389963961
16389973056
16389981845
16389987826
16389998629
16390008029
16390014804
16390022860
16390032626
16390038974
16390048556
16390056185
16390063937
16390071139
16390079440
16390088290
16390097201
16390104952
16390113253
16390120028
16390128085
16390137057
16390143954
16390153597
16390161044
16390169161
16390177340
16390185030
16390192721
16390201082
16390205599
16390216585
16390226900
16390233187
16390239779
16390249788
16390256746
16390266817
16390273653
16390284517
16390291658
16390299410
16390307833
16390315950
16390323275
16390331880
16390341219
16390349459
16390356172
16390363741
16390373323
16390379183
16390389253
16390397188
16390404817
16390414095
16390421785
16390429475
16390437959
16390445894
16390454317
16390461153
16390471040
16390477815
16390488740
16390495332
16390504976
16390511995
16390521333
16390528596
16390535554
16390545503
16390554353
16390565034
16390574922
16390583772
16390595918
16390607454
16390615022
16390624665
16390636323
16390643647
16390651032
16390659028
16390666657
16390675569
16390684541
16390692475
16390701692
16390709382
16390717439
16390723054
16390731843
16390740815
16390747041
16390753999
16390763276
16390772431
16390778596
16390787202
16390795930
16390803559
16390811860
16390818879
16390826874
16390834321
16390840607
16390847443
16390858918
16390864533
16390873566
16390881989
16390890412
16390898407
16390904877
16390911774
16390922577
16390930268
16390939057
16390946076
16390953522
16390960724
16390966461
16390973847
16390982941
16390989227
16390998749
16391006500
16391012665
16391020416
16391027985
16391035736
16391042694
16391052093
16391059418
16391068512
16391075531
16391083343
16391090484
16391094391
16391105560
16391115387
16391122711
16391127167
16391137176
16391143890
16391151581
16391158233
16391167511
16391174286
16391183319
16391192657
16391198394
16391206451
16391214874
16391221160
16391229461
16391238494
16391244476
16391252105
16391255706
16391262298
16391267120
16391273040
16391277191
16391283538
16391291778
16391296844
16391301971
16391308379
16391312896
16391319488
16391324493
16391333953
16391339812
16391348602
16391354522
16391358611
16391369537
16391375457
16391384307
16391389556
16391395965
16391401702
16391406035
16391413604
16391418303
16391423797
16391429900
16391435821
16391442412
16391447783
16391454619
16391459868
16391465850
16391469756
16391478362
16391485869
16391490813
16391495513
16391501799
16391508818
16391514556
16391520110
16391526152
16391531768
16391542021
16391547820
16391554961
16391560271
16391566313
16391572905
16391579314
16391585173
16391592436
16391599028
16391603850
16391609099
16391616423
16391624113
16391629118
16391636687
16391643401
16391648527
16391656218
16391660490
16391665312
16391672148
16391678374
16391684477
16391690092
16391695891
16391699370
16391707426
16391712980
16391718291
16391725187
16391730803
16391736540
16391742582
16391748442
16391753935
16391759672
16391765654
16391772123
16391778593
16391784575
16391790861
16391796904
16391803495
16391809416
16391813078
16391821134
16391828276
16391834379
16391840727
16391846037
16391852506
16391858671
16391863188
16391869962
16391876982
16391884306
16391887602
16391896757
16391901884
16391908292
16391915067
16391919218
16391927213
16391932829
16391940763
16391945707
16391953092
16391957426
16391964201
16391970792
16391977323
16391988187
16391993375
16391999845
16392007474
16392013883
16392018949
16392025297
16392031156
16392038602
16392044034
16392050504
16392056302
16392061918
16392066678
16392071927
16392076871
16392081876
16392087918
16392093595
16392096585
16392104032
16392108731
16392114102
16392117826
16392124723
16392130338
16392136197
16392139005
16392145658
16392150296
16392158231
16392165250
16392172269
16392178067
16392184903
16392189603
16392195767
16392201077
16392208218
16392213528
16392218533
16392225125
16392230252
16392236844
16392242825
16392248257
16392252652
16392259732
16392265530
16392271817
16392278409
16392283291
16392289151
16392296048
16392301785
16392306424
16392313748
16392317776
16392325039
16392329800
16392337307
16392343472
16392349270
16392354092
16392362210
16392368679
16392374722
16392381192
16392387539
16392393643
16392399014
16392404263
16392411343
16392418118
16392424893
16392430020
16392435940
16392440701
16392447598
16392452969
16392461392
16392466335
16392473538
16392478115
16392484646
16392490139
16392497402
16392502346
16392508633
16392513760
16392520901
16392527370
16392533596
16392539761
16392545620
16392551052
16392558010
16392566555
16392573330
16392580593
16392584804
16392592129
16392597317
16392604641
16392611660
16392617397
16392623440
16392630520
16392636806
16392640590
16392645656
16392652187
16392657436
16392664211
16392670925
16392677089
16392681667
16392688137
16392692287
16392698329
16392702846
16392709133
16392716457
16392720851
16392725490
16392731533
16392736110
16392741970
16392747402
16392752223
16392758998
16392765712
16392769435
16392775600
16392780849
16392785549
16392790981
16392798427
16392804652
16392810024
16392816859
16392822780
16392828761
16392834560
16392841396
16392846706
16392852016
16392858729
16392864711
16392871303
16392874965
16392882777
16392887355
16392893825
16392899562
16392905665
16392912623
16392916957
16392922877
16392930140
16392935634
16392940944
16392946986
16392951198
16392959193
16392964442
16392968837
16392973719
16392981532
16392986354
16392992579
16392997828
16393002711
16393010096
16393015284
16393021571
16393027735
16393033045
16393039454
16393045741
16393053797
16393060023
16393065272
16393071253
16393075953
16393082301
16393087855
16393094141
16393098963
16393106165
16393111353
16393117213
16393123866
16393128443
16393135767
16393140650
16393146876
16393152918
16393158961
16393167200
16393174769
16393180506
16393187464
16393190821
16393200464
16393214441
16393220911
16393227137
16393232813
16393238489
16393242701
16393248255
16393253809
16393260706
16393266138
16393271326
16393276575
16393281519
16393284388
16393293360
16393298731
16393304041
16393308374
16393316004
16393321375
16393326319
16393329309
16393336450
16393341944
16393348352
16393351282
16393358362
16393363916
16393368006
16393372583
16393379480
16393387781
16393393762
16393399011
16393404565
16393409326
16393415552
16393419702
16393425867
16393430444
16393437646
16393442224
16393448267
16393452661
16393459009
16393465234
16393470178
16393475732
16393482873
16393489587
16393493860
16393500207
16393506738
16393511438
16393517358
16393523523
16393528833
16393535119
16393541040
16393545739
16393550683
16393557763
16393562890
16393568017
16393575097
16393582116
16393586450
16393592981
16393597924
16393602990
16393608972
16393614770
16393622399
16393628442
16393631249
16393638818
16393644006
16393650170
16393654748
16393661462
16393666711
16393674462
16393679284
16393686303
16393691064
16393697656
16393702355
16393709802
16393716088
16393725365
16393732140
16393737511
16393743859
16393748376
16393755151
16393761315
16393767846
16393774316
16393779870
16393787926
16393793847
16393799645
16393809350
16393816430
16393824303
16393831139
16393835900
16393842186
16393846154
16393851220
16393855675
16393865441
16393870507
16393875389
16393879845
16393885338
16393890648
16393896080
16393901635
16393907555
16393914269
16393921898
16393927086
16393932030
16393934960
16393941490
16393945580
16393952110
16393956017
16393963219
16393969689
16393974388
16393979210
16393986168
16393991417
16393997459
16394001854
16394007957
16394012169
16394018883
16394023705
16394028099
16394035484
16394041283
16394045799
16394050438
16394056908
16394061851
16394067284
16394073448
16394079613
16394085655
16394091087
16394098717
16394104027
16394108726
16394115135
16394118248
16394126610
16394131370
16394137779
16394145164
16394151451
16394154625
16394162071
16394167320
16394174278
16394179954
16394185447
16394192894
16394197044
16394203880
16394209129
16394216697
16394221641
16394226951
16394233116
16394239280
16394246971
16394253623
16394259117
16394265159
16394269248
16394275596
16394280906
16394287254
16394294700
16394302634
16394307334
16394314903
16394320335
16394327720
16394333884
16394341514
16394347678
16394355613
16394362205
16394368918
16394374167
16394380393
16394386130
16394393760
16394401389
16394407554
16394413657
16394420066
16394426413
16394431846
16394436118
16394443442
16394449668
16394455649
16394459983
16394466819
16394473166
16394478720
16394484030
16394490073
16394495566
16394503012
16394507590
16394513510
16394518027
16394524436
16394530417
16394536582
16394541586
16394549216
16394553366
16394558920
16394565878
16394570700
16394577780
16394582663
16394589499
16394594992
16394601523
16394606894
16394612387
16394618002
16394625937
16394631796
16394637350
16394642844
16394649557
16394656027
16394662192
16394668234
16394673422
16394679892
16394686545
16394693869
16394698569
16394704916
16394711935
16394719565
16394726095
16394731283
16394737265
16394745382
16394752035
16394760641
16394767172
16394772726
16394779379
16394785238
16394790670
16394797567
16394805990
16394812399
16394817648
16394823568
16394826620
16394833822
16394838827
16394846029
16394851522
16394858114
16394862814
16394869833
16394874410
16394881246
16394886861
16394894003
16394901693
16394907613
16394914571
16394918356
16394925069
16394929830
16394936971
16394941793
16394949728
16394955099
16394961996
16394967245
16394972616
16394979268
16394984640
16394990560
16394996419
16395004354
16395011190
16395016561
16395022970
16395030172
16395036641
16395042867
16395050313
16395056417
16395061666
16395065511
16395070943
16395075887
16395080770
16395084676
16395091085
16395097432
16395103170
16395107198
16395113668
16395118367
16395124776
16395128621
16395134908
16395142720
16395148946
16395153890
16395159200
16395164327
16395169393
16395175008
16395182210
16395187520
16395193868
16395199239
16395203450
16395208272
16395214375
16395219319
16395226094
16395231404
16395237996
16395242940
16395249715
16395254964
16395259907
16395266682
16395271992
16395277424
16395283833
16395289876
16395295979
16395299275
16395306111
16395312764
16395319478
16395323323
16395332051
16395337727
16395343586
16395348164
16395355549
16395359089
16395365132
16395373005
16395379475
16395384785
16395390400
16395396199
16395402180
16395409748
16395415669
16395421589
16395426533
16395432331
16395435505
16395444294
16395450031
16395456013
16395459370
16395468098
16395473652
16395480244
16395486591
16395492451
16395497639
16395503620
16395508930
16395515095
16395520832
16395525837
16395533527
16395538471
16395544514
16395550190
16395556110
16395562763
16395568195
16395573017
16395579914
16395585468
16395593769
16395600849
16395607258
16395611713
16395618793
16395625812
16395630695
16395639545
16395646442
16395651874
16395658832
16395663044
16395669208
16395674396
16395681293
16395686237
16395692096
16395698139
16395703327
16395707599
16395713092
16395721454
16395726459
16395733295
16395737323
16395745380
16395750079
16395756549
16395761005
16395766315
16395773029
16395778339
16395783038
16395789508
16395792438
16395802570
16395807574
16395812640
16395818317
16395825153
16395829974
16395836627
16395843402
16395847735
16395855182
16395860614
16395865741
16395871417
16395877276
16395884173
16395889728
16395895953
16395901507
16395906268
16395912494
16395919391
16395925860
16395929339
16395936786
16395942035
16395948260
16395955340
16395961077
16395966082
16395972247
16395977496
16395983844
16395989764
16395995440
16396000811
16396003741
16396012408
16396019183
16396025714
16396031756
16396038531
16396044207
16396049822
16396057330
16396063433
16396072161
16396078265
16396083636
16396089617
16396096636
16396103655
16396110003
16396116717
16396123614
16396130205
16396136370
16396143572
16396148638
16396155962
16396161272
16396167376
16396173174
16396179766
16396187945
16396192339
16396199907
16396205706
16396211870
16396216387
16396223345
16396232134
16396239397
16396246416
16396253374
16396257524
16396266252
16396272356
16396277605
16396283342
16396290422
16396295183
16396301409
16396306230
16396312517
16396318010
16396324297
16396328935
16396335893
16396340227
16396344194
16396350115
16396354204
16396361467
16396367510
16396372453
16396378618
16396385210
16396394426
16396400529
16396406450
16396411211
16396417253
16396426103
16396433183
16396438982
16396444536
16396450456
16396455705
16396461076
16396466264
16396471147
16396476884
16396483964
16396488908
16396495805
16396501115
16396506425
16396512346
16396517473
16396525773
16396531572
16396537187
16396542314
16396547380
16396553666
16396559831
16396565446
16396571366
16396577409
16396582292
16396587297
16396593705
16396599748
16396604325
16396610368
16396617387
16396624040
16396629106
16396635758
16396639970
16396645463
16396652665
16396657243
16396664201
16396669206
16396676103
16396681107
16396686234
16396692521
16396698197
16396702958
16396708695
16396717118
16396724625
16396728532
16396734513
16396740250
16396746171
16396752457
16396758073
16396763749
16396769852
16396776017
16396780289
16396786271
16396792496
16396798905
16396802750
16396809708
16396816361
16396823258
16396829422
16396835709
16396844315
16396851151
16396858353
16396865372
16396870865
16396876358
16396886734
16396893631
16396899308
16396905106
16396910538
16396916702
16396922623
16396929215
16396934036
16396940384
16396944718
16396950821
16396957779
16396963333
16396968582
16396974808
16396980545
16396986465
16396991592
16396998184
16397005203
16397010025
16397015213
16397021500
16397026504
16397032242
16397037308
16397043167
16397051224
16397057327
16397062881
16397069961
16397075149
16397080398
16397086502
16397091568
16397098587
16397103653
16397110244
16397117263
16397123916
16397127884
16397135513
16397141922
16397152481
16397158828
16397168838
16397175247
16397180801
16397187820
16397193740
16397201919
16397207534
16397214004
16397219863
16397226333
16397229995
16397237747
16397244033
16397250564
16397256362
16397263015
16397270095
16397275283
16397280227
16397286147
16397292129
16397298598
16397305801
16397310867
16397315993
16397323074
16397327956
16397335586
16397342361
16397347365
16397355178
16397361465
16397365676
16397372756
16397380324
16397387465
16397396560
16397401503
16397408095
16397412490
16397417251
16397422622
16397429213
16397435500
16397442397
16397448500
16397454848
16397460219
16397466567
16397471816
16397477431
16397483840
16397489760
16397496169
16397500502
16397506606
16397511733
16397516921
16397522719
16397527541
16397531935
16397538710
16397543654
16397548171
16397553359
16397558058
16397563002
16397568068
16397576064
16397580824
16397585768
16397590407
16397595656
16397600172
16397605971
16397611220
16397616774
16397623549
16397627943
16397633253
16397639235
16397643873
16397647597
16397652479
16397659621
16397665175
16397668104
16397674879
16397679823
16397685866
16397690504
16397696852
16397700880
16397708143
16397712965
16397719618
16397723951
16397729933
16397734022
16397741224
16397746717
16397753065
16397759291
16397765028
16397770094
16397775892
16397780287
16397786268
16397792189
16397797743
16397805189
16397809461
16397816725
16397822340
16397827467
16397832533
16397837721
16397843153
16397848463
16397854139
16397859632
16397865308
16397870741
16397873670
16397880933
16397888136
16397894178
16397899610
16397906934
16397911146
16397916212
16397921217
16397928419
16397934217
16397941785
16397946912
16397952650
16397958387
16397963331
16397970716
16397976148
16397981458
16397988172
16397994153
16397999585
16398006055
16398011487
16398017713
16398023328
16398030164
16398037305
16398044385
16398050855
16398057447
16398062940
16398067578
16398074109
16398080030
16398085095
16398090406
16398095532
16398102490
16398107984
16398112744
16398117505
16398123059
16398130811
16398137158
16398143750
16398148633
16398153821
16398158948
16398164258
16398168897
16398175061
16398182507
16398187695
16398193005
16398198682
16398203564
16398208630
16398213696
16398219861
16398228467
16398234692
16398237927
16398245129
16398249646
16398256238
16398260510
16398266125
16398271008
16398277905
16398282849
16398288769
16398293225
16398298352
16398305188
16398311108
16398315869
16398322094
16398326916
16398333386
16398339123
16398344372
16398349499
16398355358
16398360424
16398365979
16398372998
16398378002
16398383496
16398390209
16398395214
16398400341
16398406201
16398412670
16398419018
16398423657
16398430676
16398435803
16398442028
16398447399
16398453442
16398461681
16398468273
16398476574
16398482616
16398489269
16398494823
16398503124
16398510021
16398519970
16398527843
16398534435
16398543896
16398552807
16398559704
16398566662
16398576427
16398583568
16398590343
16398599498
16398605114
16398617443
16398625805
16398633129
16398641063
16398643383
16398656871
16398664684
16398672008
16398680492
16398691600
16398701183
16398706676
16398718456
16398725780
16398732433
16398743480
16398748363
16398760448
16398768382
16398776439
16398780833
16398789745
16398795421
16398803966
16398809215
16398816783
16398822459
16398830028
16398834910
16398842540
16398847179
16398854136
16398861033
16398867747
16398871226
16398880504
16398883433
16398892283
16398897166
16398902781
16398906138
16398914134
16398921153
16398928843
16398936106
16398941844
16398947276
16398953807
16398958506
16398964793
16398972117
16398977671
16398983470
16398988902
16398994151
16398999339
16399005320
16399011424
16399019175
16399026988
16399033274
16399040110
16399047251
16399054026
16399058970
16399066966
16399071543
16399079234
16399084605
16399091135
16399097544
16399102366
16399108591
16399116343
16399122080
16399126719
16399131418
16399138193
16399141917
16399149363
16399155527
16399161570
16399167917
16399173227
16399179392
16399185251
16399190745
16399197092
16399203074
16399209421
16399216684
16399222055
16399225412
16399234140
16399238291
16399244211
16399249338
16399255381
16399261057
16399268381
16399275949
16399281565
16399286264
16399292673
16399297983
16399304819
16399312204
16399316843
16399324045
16399328439
16399334055
16399341684
16399348093
16399354318
16399360788
16399365976
16399374155
16399382761
16399387521
16399398508
16399405710
16399410104
16399416635
16399422128
16399427621
16399432382
16399437326
16399444345
16399448923
16399455942
16399460885
16399466989
16399471139
16399476693
16399483285
16399489084
16399494699
16399499887
16399505807
