16470453990
16470457591
16470460948
16470464549
16470467906
16470471324
16470474925
16470479319
16470482859
16470486888
16470491282
16470494944
16470499217
16470503001
16470508189
16470512828
16470516856
16470521495
16470526560
16470532481
16470538035
16470544200
16470550242
16470554698
16470558360
16470565562
16470573863
16470579905
16470585154
16470592051
16470598216
16470606089
16470611704
16470622202
16470629282
16470636912
16470650645
16470658945
16470671274
16470679453
16470692698
16470703501
16470713266
16470721140
16470728281
16470734751
16470742197
16470747141
16470755686
16470762888
16470770212
16470776072
16470783152
16470788767
16470798715
16470806040
16470813547
16470822641
16470827524
16470835031
16470841440
16470847849
16470855478
16470861276
16470870004
16470876352
16470883005
16470889291
16470894601
16470903391
16470910349
16470915842
16470922189
16470928476
16470935251
16470940622
16470948373
16470951974
16470961069
16470967172
16470973398
16470979440
16470986093
16470993905
16470999399
16471005075
16471012155
16471018747
16471024423
16471031564
16471038217
16471043283
16471053537
16471061898
16471066842
16471077523
16471083200
16471090219
16471097177
16471102548
16471109567
16471115609
16471124581
16471132699
16471138375
16471144906
16471150765
16471156320
16471163339
16471171090
16471181161
16471187142
16471193185
16471200021
16471207711
16471216683
16471223641
16471230477
16471239571
16471245736
16471255379
16471263375
16471272774
16471281014
16471289376
16471295235
16471301766
16471308236
16471314888
16471322274
16471329293
16471335213
16471340218
16471348885
16471356087
16471363411
16471371468
16471376595
16471383919
16471389717
16471397286
16471404610
16471410836
16471418526
16471426766
16471432503
16471440315
16471446236
16471454659
16471460884
16471466927
16471475411
16471480843
16471488655
16471495430
16471505074
16471511421
16471519966
16471528023
16471535469
16471543404
16471552193
16471559517
16471568794
16471575569
16471584236
16471590156
16471597908
16471607429
16471614387
16471621101
16471628303
16471636970
16471644477
16471651802
16471659187
16471666389
16471674568
16471681831
16471688362
16471696784
16471705635
16471713752
16471719856
16471726386
16471734382
16471738838
16471749397
16471757819
16471764350
16471774055
16471781440
16471790717
16471795600
16471805915
16471814277
16471824592
16471831306
16471840156
16471848701
16471855903
16471865424
16471873786
16471885322
16471897407
16471903083
16471909858
16471915656
16471922370
16471930121
16471936835
16471942389
16471948066
16471952826
16471958136
16471962592
16471967047
16471972602
16471976813
16471982306
16471987555
16471994025
16471999457
16472006232
16472011420
16472015692
16472021796
16472027838
16472032233
16472036627
16472042792
16472047919
16472054877
16472059699
16472065619
16472070990
16472078375
16472083563
16472086981
16472095465
16472098944
16472106146
16472112616
16472118170
16472121466
16472129828
16472133490
16472140326
16472143805
16472150580
16472154486
16472164068
16472168463
16472175543
16472179693
16472185919
16472191351
16472197271
16472203314
16472210333
16472216131
16472222418
16472228338
16472234503
16472241888
16472247625
16472252264
16472258551
16472263983
16472270208
16472276922
16472282904
16472290106
16472295111
16472301275
16472306768
16472312383
16472316046
16472326361
16472332403
16472337103
16472340704
16472348272
16472354131
16472359869
16472365179
16472372442
16472378118
16472385381
16472390630
16472396734
16472403082
16472409246
16472418035
16472424322
16472429082
16472434576
16472440740
16472446355
16472452947
16472459173
16472465703
16472471624
16472478704
16472481634
16472492559
16472495733
16472505193
16472510015
16472519536
16472528631
16472534307
16472541082
16472548467
16472553838
16472558599
16472563909
16472568181
16472575322
16472580388
16472585698
16472590459
16472596257
16472602605
16472607854
16472615422
16472620061
16472625676
16472630315
16472635503
16472638982
16472647344
16472652898
16472659001
16472662358
16472670110
16472673650
16472681584
16472685796
16472692998
16472698491
16472705327
16472711186
16472717168
16472724065
16472729802
16472734624
16472740727
16472747136
16472753178
16472761479
16472767644
16472772526
16472776433
16472785466
16472789250
16472797123
16472802861
16472809453
16472814885
16472821537
16472826542
16472833256
16472839665
16472844242
16472850956
16472855595
16472862797
16472869328
16472874211
16472879704
16472886601
16472892521
16472898075
16472905094
16472911747
16472917362
16472924870
16472929814
16472936039
16472941471
16472945072
16472953983
16472957951
16472966984
16472973698
16472978642
16472984013
16472991154
16472996586
16473003910
16473009708
16473017033
16473021976
16473028751
16473033695
16473041447
16473046879
16473049015
16473059269
16473063907
16473071354
16473075260
16473083439
16473088810
16473095707
16473101017
16473108463
16473114567
16473123966
16473131168
16473137577
16473146427
16473154728
16473161197
16473170902
16473180179
16473187809
16473196720
16473204898
16473211368
16473219119
16473225711
16473235965
16473240543
16473249942
16473256534
16473266788
16473271243
16473280399
16473287051
16473295779
16473303348
16473313541
16473318790
16473329898
16473335147
16473346072
16473350894
16473361453
16473366336
16473378116
16473382876
16473394046
16473398806
16473409488
16473417971
16473426333
16473429263
16473442263
16473449832
16473458010
16473462893
16473474673
16473483706
16473492007
16473499331
16473508059
16473516787
16473523074
16473532229
16473540652
16473548098
16473556704
16473564883
16473573611
16473582888
16473589419
16473597536
16473605898
16473615054
16473621462
16473631106
16473639468
16473648012
16473654543
16473663332
16473671877
16473680178
16473688967
16473695925
16473704043
16473711977
16473719118
16473727846
16473736147
16473745424
16473752321
16473762209
16473771364
16473780336
16473787538
16473795656
16473805178
16473813844
16473820864
16473829225
16473838686
16473847048
16473854311
16473863466
16473870363
16473878725
16473886903
16473897523
16473902162
16473912538
16473922670
16473931886
16473939638
16473948976
16473956422
16473966066
16473971254
16473983766
16473989381
16474001039
16474010682
16474016847
16474025392
16474034547
16474043031
16474049928
16474058900
16474067628
16474075807
16474084596
16474094422
16474100892
16474110475
16474118775
16474127503
16474133851
16474144166
16474150575
16474160462
16474169618
16474177064
16474183595
16474194459
16474201051
16474210145
16474216553
16474226136
16474235902
16474244630
16474250733
16474259339
16474268555
16474276063
16474282593
16474292725
16474299134
16474309754
16474316224
16474324463
16474330262
16474340027
16474346436
16474354004
16474363892
16474372071
16474379151
16474389710
16474396790
16474405030
16474412110
16474423096
16474428223
16474438843
16474445984
16474455566
16474462647
16474472229
16474480408
16474489624
16474499207
16474508789
16474514282
16474524780
16474532837
16474540710
16474545532
16474559021
16474566955
16474575378
16474583679
16474592102
16474599548
16474608276
16474615356
16474624267
16474632446
16474637817
16474641845
16474651428
16474657714
16474662658
16474666626
16474675598
16474682739
16474688049
16474695556
16474701171
16474707397
16474712280
16474718444
16474727111
16474732543
16474741027
16474747680
16474760619
16474764648
16474772460
16474777953
16474783935
16474789489
16474793395
16474799804
16474803588
16474808837
16474813720
16474819091
16474822753
16474828490
16474832641
16474838256
16474843627
16474849547
16474853454
16474859374
16474863158
16474868468
16474873473
16474877990
16474882873
16474888183
16474891845
16474896972
16474903930
16474908996
16474915404
16474921141
16474925658
16474929015
16474936888
16474942321
16474947448
16474952941
16474959288
16474964232
16474969908
16474974913
16474981932
16474986510
16474993224
16474998229
16475004820
16475009459
16475015990
16475020445
16475027159
16475034300
16475039183
16475045714
16475049559
16475057799
16475062865
16475069457
16475075682
16475082701
16475085020
16475096068
16475101256
16475107420
16475109557
16475118590
16475124998
16475129759
16475133604
16475141783
16475145933
16475155028
16475158934
16475167296
16475172300
16475177794
16475182982
16475189085
16475193602
16475199400
16475206724
16475213133
16475218565
16475224180
16475228880
16475235044
16475243528
16475249144
16475255308
16475257627
16475266416
16475270445
16475278196
16475282102
16475290098
16475295835
16475302244
16475307249
16475313352
16475317686
16475327390
16475332945
16475342100
16475346128
16475355100
16475361875
16475367185
16475374387
16475378599
16475385069
16475389646
16475397642
16475402158
16475407163
16475414304
16475418638
16475422544
16475428281
16475434141
16475438413
16475444028
16475448667
16475453550
16475460081
16475464780
16475470579
16475475095
16475481748
16475487241
16475492063
16475497678
16475502622
16475505918
16475512754
16475518186
16475525083
16475530637
16475536008
16475540586
16475545652
16475550717
16475556577
16475564878
16475570188
16475576657
16475582395
16475587216
16475593503
16475599607
16475605222
16475610044
16475616391
16475620725
16475625302
16475632138
16475635251
16475641232
16475646726
16475654477
16475660764
16475680844
16475685422
16475692075
16475696347
16475703061
16475707455
16475713437
16475718808
16475723141
16475730588
16475735409
16475740109
16475745480
16475750607
16475755185
16475760190
16475761960
16475771054
16475778378
16475784482
16475793454
16475800717
16475810360
16475815731
16475823910
16475831356
16475841366
16475849057
16475856686
16475863461
16475869625
16475878414
16475887020
16475894467
16475904720
16475912838
16475921261
16475930721
16475937862
16475946224
16475954159
16475961239
16475969662
16475976986
16475984371
16475990963
16475999935
16476006344
16476014156
16476020687
16476030453
16476037166
16476046627
16476053829
16476063350
16476073238
16476077511
16476091182
16476098201
16476106136
16476113704
16476122554
16476130062
16476136592
16476145015
16476151729
16476161190
16476169490
16476177059
16476182369
16476191402
16476200435
16476206966
16476214656
16476222408
16476228633
16476235896
16476243831
16476253474
16476262202
16476272029
16476279353
16476283931
16476293880
16476300410
16476307674
16476315425
16476324397
16476332820
16476338679
16476346858
16476352595
16476359858
16476367671
16476375361
16476381953
16476390620
16476397822
16476406001
16476412532
16476420832
16476428157
16476435847
16476440364
16476449519
16476454035
16476464472
16476472834
16476480952
16476489192
16476495478
16476503535
16476511103
16476517207
16476524958
16476533320
16476539546
16476548762
16476556147
16476564814
16476571101
16476580012
16476588435
16476595148
16476603815
16476613459
16476619684
16476629633
16476636896
16476645991
16476653864
16476661188
16476670038
16476680353
16476690851
16476697321
16476708674
16476717585
16476724176
16476730829
16476742792
16476747553
16476757807
16476762445
16476773126
16476777582
16476787531
16476792047
16476802728
16476811456
16476819330
16476826166
16476833978
16476842523
16476848871
16476859064
16476865350
16476874261
16476880121
16476888483
16476897394
16476904596
16476912836
16476920465
16476927057
16476937128
16476943719
16476952447
16476959100
16476967462
16476974115
16476983758
16476991143
16476999444
16477007318
16477015069
16477019586
16477028802
16477036554
16477045831
16477054498
16477062860
16477067926
16477077630
16477086846
16477093560
16477102288
16477111932
16477121331
16477129937
16477137750
16477146478
16477153619
16477162530
16477171319
16477179192
16477184991
16477191521
16477198235
16477203973
16477207818
16477215264
16477218804
16477226617
16477232964
16477238885
16477242730
16477249688
16477253228
16477260247
16477264336
16477272332
16477278740
16477283928
16477287896
16477297173
16477301506
16477308709
16477314141
16477322503
16477329460
16477334710
16477338311
16477347405
16477351189
16477358269
16477362664
16477373650
16477378411
16477384941
16477391350
16477398735
16477405571
16477412102
16477417961
16477423576
16477429802
16477436699
16477440300
16477448357
16477451714
16477458305
16477461601
16477468254
16477472832
16477479118
16477484184
16477490471
16477496330
16477502006
16477506828
16477514336
16477522331
16477529838
16477536308
16477541679
16477546379
16477553093
16477556389
16477565239
16477571342
16477577507
16477583488
16477589042
16477595268
16477599968
16477605522
16477612541
16477619316
16477623405
16477629509
16477633537
16477639396
16477644889
16477650016
16477656120
16477663383
16477668327
16477673576
16477679862
16477685234
16477689445
16477697257
16477704765
16477710990
16477716300
16477721488
16477727958
16477733024
16477739494
16477745353
16477750480
16477756950
16477763297
16477767997
16477774345
16477779838
16477784293
16477791190
16477798453
16477803947
16477810416
16477816398
16477821464
16477826957
16477832389
16477839347
16477857352
16477864554
16477869498
16477876151
16477880790
16477887504
16477895438
16477901175
16477907767
16477912467
16477919181
16477924369
16477931327
16477936698
16477944205
16477950736
16477956595
16477963736
16477969351
16477977286
16477984244
16477991202
16477996817
16478006888
16478013175
16478018485
16478024161
16478030509
16478035696
16478041068
16478046072
16478051993
16478057730
16478064749
16478068411
16478076346
16478081473
16478088370
16478093130
16478098135
16478102835
16478108267
16478111075
16478118460
16478124380
16478129812
16478135672
16478141409
16478146536
16478151785
16478156241
16478161978
16478169302
16478173636
16478179922
16478184073
16478189871
16478195364
16478200552
16478207754
16478213675
16478219656
16478225332
16478230215
16478235891
16478240530
16478246145
16478252615
16478258413
16478262991
16478269644
16478274160
16478279287
16478283926
16478290518
16478295095
16478302480
16478306082
16478313284
16478318289
16478324270
16478329275
16478337209
16478342275
16478351186
16478360036
16478366323
16478371267
16478382436
16478387624
16478399038
16478406362
16478414541
16478417409
16478430105
16478437063
16478446035
16478454946
16478464101
16478470998
16478479360
16478488027
16478494558
16478502614
16478511159
16478519521
16478528920
16478535939
16478543813
16478551747
16478557668
16478566823
16478576467
16478585195
16478597890
16478606252
16478615651
16478623525
16478633473
16478642629
16478654042
16478659657
16478669789
16478675465
16478682606
16478689687
16478698781
16478707081
16478714528
16478723683
16478730946
16478739979
16478744740
16478754567
16478759266
16478769093
16478773976
16478783986
16478792714
16478799183
16478806202
16478814015
16478821217
16478831105
16478838063
16478848805
16478853627
16478861927
16478868519
16478878407
16478886402
16478893788
16478901661
16478910267
16478915272
16478926136
16478934254
16478940540
16478947437
16478956776
16478965504
16478971607
16478980396
16478989124
16478994373
16479005298
16479012623
16479022571
16479031360
16479038318
16479047718
16479056507
16479063282
16479071644
16479078602
16479088062
16479097034
16479103809
16479111866
16479120105
16479129200
16479135852
16479145862
16479153308
16479163013
16479169910
16479177722
16479182239
16479192188
16479200672
16479208545
16479217456
16479226367
16479233875
16479238757
16479247852
16479257922
16479266711
16479273914
16479281055
16479290149
16479296802
16479304980
16479311511
16479324267
16479331042
16479338733
16479350757
16479359179
16479367724
16479375720
16479386157
16479391833
16479405566
16479415454
16479421069
16479431445
16479439929
16479446337
16479454150
16479462207
16479470263
16479476794
16479484362
16479492724
16479501147
16479508227
16479515368
16479522082
16479536120
16479542712
16479550402
16479563830
16479570666
16479579272
16479586413
16479592333
16479598742
16479607409
16479612047
16479622057
16479631029
16479638537
16479645983
16479654467
16479661486
16479665819
16479678026
16479685595
16479690599
16479698473
16479705065
16479713610
16479720140
16479728685
16479735216
16479740892
16479745897
16479751696
16479759264
16479763780
16479770067
16479775804
16479782152
16479786913
16479793688
16479799974
16479806017
16479812120
16479817980
16479824144
16479829149
16479834703
16479840196
16479845506
16479850816
16479856737
16479863084
16479868883
16479873399
16479884813
16479890733
16479896348
16479901597
16479908555
16479913743
16479920701
16479926317
16479932664
16479939988
16479945115
16479951585
16479955980
16479963792
16479970933
16479975328
16479981492
16479986436
16479995591
16480003343
16480009751
16480016343
16480023240
16480029588
16480034043
16480042710
16480047044
16480055162
16480060350
16480065415
16480071336
16480078843
16480084214
16480089707
16480096360
16480102281
16480107407
16480112901
16480119370
16480123765
16480131089
16480135239
16480143967
16480149827
16480156541
16480160996
16480166123
16480171494
16480177476
16480183884
16480190903
16480196274
16480201951
16480207261
16480213669
16480218491
16480225266
16480230210
16480236252
16480242234
16480249680
16480254502
16480258286
16480266892
16480270737
16480280198
16480284043
16480289963
16480295273
16480301438
16480308396
16480315476
16480320298
16480326096
16480330796
16480337754
16480345017
16480347275
16480356247
16480358322
16480367478
16480371079
16480379990
16480384018
16480391831
16480398544
16480403366
16480407272
16480414902
16480420517
16480427902
16480433334
16480438644
16480443588
16480450180
16480456528
16480461472
16480466843
16480470932
16480480331
16480487045
16480491806
16480495956
16480503525
16480509567
16480516586
16480523422
16480528183
16480537094
16480542221
16480548141
16480555587
16480561691
16480566086
16480574508
16480580246
16480588302
16480593917
16480600998
16480606918
16480615524
16480622177
16480628036
16480633712
16480640731
16480649154
16480657333
16480662155
16480670150
16480673812
16480681381
16480685836
16480691757
16480696884
16480703719
16480708724
16480714828
16480719405
16480724715
16480728866
16480734786
16480741195
16480746383
16480750716
16480757308
16480761886
16480768722
16480772750
16480779403
16480786666
16480792464
16480796920
16480801986
16480806808
16480813582
16480817611
16480822921
16480829513
16480835982
16480840682
16480846358
16480852462
16480859420
16480864119
16480867598
16480876937
16480883529
16480887923
16480894271
16480899337
16480902694
16480910811
16480916365
16480922103
16480928328
16480937789
16480945174
16480953414
16480958113
16480969588
16480974410
16480984358
16480991133
16480999983
16481009444
16481015425
16481023848
16481031783
16481036543
16481048750
16481055647
16481063460
16481068220
16481078169
16481087385
16481095259
16481098555
16481111311
16481116316
16481127730
16481135054
16481142866
16481149946
16481158247
16481166548
16481175703
16481182600
16481191206
16481199079
16481205122
16481213606
16481221846
16481229475
16481236250
16481247053
16481251386
16481260176
16481268476
16481275984
16481283918
16481295637
16481306623
16481317182
16481325971
16481332868
16481341230
16481350568
16481359785
16481369245
16481376264
16481384931
16481393476
16481401105
16481406721
16481415510
16481424360
16481432783
16481439435
16481448469
16481455121
16481462995
16481469037
16481481122
16481488752
16481496259
16481502912
16481512983
16481517682
16481527448
16481533979
16481545636
16481554853
16481561444
16481569440
16481575910
16481583844
16481590436
16481602948
16481611249
16481619183
16481625958
16481634076
16481641705
16481647626
16481655804
16481666608
16481674237
16481681683
16481689130
16481695660
16481703168
16481711346
16481721478
16481732098
16481736676
16481745465
16481753705
16481761517
16481768780
16481776471
16481786419
16481792950
16481801800
16481808758
16481816632
16481821270
16481831768
16481842388
16481847882
16481856671
16481864483
16481872418
16481878704
16481888958
16481898541
16481906475
16481913555
16481922466
16481928143
16481936565
16481947247
16481953960
16481964397
16481969219
16481979778
16481987774
16481995708
16482004314
16482010967
16482022381
16482030803
16482038982
16482046306
16482054912
16482059917
16482073406
16482083965
16482092327
16482104351
16482110698
16482118206
16482125652
16482135051
16482143413
16482149455
16482157268
16482163432
16482172588
16482178813
16482185832
16482191875
16482201640
16482207683
16482217204
16482223857
16482230510
16482237651
16482246562
16482256511
16482260844
16482271831
16482279155
16482283977
16482290446
16482296550
16482303386
16482306926
16482314555
16482318095
16482325175
16482333171
16482339030
16482344035
16482350505
16482356181
16482360515
16482367106
16482371806
16482379435
16482385966
16482395427
16482401957
16482410075
16482413920
16482422709
16482430339
16482438395
16482444071
16482448466
16482452983
16482457621
16482462321
16482467448
16482472575
16482478922
16482483317
16482487772
16482491984
16482497416
16482502238
16482506815
16482511759
16482516154
16482519206
16482525614
16482530009
16482536539
16482542887
16482547037
16482551859
16482555765
16482562113
16482564860
16482573649
16482578959
16482582865
16482588663
16482594279
16482598612
16482604288
16482609293
16482617289
16482622477
16482629435
16482635477
16482640604
16482645548
16482651651
16482656168
16482662577
16482669779
16482673258
16482680216
16482684488
16482690104
16482694742
16482700113
16482705606
16482710794
16482714334
16482720011
16482723062
16482729654
16482733194
16482742166
16482746805
16482752359
16482757913
16482763468
16482768839
16482774637
16482780130
16482786173
16482792520
16482797586
16482803201
16482808572
16482814249
16482819070
16482824625
16482831827
16482837869
16482843607
16482849222
16482853433
16482859048
16482864358
16482869668
16482875528
16482881387
16482886880
16482891519
16482897623
16482903543
16482907815
16482913675
16482920633
16482926736
16482932718
16482937295
16482944131
16482947305
16482955179
16482959024
16482966775
16482973550
16482980325
16482986795
16482993325
16482999734
16483004800
16483011392
16483017007
16483023599
16483030557
16483036233
16483042947
16483045083
16483054055
16483057839
16483065347
16483071816
16483078103
16483083657
16483090371
16483095864
16483102212
16483107705
16483115212
16483120034
16483125771
16483131326
16483137246
16483139077
16483147866
16483155190
16483160683
16483167031
16483171364
16483177407
16483183449
16483192055
16483197549
16483203713
16483211281
16483216652
16483222939
16483229592
16483234719
16483240822
16483245034
16483249917
16483255471
16483260781
16483265114
16483269814
16483275063
16483279030
16483284523
16483288857
16483293068
16483299416
16483304177
16483311074
16483315346
16483321877
16483327370
16483333657
16483338906
16483345314
16483349770
16483357033
16483362709
16483370522
16483378700
16483385353
16483391640
16483398659
16483404884
16483414101
16483420509
16483429115
16483435829
16483446205
16483454384
16483462074
16483469032
16483477760
16483485145
16483492225
16483500526
16483507362
16483517189
16483524391
16483531471
16483538490
16483546058
16483552223
16483560035
16483569435
16483576393
16483586097
16483592872
16483602699
16483611915
16483618202
16483626625
16483632667
16483639808
16483646461
16483654762
16483663917
16483672218
16483679481
16483687537
16483694862
16483704749
16483712135
16483721778
16483728736
16483737525
16483746314
16483754676
16483762244
16483770423
16483777076
16483788428
16483797034
16483806312
16483815162
16483820899
16483831275
16483835853
16483851111
16483862891
16483873267
16483879920
16483890723
16483899939
16483911536
16483920752
16483929602
16483936621
16483941626
16483951026
16483961096
16483967749
16483974219
16483983801
16483991675
16483997107
16484008460
16484015051
16484024939
16484036841
16484042334
16484051977
16484060339
16484068152
16484075537
16484082861
16484092138
16484098730
16484108496
16484115271
16484124914
16484132788
16484142614
16484150427
16484157690
16484166723
16484171667
16484180151
16484189856
16484198034
16484204565
16484213354
16484220800
16484229528
16484236791
16484242101
16484253820
16484263403
16484273596
16484279699
16484286413
16484295995
16484305395
16484311315
16484321813
16484329321
16484339635
16484349706
16484355260
16484365453
16484372533
16484382238
16484391149
16484397924
16484407323
16484417089
16484426366
16484434423
16484443639
16484451024
16484457921
16484467748
16484473790
16484482762
16484492284
16484500890
16484507054
16484515782
16484524022
16484533544
16484540685
16484551183
16484559483
16484571141
16484580846
16484593602
16484599889
16484612889
16484621983
16484631993
16484639745
16484648045
16484659093
16484666478
16484674779
16484683262
16484692174
16484697728
16484702488
16484707615
16484714818
16484718785
16484725865
16484729283
16484736241
16484740330
16484746983
16484751011
16484760533
16484765782
16484771885
16484779271
16484787266
16484793431
16484800328
16484808873
16484813084
16484819981
16484826206
16484831455
16484840183
16484846531
16484853855
16484858494
16484865147
16484869053
16484876621
16484881382
16484887241
16484897556
16484902683
16484912266
16484917393
16484922398
16484929172
16484934666
16484939671
16484945652
16484950596
16484956760
16484962620
16484968906
16484973362
16484980137
16484984348
16484990513
16484995762
16485001804
16485009067
16485014377
16485019016
16485025486
16485030857
16485036899
16485045383
16485049961
16485057529
16485062900
16485068698
16485074009
16485080356
16485085544
16485090671
16485097324
16485102329
16485109836
16485114658
16485120944
16485125583
16485132602
16485136569
16485143894
16485149082
16485155368
16485160434
16485166416
16485172702
16485179294
16485183994
16485190891
16485195895
16485203098
16485211642
16485220065
16485225192
16485232272
16485236056
16485244113
16485254123
16485259494
16485264621
16485269565
16485273715
16485279758
16485286410
16485291659
16485297885
16485302096
16485309970
16485314120
16485322482
16485326205
16485333529
16485338351
16485344149
16485348910
16485354831
16485360690
16485367404
16485372714
16485377963
16485384494
16485389376
16485395297
16485401278
16485405917
16485411532
16485416110
16485424655
16485429721
16485436434
16485442233
16485447726
16485452548
16485459994
16485465731
16485469576
16485476840
16485483614
16485489718
16485495089
16485500399
16485506564
16485511691
16485519198
16485526156
16485531466
16485536593
16485542940
16485549654
16485554720
16485558565
16485566195
16485570589
16485579317
16485583285
16485590792
16485594637
16485602266
16485608309
16485613558
16485620272
16485626619
16485632296
16485637362
16485644136
16485650972
16485657198
16485662569
16485668917
16485678072
16485684114
16485690706
16485696932
16485703951
16485712313
16485717867
16485724642
16485730989
16485737276
16485743807
16485749056
16485753877
16485759920
16485766268
16485772066
16485777681
16485784517
16485790804
16485795808
16485801607
16485807222
16485813814
16485817903
16485827669
16485835054
16485843477
16485849641
16485855684
16485861665
16485866975
16485874666
16485879793
16485886445
16485892305
16485897371
16485902620
16485909456
16485917268
16485924714
16485933625
16485940706
16485946626
16485954194
16485960176
16485969453
16485973664
16485983430
16485991243
16485998689
16486006745
16486014192
16486021150
16486028657
16486035432
16486045258
16486053987
16486061555
16486069428
16486075349
16486083894
16486091889
16486101106
16486109956
16486115693
16486125031
16486132722
16486140046
16486148530
16486157868
16486165070
16486171967
16486182099
16486186616
16486195832
16486202179
16486210602
16486217072
16486228730
16486236603
16486244355
16486250580
16486258210
16486262848
16486273163
16486277924
16486290802
16486298859
16486306122
16486314911
16486323334
16486331269
16486338532
16486349640
16486358734
16486365509
16486372589
16486382660
16486389862
16486399017
16486407318
16486415070
16486425995
16486435455
16486442413
16486451935
16486457001
16486467926
16486477936
16486484283
16486492523
16486499847
16486511444
16486519745
16486528717
16486540924
16486549408
16486556488
16486566192
16486572845
16486581817
16486592315
16486602264
16486611419
16486619476
16486627349
16486635223
16486644256
16486650604
16486658233
16486665008
16486674346
16486681182
16486690459
16486695220
16486706390
16486710906
16486721343
16486729339
16486734832
16486743987
16486751372
16486760039
16486766570
16486774505
16486781219
16486791411
16486800689
16486807525
16486816131
16486824370
16486831267
16486838530
16486849150
16486854766
16486864104
16486871428
16486881438
16486886565
16486897734
16486903105
16486914153
16486921904
16486931670
16486937041
16486947112
16486952178
16486969573
16486978362
16486984770
16486993864
16487002654
16487011870
16487021269
16487029631
16487039336
16487048552
16487055815
16487064177
16487071562
16487081755
16487089445
16487097563
16487103483
16487112150
16487118071
16487128264
16487134306
16487142668
16487152922
16487161650
16487170011
16487176725
16487184599
16487190763
16487199369
16487204008
16487215422
16487228727
16487235075
16487243986
16487250334
16487258390
16487266935
16487275236
16487281950
16487286894
16487297941
16487302824
16487308927
16487312772
16487322294
16487329069
16487335844
16487341703
16487346708
16487353055
16487357145
16487362821
16487366971
16487372892
16487378568
16487383756
16487387479
16487392362
16487398282
16487403470
16487407743
16487415555
16487420743
16487426236
16487430387
16487436002
16487439969
16487445401
16487449979
16487456327
16487461576
16487467130
16487471952
16487477994
16487482999
16487486173
16487494168
16487497525
16487504911
16487509610
16487515042
16487520413
16487526456
16487531339
16487535489
16487542203
16487547452
16487552579
16487558133
16487565884
16487567899
16487576932
16487582486
16487588406
16487594083
16487600308
16487605923
16487611417
16487618375
16487622525
16487628018
16487634000
16487639249
16487645962
16487651333
16487657742
16487663418
16487668789
16487675625
16487681424
16487688138
16487696682
16487703274
16487709805
16487716702
16487723416
16487728848
16487733914
16487741055
16487746792
16487752713
16487758084
16487765774
16487771023
16487776211
16487781216
16487788662
16487794155
16487799710
16487804837
16487810391
16487815518
16487821621
16487826931
16487832241
16487839443
16487844937
16487850613
16487857021
16487861477
16487867275
16487871670
16487878506
16487883755
16487891018
16487895962
16487903774
16487910671
16487916958
16487923428
16487931606
16487938869
16487947292
16487954006
16487960293
16487965114
16487970974
16487976162
16487981838
16487986049
16487992580
16487997463
16488003139
16488009853
16488013454
16488019985
16488024929
16488030422
16488035732
16488041652
16488048488
16488053981
16488058742
16488064418
16488069057
16488073940
16488080593
16488086086
16488090663
16488096889
16488103908
16488108974
16488115383
16488117580
16488126491
16488130641
16488138454
16488142177
16488149623
16488153957
16488161830
16488166957
16488172084
16488177150
16488183315
16488190395
16488196010
16488202541
16488208522
16488216823
16488223354
16488228053
16488233668
16488240687
16488246242
16488252284
16488256312
16488264186
16488269923
16488276393
16488281520
16488287806
16488293971
16488298671
16488303370
16488311854
16488317042
16488321925
16488328944
16488334498
16488339259
16488346095
16488351283
16488357447
16488362880
16488369166
16488374903
16488378749
16488385585
16488392115
16488399134
16488404383
16488410304
16488415370
16488420863
16488426112
16488431788
16488438197
16488443446
16488449793
16488453150
16488460719
16488466700
16488471034
16488477808
16488485865
16488493250
16488502467
16488509913
16488520655
16488528467
16488536219
16488546107
16488554346
16488561487
16488570582
16488579859
16488589380
16488596888
16488605250
16488613794
16488620691
16488629786
16488634790
16488644922
16488653223
16488660852
16488668116
16488677393
16488685083
16488692407
16488701807
16488709131
16488716150
16488724756
16488733362
16488741663
16488748316
16488758264
16488764856
16488773828
16488780237
16488788049
16488797876
16488805017
16488813196
16488820276
16488829431
16488836816
16488845911
16488852624
16488861597
16488868188
16488876672
16488886316
16488895044
16488901635
16488909997
16488918786
16488924157
16488936242
16488941308
16488950586
16488958032
16488968713
16488976709
16488983544
16488990136
16488999047
16489008447
16489016625
16489023766
16489032678
16489039330
16489047997
16489057153
16489064050
16489075524
16489084679
16489091210
16489098473
16489107018
16489115014
16489124779
16489131982
16489140160
16489147607
16489156273
16489162743
16489172204
16489178673
16489183800
16489195336
16489200768
16489213097
16489220849
16489233056
16489238243
16489251061
16489257470
16489266198
16489271263
16489284203
16489290062
16489300682
16489305870
16489315148
16489322594
16489331749
16489338158
16489347679
16489354454
16489364159
16489374291
16489382347
16489392113
16489399681
16489409630
16489419273
16489427818
16489434471
16489443077
16489451866
16489460411
16489467064
16489475364
16489483726
16489492393
16489498253
16489507713
16489512535
16489522911
16489527610
16489539512
16489544639
16489555442
16489559959
16489570518
16489575218
16489585716
16489590782
16489602378
16489609641
16489617027
16489624656
16489633323
16489639976
16489648155
16489657920
16489664451
16489670554
16489679771
16489686546
16489694968
16489702293
16489709617
16489715293
16489722678
16489730308
16489739036
16489746543
16489755515
16489763389
16489771445
16489777488
16489785605
16489791648
16489795981
16489808310
16489815268
16489820823
16489827842
16489835166
16489839621
16489850486
16489856101
16489867881
16489875510
16489881735
16489891318
16489897666
16489904318
16489913718
16489918662
16489929221
16489936240
16489945517
16489952231
16489960532
16489967184
16489972495
16489978415
16489982260
16489988730
16489995016
16489999289
16490005514
16490009543
16490013571
16490020529
16490023642
16490030905
16490034567
16490041098
16490044394
16490052084
16490057699
16490063070
16490067770
16490073996
16490082785
16490088461
16490093588
16490098532
16490103232
16490108969
16490115561
16490120749
16490128561
16490133322
16490139608
16490145102
16490151266
16490157797
16490162924
16490170980
16490176351
16490182821
16490186972
16490192770
16490198263
16490203878
16490207540
16490213888
16490219930
16490226583
16490232198
16490237325
16490241476
16490244711
16490252767
16490255880
16490264303
16490267782
16490275106
16490278280
16490285116
16490289144
16490295797
16490300375
16490306600
16490311971
16490317770
16490322835
16490328145
16490334493
16490339132
16490344381
16490350240
16490354513
16490360433
16490365499
16490372030
16490377340
16490382284
16490388082
16490392537
16490400350
16490406209
16490410177
16490416402
16490422445
16490426534
16490432393
16490435567
16490442830
16490448751
16490452901
16490457418
16490462972
16490468038
16490473775
16490477742
16490484700
16490489583
16490495931
16490500447
16490505269
16490510274
16490517171
16490523335
16490528768
16490536153
16490542378
16490548604
16490552815
16490559163
16490562764
16490570699
16490575703
16490581441
16490586568
16490592488
16490597615
16490603474
16490609395
16490615376
16490619771
16490626179
16490632649
16490636372
16490646016
16490649373
16490656636
16490662251
16490667988
16490672932
16490678059
16490685139
16490691792
16490697163
16490704609
16490709858
16490716389
16490722065
16490726277
16490735981
16490741719
16490747700
16490753010
16490758137
16490762165
16490768025
16490771015
16490778645
16490781819
16490789265
16490792011
16490799153
16490802448
16490809956
16490813130
16490821308
16490828999
16490834797
16490841389
16490847004
16490851704
16490857136
16490863178
16490869282
16490875019
16490879780
16490885456
16490889729
16490895893
16490899799
16490906940
16490913166
16490920490
16490925190
16490930378
16490935566
16490941974
16490947101
16490954304
16490960224
16490966999
16490972126
16490977802
16490983234
16490989093
16490994709
16491000202
16491006672
16491012592
16491017719
16491023883
16491028644
16491034320
16491039203
16491046100
16491051715
16491058063
16491063129
16491069232
16491074726
16491081623
16491085468
16491093585
16491099323
16491104328
16491110492
16491114948
16491121295
16491129718
16491134845
16491149188
16491156879
16491164691
16491171893
16491179889
16491186908
16491194415
16491201190
16491210773
16491219623
16491228229
16491236712
16491245868
16491253741
16491262774
16491270465
16491280963
16491289386
16491295977
16491304767
16491310870
16491320086
16491327716
16491341326
16491352801
16491361590
16491371539
16491376788
16491388201
16491393206
16491407000
16491415362
16491420977
16491430010
16491436114
16491445574
16491451617
16491460772
16491469927
16491477190
16491485369
16491492632
16491498614
16491506731
16491515581
16491522967
16491531512
16491541460
16491546099
16491556170
16491563067
16491570269
16491579119
16491589129
16491597551
16491603838
16491612932
16491620195
16491628008
16491635820
16491644304
16491653459
16491662859
16491670671
16491676531
16491684526
16491690935
16491702410
16491710527
16491719133
16491726396
16491732073
16491740129
16491748857
16491756303
16491762346
16491774248
16491781023
16491789812
16491800005
16491808427
16491815996
16491825029
16491834917
16491842241
16491851274
16491858293
16491867997
16491872941
16491886125
16491896013
16491902787
16491913102
16491921220
16491929948
16491939164
16491948930
16491957658
16491964860
16491973161
16491983048
16491992021
16492000382
16492007585
16492015580
16492024369
16492030900
16492040910
16492049088
16492059342
16492072099
16492082536
16492091569
16492100480
16492108475
16492119523
16492132218
16492139054
16492149979
16492156876
16492165665
16492173356
16492181473
16492188492
16492196549
16492206253
16492212479
16492220780
16492228653
16492237503
16492245255
16492252823
16492261429
16492268814
16492275223
16492281632
16492291947
16492300492
16492309220
16492316727
16492323135
16492331253
16492337906
16492346817
16492356888
16492363541
16492372635
16492379654
16492388382
16492397781
16492405044
16492412979
16492420425
16492428421
16492438064
16492445144
16492453872
16492462539
16492469070
16492478225
16492484268
16492489700
16492497451
16492502456
16492509903
16492516861
16492522415
16492527542
16492532913
16492538528
16492542984
16492546829
16492555068
16492559219
16492567214
16492572708
16492577102
16492583023
16492587539
16492594924
16492600662
16492610793
16492616042
16492627029
16492635818
16492645828
16492653457
16492665115
16492674209
16492682876
16492690871
16492700393
16492712539
16492719497
16492728652
16492736342
16492744277
16492752395
16492759841
16492768020
16492776015
16492784255
16492792678
16492805190
16492814711
16492822036
16492831252
16492841201
16492850295
16492857741
16492865554
16492874221
16492882582
16492890578
16492897658
16492906325
16492913893
16492921889
16492929274
16492937758
16492943861
16492952467
16492959303
16492967421
16492974379
16492983595
16492990553
16493002516
16493008803
16493016859
16493026076
16493032545
16493043287
16493050551
16493059279
16493066237
16493075575
16493083326
16493091993
16493100294
16493108534
16493116652
16493123121
16493133009
16493139479
16493147901
16493156813
16493164381
16493170484
16493178907
16493187818
16493195265
16493202162
16493212049
16493216932
16493227674
16493232679
16493243421
16493250501
16493259168
16493266615
16493274915
16493284803
16493291395
16493299940
16493309034
16493315198
16493324415
16493331617
16493338575
16493348035
16493354932
16493363294
16493367933
16493379712
16493384839
16493395887
16493404126
16493411817
16493416333
16493428357
16493436536
16493444532
16493455945
16493464490
16493471875
16493479505
16493488416
16493495984
16493503735
16493511670
16493520032
16493527783
16493537122
16493545056
16493553113
16493562024
16493570996
16493579358
16493588452
16493597302
16493606641
16493615307
16493624035
16493629956
16493640942
16493648083
16493657239
16493664135
16493674633
16493683667
16493693554
16493700695
16493708630
16493718090
16493727185
16493734570
16493743603
16493751660
16493758618
16493769177
16493775768
16493784130
16493790966
16493800671
16493805615
16493816845
16493821545
16493831127
16493837963
16493847790
16493856030
16493864574
16493869518
16493879711
16493888134
16493896496
16493904308
16493912304
16493920299
16493927990
16493935985
16493945141
16493953747
16493957775
16493963695
16493968700
16493975963
16493981640
16493988964
16493996105
16494004284
16494010997
16494017101
16494023387
16494029552
16494036022
16494042186
16494047374
16494054271
16494062816
16494068553
16494075084
16494082469
16494089305
16494095409
16494103465
16494109325
16494117076
16494120799
16494129405
16494135082
16494142833
16494149303
16494158763
16494165355
16494172008
16494178905
16494185557
16494191539
16494198253
16494205699
16494213389
16494222545
16494228709
16494236400
16494243113
16494249034
16494254893
16494263499
16494271678
16494278819
16494284678
16494291758
16494295909
16494305430
16494313487
16494319468
16494326609
16494333384
16494339549
16494346812
16494354136
16494359996
16494367381
16494376841
16494383738
16494391551
16494398142
16494404612
16494412119
16494419749
16494424571
16494433360
16494440440
16494448924
16494455698
16494463572
16494470042
16494478525
16494485667
16494493784
16494500864
16494509165
16494515208
16494524607
16494531138
16494538828
16494545237
16494551767
16494560373
16494568064
16494574656
16494583872
16494589975
16494597300
16494604868
16494611338
16494619272
16494626718
16494633188
16494642038
16494649607
16494654184
16494664926
16494669626
16494679636
16494684641
16494695078
16494702280
16494708505
16494715097
16494724863
16494732614
16494741342
16494748300
16494757761
16494764230
16494772287
16494779245
16494788705
16494795724
16494800912
16494811838
16494819101
16494830453
16494835519
16494845712
16494853402
16494859506
16494866342
16494877023
16494884042
16494892587
16494899362
16494907663
16494914987
16494923654
16494929818
16494939035
16494945748
16494954598
16494963388
16494970162
16494978219
16494984994
16494993051
16495001901
16495009103
16495018563
16495025094
16495033700
16495039864
16495046822
16495055306
16495062203
16495073189
16495082650
16495089364
16495097359
16495105965
16495113106
16495120614
16495127450
16495136544
16495144173
16495152352
16495161324
16495167550
16495175545
16495183297
16495191719
16495197884
16495207405
16495215157
16495223458
16495228340
16495237801
16495246346
16495252877
16495259468
16495269173
16495276680
16495285164
16495292427
16495300789
16495309334
16495315804
16495322151
16495333321
16495340035
16495348824
16495354805
16495361824
16495365608
16495372261
16495376900
16495384590
16495390144
16495398018
16495403450
16495410042
16495416206
16495421394
16495426582
16495433540
16495438606
16495445564
16495451484
16495457100
16495459053
16495466865
16495470161
16495479805
16495486213
16495490425
16495496406
16495501960
16495503913
16495511909
16495517829
16495524177
16495530097
16495534797
16495540412
16495544990
16495550849
16495555427
16495561103
16495565986
16495573493
16495576484
16495583991
16495587776
16495595161
16495599433
16495608833
16495614997
16495619758
16495626167
16495630500
16495636726
16495641853
16495643928
16495652229
16495659309
16495665107
16495670722
16495675361
16495681525
16495686469
16495692817
16495701484
16495708198
16495713874
16495721808
16495727607
16495733649
16495740424
16495746283
16495754218
16495760749
16495766608
16495771674
16495777472
16495782904
16495788459
16495792487
16495801337
16495806098
16495812018
16495818183
16495823249
16495829047
16495834845
16495839850
16495847479
16495852667
16495859748
16495864630
16495870612
16495875556
16495882330
16495886847
16495893927
16495901007
16495906439
16495911078
16495917365
16495922553
16495928595
16495935187
16495941351
16495948920
16495955328
16495960028
16495964239
16495972601
16495978461
16495983588
16495987006
16495996161
16495999762
16496008612
16496012274
16496020453
16496024420
16496032477
16496037542
16496042547
16496049933
16496055914
16496060614
16496067572
16496072088
16496079168
16496083746
16496090094
16496096930
16496101385
16496107367
16496113531
16496119818
16496121832
16496129827
16496136114
16496142767
16496146551
16496154852
16496159857
16496165777
16496171819
16496177862
16496184820
16496191595
16496197393
16496205328
16496210211
16496216497
16496223577
16496229253
16496235723
16496241155
16496248907
16496254766
16496260992
16496265020
16496273260
16496278631
16496284246
16496289861
16496297246
16496302434
16496309759
16496314580
16496322759
16496328679
16496332769
16496340337
16496346013
16496352788
16496359502
16496368291
16496372930
16496380254
16496385808
16496392278
16496396856
16496404424
16496409185
16496415410
16496420232
16496425603
16496432134
16496436833
16496441045
16496447820
16496454167
16496459783
16496464726
16496471562
16496476445
16496481206
16496487126
16496493047
16496501653
16496505864
16496511540
16496518864
16496523625
16496529729
16496535161
16496539433
16496545049
16496550175
16496555913
16496561345
16496567082
16496570256
16496578313
16496581731
16496591191
16496598393
16496603337
16496606572
16496614628
16496620244
16496626835
16496630436
16496638493
16496643742
16496649663
16496654667
16496660588
16496665471
16496672429
16496677739
16496684575
16496693486
16496700077
16496704289
16496711186
16496715458
16496722233
16496727482
16496733464
16496741703
16496749089
16496756657
16496761479
16496765995
16496773319
16496777958
16496781559
16496790959
16496797428
16496803166
16496805058
16496814396
16496817814
16496825565
16496828922
16496838383
16496844669
16496849369
16496854374
16496861881
16496865971
16496873356
16496878300
16496883121
16496889957
16496895573
16496902469
16496907108
16496913029
16496919925
16496924808
16496932438
16496940616
16496946476
16496955936
16496961857
16496966312
16496972232
16496978153
16496985538
16496989505
16496997867
16497002994
16497008915
16497013553
16497019413
16497023990
16497030033
16497037540
16497043277
16497047977
16497054447
16497059635
16497064639
16497071903
16497079105
16497085330
16497092532
16497097293
16497103885
16497108402
16497114871
16497119937
16497126529
16497131351
16497137576
16497142398
16497149966
16497154483
16497159427
16497167239
16497173160
16497179202
16497184085
16497189456
16497194766
16497201968
16497206851
16497212771
16497217776
16497223147
16497230105
16497235843
16497240359
16497245730
16497250003
16497256167
16497261905
16497266787
16497274112
16497278933
16497284304
16497287539
16497295169
16497298648
16497306765
16497312625
16497318240
16497323611
16497331484
16497337100
16497342837
16497347781
16497353884
16497359072
16497365542
16497370425
16497376895
16497382144
16497387026
16497392947
16497397219
16497404482
16497410098
16497416323
16497420351
16497426394
16497432864
16497437197
16497441897
16497447390
16497452334
16497460757
16497466616
16497472475
16497478579
16497483462
16497486880
16497495547
16497498965
16497506289
16497510317
16497518679
16497526430
16497532961
16497540774
16497545534
16497554445
16497560793
16497567507
16497573610
16497580568
16497587160
16497592653
16497595949
16497604494
16497610292
16497615358
16497620241
16497626284
16497631472
16497638491
16497643434
16497648928
16497653688
16497662111
16497667116
16497674318
16497681825
16497687563
16497692079
16497698610
16497705812
16497710451
16497717104
16497722841
16497727235
16497732607
16497738649
16497744814
16497749757
16497755922
16497760377
16497765810
16497772523
16497777528
16497782472
16497789369
16497793580
16497800966
16497807069
16497811647
16497817750
16497822328
16497828981
16497834901
16497839235
16497846193
16497850099
16497857728
16497862611
16497868592
16497873903
16497879762
16497884340
16497890992
16497896852
16497904481
16497909547
16497914369
16497920899
16497925477
16497931336
16497935121
16497944703
16497948731
16497956483
16497960084
16497967103
16497972535
16497977723
16497984132
16497989930
16497994569
16498000977
16498006043
16498011842
16498018006
16498022523
16498028992
16498033082
16498040772
16498044312
16498051575
16498055238
16498062867
16498068055
16498073914
16498078797
16498084534
16498092225
16498099915
16498105225
16498111634
16498116944
16498121155
16498129944
16498136231
16498144654
16498153382
16498162659
16498168030
16498175782
16498181275
16498188538
16498194092
16498201660
16498210205
16498216614
16498221131
16498227783
16498232300
16498238648
16498243103
16498249512
16498256287
16498260315
16498269104
16498272522
16498280213
16498283753
16498290711
16498295960
16498301880
16498307251
16498313293
16498318848
16498324219
16498330688
16498334717
16498341248
16498347290
16498352112
16498358520
16498364319
16498369690
16498376099
16498380676
16498386474
16498390198
16498398437
16498405334
16498410400
16498415466
16498421448
16498426941
16498433044
16498437988
16498444336
16498449829
16498456909
16498461914
16498467468
16498473449
16498478698
16498485290
16498492675
16498498107
16498504394
16498510803
16498516235
16498521118
16498527465
16498532043
16498538330
16498546081
16498550598
16498556579
16498562866
16498567809
16498572692
16498579345
16498584899
16498591003
16498596374
16498603576
16498608581
16498614379
16498619262
16498627563
16498631957
16498637695
16498644469
16498650695
16498656615
16498662109
16498666869
16498673339
16498679259
16498684875
16498694030
16498697814
16498706969
16498713622
16498718688
16498722960
16498732299
16498736327
16498744628
16498748778
16498756774
16498763366
16498769225
16498774840
16498783629
16498788268
16498797057
16498803099
16498809752
16498815306
16498822631
16498829344
16498835509
16498840270
16498848326
16498854125
16498861754
16498865782
16498872923
16498879698
16498885130
16498890746
16498897459
16498902831
16498911253
16498917296
16498922118
16498928160
16498933165
16498939818
16498945189
16498949156
16498957457
16498963255
16498970946
16498979002
16498985594
16498990538
16498997130
16499003905
16499009031
16499015806
16499020506
16499023924
16499031370
16499037413
16499044005
16499049131
16499055296
16499060240
16499066404
16499070738
16499076902
16499082945
16499088987
16499096373
16499102293
16499104429
16499114683
16499120542
16499127073
16499132078
16499137876
16499141111
16499148985
16499154783
16499158811
16499162534
16499169798
16499174558
16499180967
16499185850
16499191953
16499196836
16499202024
16499207456
16499212461
16499218443
16499223142
16499230161
16499235838
16499241087
16499247312
16499251585
16499256895
16499263059
16499268308
16499274595
16499281248
16499286008
16499292112
16499296506
16499302854
16499307615
16499314756
16499319333
16499325986
16499331968
16499338743
16499343808
16499350156
16499357175
16499363095
16499371213
16499379636
16499384885
16499391172
16499398191
16499404966
16499411130
16499419919
16499424375
16499432492
16499436032
16499443357
16499448300
16499453549
16499458066
16499465817
16499471860
16499476987
16499482846
16499486997
16499492978
16499496823
16499502194
16499508359
16499514584
16499519406
16499524838
16499529477
16499534726
16499540097
16499545346
16499550290
16499557431
16499561215
16499567990
16499571591
16499580441
16499589291
16499595456
16499601620
16499608212
16499614804
16499619504
16499624753
16499629391
16499636471
16499641781
16499647763
16499653073
16499658932
16499664181
16499670590
16499676083
16499683041
16499688778
16499695187
16499701046
16499707333
16499712460
16499719723
16499727169
16499732540
16499737606
16499745175
16499750424
16499756588
16499762081
16499767574
16499772640
16499778866
16499783993
16499790279
16499795284
16499801632
16499806332
16499812130
16499817684
16499823483
16499830196
16499835873
16499840389
16499847469
16499853573
16499859005
16499864010
16499870602
16499875423
16499881832
16499887630
16499892879
16499899288
16499905025
16499909481
16499913143
16499922481
16499928341
16499934871
16499938778
16499946224
16499953609
16499959957
16499965877
16499972957
16499979854
16499986263
16499994136
16500001094
16500006038
16500013912
16500018917
16500026058
16500029476
16500036189
16500040889
16500048274
16500051875
16500059078
16500064449
16500070369
16500075679
16500082088
16500086726
16500091548
16500097286
16500102473
16500107539
16500113826
16500118648
16500124202
16500128474
16500134517
16500141048
16500145747
16500151179
16500157649
16500162349
16500168208
16500174373
16500179805
16500186152
16500191646
16500197627
16500201961
16500209651
16500215877
16500221858
16500225947
16500232539
16500237483
16500244563
16500249507
16500256099
16500262507
16500270015
16500276301
16500281794
16500286982
16500292659
16500297908
16500304805
16500309687
16500316096
16500321223
16500325068
16500333308
16500337214
16500344966
16500349543
16500356135
16500361567
16500368098
16500374018
16500379939
16500385371
16500393610
16500399653
16500406489
16500412043
16500417414
16500423457
16500430109
16500434748
16500438227
16500446406
16500450007
16500458491
16500463557
16500470270
16500475703
16500483271
16500488215
16500494074
16500498957
16500505610
16500510981
16500517145
16500524225
16500529230
16500535456
16500540339
16500544977
16500551142
16500559870
16500567865
16500573725
16500579645
16500586481
16500594294
16500598871
16500605585
16500612970
16500618341
16500623834
16500629083
16500634455
16500639459
16500645380
16500648493
16500656183
16500662470
16500666925
16500672357
16500677973
16500681268
16500687494
16500692377
16500699640
16500704279
16500711176
16500714471
16500722101
16500727411
16500733026
16500738031
16500743707
16500750848
16500757318
16500762018
16500768121
16500772638
16500778070
16500784051
16500787591
16500796625
16500802972
16500808832
16500813409
16500820367
16500823724
16500831781
16500837335
16500842950
16500848199
16500855584
16500860772
16500866021
16500870538
16500876641
16500882806
16500887994
16500894830
16500900018
16500906060
16500911309
16500917901
16500921258
16500927728
16500932916
16500939141
16500944329
16500951531
16500958001
16500964532
16500969659
16500975091
16500980157
16500986260
16500993035
16501000298
16501005181
16501011346
16501015923
16501021355
16501027520
16501033440
16501039178
16501043145
16501051263
16501054803
16501062371
16501067315
16501072869
16501077874
16501084282
16501091240
16501096978
16501102227
16501108330
16501112908
16501119561
16501124566
16501130486
16501138421
16501143181
16501149285
16501153191
16501161187
16501168450
16501175347
16501179680
16501188042
16501192253
16501201348
16501206536
16501216057
16501220207
16501228447
16501234123
16501240349
16501246147
16501250847
16501255791
16501262444
16501267204
16501272575
16501277214
16501282951
16501288994
16501294792
16501299492
16501304192
16501310600
16501316032
16501320549
16501328056
16501333183
16501339470
16501345817
16501351738
16501356315
16501361809
16501368156
16501371574
16501380302
16501386650
16501391289
16501394829
16501404045
16501407646
16501413749
16501419059
16501426140
16501432487
16501440544
16501445305
16501450554
16501454948
16501461906
16501468437
16501474906
16501481193
16501485588
16501494804
16501500175
16501506828
16501512260
16501518485
16501524223
16501530998
16501537528
16501544242
16501549980
16501555045
16501561881
16501568412
16501573661
16501579520
16501585319
16501592094
16501597831
16501602592
16501609489
16501614860
16501621390
16501629020
16501634879
16501639762
16501646354
16501651054
16501657584
16501662223
16501665946
16501676017
16501682303
16501688041
16501693107
16501698050
16501703788
16501710074
16501715140
16501723136
16501729545
16501734549
16501741752
16501746390
16501753592
16501757865
16501764762
16501771476
16501779837
16501786002
16501791739
16501799002
16501804251
16501809378
16501817435
16501823783
16501830924
16501837882
16501843863
16501850211
16501856009
16501860037
16501865592
16501871695
16501878287
16501884940
16501891348
16501897086
16501904044
16501909720
16501917532
16501921255
16501927969
16501932913
16501938040
16501942496
16501950003
16501954703
16501960135
16501966727
16501972830
16501977286
16501983511
16501989615
16501994558
16502000357
16502004202
16502013846
16502017813
16502026053
16502029593
16502037344
16502042471
16502049002
16502054373
16502060415
16502066519
16502073599
16502078299
16502084707
16502089224
16502096060
16502102407
16502108328
16502113394
16502120840
16502125479
16502131704
16502137563
16502143362
16502149404
16502154043
16502161672
16502166067
16502173025
16502179067
16502183340
16502188833
16502195181
16502201528
16502206716
16502212209
16502218252
16502223501
16502230337
16502234853
16502240774
16502247182
16502251821
16502259267
16502264821
16502270803
16502274404
16502281972
16502285390
16502293569
16502297109
16502304433
16502309621
16502315297
16502320302
16502327077
16502332570
16502337758
16502342824
16502349416
16502357900
16502364553
16502371022
16502376210
16502381337
16502387807
16502394765
16502401113
16502408681
16502415700
16502422536
16502426747
16502437062
16502441579
16502449086
16502454640
16502461903
16502467458
16502474049
16502479176
16502485829
16502490712
16502498463
16502503835
16502511403
16502516286
16502522328
16502527333
16502532704
16502538075
16502543935
16502550282
16502555653
16502562306
16502570180
16502574818
16502580128
16502585438
16502590077
16502595997
16502601185
16502608387
16502614247
16502619496
16502624257
16502629750
16502634694
16502640431
16502646778
16502652577
16502659779
16502665699
16502671009
16502675892
16502681080
16502685414
16502691822
16502696827
16502702931
16502707691
16502714527
16502719654
16502724110
16502729237
16502735584
16502741261
16502748951
16502752918
16502760670
16502764515
16502771229
16502776234
16502782948
16502788868
16502795765
16502801380
16502807789
16502815235
16502819935
16502824085
16502832447
16502837818
16502843616
16502848987
16502853687
16502860035
16502865345
16502868885
16502878284
16502882007
16502890125
16502893360
16502900562
16502906727
16502912037
16502917225
16502925037
16502928760
16502936390
16502939746
16502947437
16502951526
16502957691
16502962268
16502969104
16502973621
16502982227
16502988513
16502995166
16502999622
16503007129
16503011035
16503018848
16503022083
16503031177
16503036365
16503040820
16503046802
16503052966
16503058093
16503063892
16503069873
16503075855
16503081592
16503086047
16503091174
16503096240
16503103687
16503111682
16503116321
16503122668
16503128162
16503135058
16503140735
16503145984
16503149402
16503159045
16503166125
16503170581
16503176318
16503182178
16503186023
16503193774
16503199389
16503206042
16503211230
16503217212
16503222888
16503229297
16503234423
16503239917
16503244372
16503250720
16503257434
16503263293
16503268237
16503277087
16503282336
16503287646
16503293505
16503298754
16503305346
16503311083
16503316027
16503323046
16503327441
16503333483
16503338244
16503343798
16503349841
16503354907
16503360339
16503367297
16503372790
16503377367
16503383532
16503388049
16503393969
16503400256
16503406969
16503411730
16503418017
16503423815
16503428515
16503434435
16503438219
16503447191
16503453112
16503458971
16503464892
16503472277
16503477831
16503483202
16503488207
16503495714
16503503771
16503509508
16503516283
16503522509
16503527514
16503533861
16503539354
16503544786
16503551989
16503558153
16503565050
16503570421
16503576219
16503581652
16503591295
16503597093
16503605089
16503611986
16503619005
16503624925
16503631090
16503636705
16503644274
16503650316
16503658006
16503663866
16503669786
16503676195
16503681566
16503686754
16503690355
16503699022
16503702806
16503710558
16503717943
16503723558
16503729417
16503735521
16503743455
16503748826
16503754259
16503761094
16503764757
16503771593
16503776780
16503782579
16503788255
16503793748
16503800218
16503804307
16503812730
16503817979
16503822252
16503827440
16503833848
16503838914
16503844468
16503849107
16503856370
16503861314
16503867356
16503873033
16503879136
16503882554
16503888536
16503892015
16503898179
16503903428
16503910691
16503914353
16503921494
16503925584
