16089410349
16089416635
16089421884
16089427805
16089432932
16089438486
16089443857
16089449777
16089455087
16089460519
16089465158
16089472726
16089479867
16089486154
16089492380
16089499521
16089505197
16089510446
16089517770
16089523813
16089528512
16089534494
16089541391
16089547983
16089552865
16089561044
16089566537
16089573800
16089582223
16089589425
16089596749
16089604745
16089613534
16089621163
16089628976
16089640390
16089649240
16089656686
16089664742
16089672921
16089680490
16089692635
16089698068
16089705087
16089715096
16089721200
16089726327
16089733346
16089739388
16089743966
16089749825
16089758004
16089763619
16089768258
16089775033
16089780404
16089785287
16089792733
16089797799
16089803353
16089810128
16089815255
16089820870
16089826180
16089832223
16089837472
16089844185
16089850533
16089857735
16089866585
16089872323
16089879769
16089887215
16089893624
16089899056
16089905220
16089911873
16089917855
16089923714
16089929940
16089935799
16089942086
16089948250
16089954598
16089961983
16089966194
16089974556
16089980782
16089987312
16089993050
16089998055
16090004829
16090009956
16090016365
16090021919
16090029671
16090035469
16090042061
16090049385
16090055061
16090061409
16090068306
16090074470
16090082222
16090088997
16090094734
16090104378
16090109627
16090116463
16090122078
16090128731
16090134102
16090141304
16090147224
16090153450
16090159736
16090164741
16090170967
16090179817
16090186409
16090192085
16090202949
16090210884
16090218940
16090227912
16090235725
16090245124
16090255989
16090263191
16090270210
16090277290
16090283210
16090291694
16090299690
16090307502
16090313056
16090319282
16090326972
16090333991
16090341376
16090347236
16090352790
16090359748
16090366157
16090374274
16090380744
16090388679
16090396003
16090402350
16090408942
16090415961
16090424567
16090432685
16090438361
16090444953
16090453132
16090458197
16090466742
16090471930
16090478156
16090485480
16090491095
16090498725
16090504584
16090511115
16090519110
16090525397
16090532843
16090539374
16090545416
16090551764
16090559577
16090566657
16090573615
16090579230
16090586554
16090593695
16090599249
16090606513
16090611945
16090620795
16090627264
16090634955
16090641791
16090647955
16090653937
16090662787
16090669867
16090677069
16090683905
16090691168
16090697882
16090704779
16090711432
16090719305
16090726629
16090734137
16090741461
16090747870
16090754828
16090762762
16090769598
16090776556
16090784369
16090791937
16090797003
16090805731
16090812872
16090818609
16090832342
16090839910
16090850836
16090855596
16090866644
16090874700
16090881414
16090890875
16090898809
16090907476
16090912786
16090919622
16090923772
16090929693
16090933904
16090938055
16090944097
16090948980
16090954961
16090959722
16090964605
16090969732
16090974737
16090981145
16090985174
16090990606
16090993841
16090998052
16091003850
16091008489
16091012151
16091016973
16091023076
16091027898
16091033513
16091038152
16091042058
16091046880
16091051885
16091057988
16091063726
16091067449
16091072576
16091077459
16091083745
16091088689
16091092778
16091099248
16091105352
16091110479
16091115056
16091120610
16091124578
16091129644
16091135015
16091140996
16091148015
16091153325
16091157964
16091163213
16091167851
16091173406
16091179936
16091184392
16091191411
16091194829
16091201299
16091207402
16091211797
16091217290
16091222295
16091228459
16091234319
16091240483
16091246220
16091252568
16091258000
16091262150
16091270024
16091275029
16091281377
16091287175
16091292729
16091298710
16091303776
16091310795
16091316716
16091320317
16091327397
16091333134
16091339116
16091345707
16091351506
16091357060
16091361760
16091368046
16091373356
16091380741
16091387516
16091394047
16091404728
16091410710
16091415409
16091421574
16091425968
16091434757
16091439701
16091447636
16091454045
16091460575
16091465641
16091472355
16091478275
16091483036
16091487614
16091493900
16091498844
16091504337
16091508854
16091515385
16091519840
16091524906
16091529667
16091535831
16091540165
16091545353
16091551701
16091558231
16091563236
16091568546
16091572330
16091577824
16091584110
16091590153
16091594486
16091601749
16091606022
16091611759
16091617618
16091623050
16091627994
16091633426
16091638859
16091643558
16091650455
16091654178
16091661136
16091666446
16091672184
16091677005
16091682254
16091686588
16091692264
16091698490
16091704410
16091708560
16091713993
16091720096
16091724613
16091729801
16091734683
16091741336
16091747135
16091752017
16091756717
16091762332
16091768314
16091774051
16091778385
16091784976
16091790347
16091795779
16091800845
16091806278
16091813052
16091817630
16091823184
16091829044
16091836124
16091842776
16091848086
16091853702
16091858646
16091864566
16091870059
16091875430
16091883487
16091890018
16091895144
16091898807
16091906070
16091911136
16091916324
16091921878
16091930056
16091936526
16091942386
16091946963
16091953433
16091959842
16091967166
16091971743
16091978884
16091988040
16091991885
16091997683
16092004275
16092009585
16092015505
16092021487
16092029727
16092040896
16092048525
16092056460
16092064639
16092071902
16092079470
16092086062
16092093569
16092101260
16092108584
16092116763
16092124270
16092131350
16092139773
16092146609
16092154848
16092163149
16092170351
16092179446
16092187014
16092195376
16092201906
16092210085
16092218081
16092226809
16092236086
16092242128
16092250673
16092258974
16092265566
16092273623
16092281679
16092288881
16092298647
16092305727
16092311830
16092320314
16092325319
16092332949
16092338381
16092347719
16092355959
16092363832
16092371462
16092378725
16092386110
16092394533
16092400148
16092409792
16092415712
16092424562
16092431947
16092437746
16092445131
16092452089
16092459718
16092466920
16092474733
16092484132
16092489625
16092498353
16092505556
16092515748
16092523439
16092530763
16092537355
16092545594
16092554567
16092562806
16092569154
16092577272
16092584840
16092593446
16092602479
16092611573
16092619813
16092629701
16092637513
16092645814
16092653443
16092661622
16092669312
16092677613
16092685975
16092692078
16092701661
16092706788
16092716615
16092723634
16092729005
16092738831
16092748719
16092757569
16092767762
16092773377
16092783692
16092791443
16092799805
16092808167
16092816712
16092823243
16092832154
16092839478
16092848206
16092855103
16092863587
16092869751
16092879212
16092887452
16092896057
16092903015
16092910157
16092916138
16092923584
16092930420
16092937866
16092946289
16092953858
16092960632
16092968079
16092975403
16092982910
16092989807
16092997437
16093005615
16093013367
16093019836
16093027222
16093034912
16093039551
16093049316
16093056213
16093063476
16093069885
16093078857
16093085449
16093092895
16093098816
16093108154
16093114258
16093122131
16093128540
16093136291
16093145630
16093153808
16093160522
16093168579
16093177185
16093186035
16093195617
16093201721
16093209289
16093216552
16093225524
16093232971
16093238464
16093247924
16093257812
16093267211
16093272826
16093282592
16093288818
16093298034
16093306579
16093312926
16093323241
16093331237
16093339294
16093346191
16093354186
16093362243
16093370421
16093377868
16093384948
16093393859
16093401061
16093409057
16093415587
16093424926
16093431395
16093439452
16093448546
16093456847
16093463500
16093474059
16093482116
16093490233
16093497802
16093504393
16093509886
16093516295
16093521605
16093526366
16093532225
16093538085
16093542601
16093548461
16093555113
16093561888
16093569396
16093576842
16093584227
16093589964
16093594054
16093600462
16093604918
16093612059
16093617735
16093624937
16093631956
16093636168
16093641844
16093647398
16093653441
16093658873
16093665037
16093671812
16093677061
16093681151
16093686094
16093691099
16093695860
16093699644
16093704527
16093709410
16093714842
16093720762
16093727049
16093732359
16093736387
16093742491
16093749083
16093756407
16093763060
16093768431
16093774107
16093778868
16093785459
16093791197
16093794981
16093801634
16093807249
16093813413
16093818052
16093822386
16093831846
16093840940
16093849180
16093857603
16093866514
16093874937
16093883543
16093891599
16093900938
16093907590
16093915403
16093922056
16093930662
16093938535
16093947080
16093951231
16093956602
16093963132
16093968076
16093973264
16093979368
16093983701
16093988645
16093993467
16093997983
16094003476
16094008420
16094012876
16094017270
16094023069
16094027524
16094032956
16094037961
16094043149
16094048093
16094052732
16094058225
16094061826
16094066159
16094071347
16094075010
16094080991
16094086728
16094090940
16094095639
16094099851
16094104611
16094108884
16094113523
16094118222
16094123227
16094128415
16094133359
16094139462
16094145200
16094149716
16094154660
16094159055
16094163999
16094169248
16094174130
16094180783
16094185422
16094191098
16094194943
16094200742
16094205075
16094209470
16094213620
16094218198
16094222409
16094227048
16094233273
16094237363
16094241513
16094246213
16094251523
16094255307
16094259823
16094264889
16094269589
16094274167
16094279294
16094284970
16094290036
16094294797
16094299435
16094304318
16094309872
16094314694
16094319394
16094324521
16094329220
16094335202
16094340023
16094343747
16094351071
16094355038
16094359982
16094365292
16094370907
16094377255
16094382687
16094387387
16094392697
16094398190
16094403195
16094408200
16094413327
16094418331
16094423947
16094429257
16094434628
16094438717
16094443051
16094449948
16094453060
16094458676
16094463131
16094470394
16094476193
16094482845
16094487301
16094492794
16094497311
16094502010
16094507809
16094513119
16094517513
16094525448
16094529842
16094534908
16094541195
16094544491
16094551205
16094556820
16094562191
16094567562
16094573116
16094577205
16094583736
16094588375
16094594845
16094601803
16094608272
16094619137
16094627376
16094635494
16094643795
16094648677
16094658931
16094666195
16094675350
16094683467
16094696224
16094704402
16094712825
16094717891
16094726802
16094733943
16094743526
16094751033
16094763789
16094772395
16094779842
16094787715
16094795955
16094804622
16094814387
16094821712
16094828792
16094835994
16094842891
16094850154
16094859004
16094867000
16094875300
16094883357
16094892207
16094897029
16094906550
16094913630
16094922908
16094930171
16094938105
16094944392
16094953059
16094961238
16094969355
16094976252
16094984431
16094993342
16094999324
16095007685
16095015925
16095025263
16095041926
16095052119
16095057917
16095066706
16095075373
16095083613
16095091731
16095099543
16095109614
16095116694
16095123530
16095132197
16095139521
16095149775
16095156794
16095164667
16095171259
16095179682
16095186518
16095194452
16095203608
16095212214
16095220392
16095228571
16095237055
16095244989
16095252008
16095260248
16095267206
16095274408
16095284357
16095291071
16095296381
16095307428
16095315607
16095322016
16095328058
16095337702
16095346246
16095353998
16095361994
16095369379
16095377924
16095385980
16095390985
16095400385
16095407953
16095416376
16095423456
16095432672
16095439813
16095447137
16095456109
16095461603
16095471063
16095481805
16095488885
16095498712
16095506341
16095515741
16095523553
16095532525
16095540704
16095549676
16095555474
16095562738
16095570794
16095579278
16095587213
16095595880
16095603631
16095612054
16095622125
16095630242
16095637933
16095643853
16095652581
16095659844
16095666253
16095673638
16095680840
16095688653
16095696465
16095702935
16095710992
16095717461
16095725152
16095731866
16095742119
16095749749
16095759514
16095767388
16095775323
16095783013
16095790032
16095796441
16095805291
16095812371
16095819573
16095825982
16095833611
16095840386
16095849419
16095855889
16095865410
16095871819
16095876519
16095886284
16095893975
16095900444
16095905510
16095915215
16095923882
16095931572
16095939446
16095947380
16095955803
16095963677
16095971855
16095979607
16095987175
16095996513
16096001579
16096012016
16096017082
16096027214
16096034111
16096041923
16096051140
16096058891
16096064018
16096067680
16096074211
16096080070
16096085869
16096091362
16096097770
16096102714
16096110222
16096115898
16096120903
16096126701
16096131950
16096136772
16096142936
16096147697
16096153373
16096158622
16096164970
16096169975
16096175651
16096181144
16096187553
16096192008
16096199455
16096204154
16096210136
16096216545
16096220634
16096226432
16096232231
16096238883
16096245292
16096250114
16096255607
16096262443
16096267570
16096273734
16096280448
16096284049
16096291679
16096296134
16096302421
16096309379
16096315971
16096321647
16096328117
16096332023
16096337638
16096344047
16096348929
16096353934
16096358756
16096363700
16096369742
16096375358
16096379508
16096384757
16096394645
16096405082
16096414725
16096428153
16096437918
16096446891
16096457816
16096466727
16096476371
16096485526
16096495352
16096504630
16096512320
16096522330
16096533255
16096541739
16096551627
16096561759
16096570487
16096580496
16096590506
16096600394
16096609671
16096619742
16096627798
16096638480
16096648428
16096657889
16096669119
16096678763
16096688040
16096698721
16096709524
16096718313
16096728994
16096739065
16096749868
16096759024
16096768484
16096778555
16096787832
16096795278
16096804861
16096816030
16096825674
16096835317
16096845022
16096853384
16096864675
16096874563
16096884878
16096895620
16096905019
16096913808
16096923879
16096933523
16096942251
16096951528
16096960927
16096969716
16096976919
16096982595
16096990835
16096997426
16097004751
16097012624
16097018850
16097026296
16097035024
16097040151
16097045156
16097050222
16097055776
16097061513
16097065358
16097070607
16097076100
16097080617
16097086110
16097090322
16097097341
16097102651
16097107167
16097109975
16097115712
16097120961
16097124928
16097129994
16097135182
16097139150
16097144582
16097148793
16097153676
16097158070
16097163014
16097167043
16097171315
16097177419
16097181325
16097186147
16097191457
16097195485
16097201161
16097205739
16097210011
16097214772
16097219594
16097224293
16097229176
16097235036
16097239064
16097244130
16097248036
16097253285
16097257802
16097261952
16097266835
16097272023
16097276356
16097280324
16097285817
16097289540
16097293995
16097299550
16097306386
16097311879
16097316212
16097320301
16097324696
16097329335
16097334462
16097338917
16097345387
16097352101
16097357899
16097364979
16097371083
16097380787
16097388661
16097396839
16097404835
16097410633
16097417896
16097426258
16097432240
16097441700
16097450001
16097457142
16097464161
16097471424
16097477894
16097484608
16097494801
16097502796
16097510120
16097517689
16097524952
16097532276
16097540760
16097545765
16097555469
16097560962
16097575184
16097584400
16097592273
16097598804
16097606678
16097616260
16097626270
16097634632
16097642688
16097650745
16097657886
16097666736
16097673206
16097682239
16097688587
16097697437
16097704639
16097711719
16097718372
16097724353
16097732959
16097739490
16097746082
16097753162
16097759998
16097767810
16097775073
16097782153
16097788928
16097795215
16097800952
16097809924
16097816394
16097823535
16097830188
16097839404
16097846179
16097854358
16097862964
16097870166
16097876697
16097884387
16097890185
16097897815
16097904590
16097914111
16097920215
16097927905
16097936755
16097943957
16097950671
16097957995
16097964587
16097972583
16097981372
16097989001
16097996081
16098003344
16098009570
16098016039
16098024951
16098033007
16098041064
16098047411
16098055590
16098062731
16098071642
16098078173
16098085314
16098091174
16098102038
16098108385
16098117907
16098124377
16098132128
16098139941
16098148424
16098154772
16098162890
16098173021
16098178270
16098187914
16098194079
16098202562
16098211290
16098218004
16098226061
16098235338
16098240892
16098251696
16098256761
16098266588
16098274584
16098283617
16098290941
16098298876
16098305284
16098317674
16098325304
16098338426
16098346300
16098356249
16098363573
16098369493
16098378709
16098384630
16098392381
16098399644
16098407457
16098414964
16098424974
16098431322
16098439989
16098448411
16098455980
16098462327
16098469774
16098478074
16098485704
16098492112
16098499803
16098508348
16098515611
16098522203
16098529893
16098538133
16098546861
16098553575
16098562486
16098569078
16098577867
16098584458
16098593675
16098600450
16098609483
16098616746
16098624131
16098630723
16098638657
16098645982
16098654832
16098662095
16098673081
16098679490
16098689133
16098696580
16098703110
16098709702
16098719163
16098726792
16098731980
16098736985
16098742722
16098747727
16098753464
16098760361
16098765244
16098770066
16098777634
16098782517
16098788865
16098794724
16098801377
16098806626
16098811326
16098815903
16098822190
16098827073
16098833786
16098838791
16098842881
16098847763
16098855027
16098860092
16098866623
16098871506
16098878403
16098883408
16098889817
16098894821
16098900925
16098905869
16098912094
16098916977
16098922959
16098927292
16098932846
16098939865
16098943466
16098950363
16098954819
16098961716
16098967209
16098973312
16098979050
16098983871
16098989853
16098997238
16099006027
16099011887
16099018600
16099026108
16099032272
16099038986
16099044601
16099049606
16099056991
16099065109
16099071151
16099076584
16099082565
16099089340
16099094955
16099099411
16099106918
16099112228
16099118209
16099123581
16099128341
16099134750
16099139694
16099145065
16099149581
16099156234
16099162216
16099167404
16099172470
16099177902
16099183090
16099188522
16099194564
16099199935
16099206344
16099211410
16099216781
16099221786
16099226547
16099231857
16099236495
16099241744
16099248153
16099253524
16099259872
16099265487
16099271346
16099279464
16099283797
16099289291
16099296493
16099300399
16099307967
16099313583
16099318160
16099325179
16099329940
16099335555
16099341170
16099346602
16099352523
16099358260
16099363326
16099369246
16099375289
16099380843
16099386458
16099391890
16099398360
16099401839
16099408797
16099414534
16099420272
16099425399
16099432723
16099438460
16099443587
16099448409
16099454756
16099459761
16099465804
16099470992
16099476546
16099483016
16099486739
16099492903
16099498335
16099503890
16099510970
16099515059
16099521895
16099526412
16099532393
16099539717
16099544478
16099551192
16099557539
16099562483
16099567976
16099573286
16099579512
16099586348
16099592268
16099598982
16099602400
16099611006
16099616438
16099621809
16099627913
16099633772
16099639387
16099645918
16099650984
16099658735
16099664778
16099670088
16099675276
16099680586
16099685347
16099691145
16099695723
16099703901
16099709211
16099714888
16099720259
16099726362
16099731672
16099736555
16099741926
16099748518
16099753767
16099758222
16099763166
16099768659
16099773725
16099779890
16099785810
16099790449
16099796247
16099802412
16099807966
16099813215
16099818281
16099823896
16099831098
16099835798
16099841291
16099848432
16099854047
16099858747
16099863508
16099870161
16099875532
16099883039
16099890546
16099899824
16099907026
16099916364
16099923261
16099928327
16099939619
16099945173
16099956769
16099962385
16099973981
16099982160
16099991193
16099999311
16100007978
16100016278
16100026410
16100034101
16100040631
16100048810
16100057782
16100065717
16100074018
16100084882
16100092633
16100100629
16100109479
16100117536
16100124921
16100133099
16100141827
16100150433
16100159955
16100168073
16100174420
16100182660
16100191388
16100199322
16100208050
16100216351
16100222882
16100231000
16100239422
16100247845
16100255597
16100263836
16100272015
16100280743
16100290814
16100303570
16100311261
16100316754
16100326275
16100333966
16100343121
16100351971
16100361126
16100366497
16100376263
16100383282
16100392010
16100399639
16100405865
16100416363
16100422711
16100429913
16100438152
16100444744
16100453045
16100459820
16100468121
16100475750
16100482281
16100489483
16100497784
16100505230
16100511700
16100518658
16100527019
16100536785
16100543255
16100550518
16100559734
16100565655
16100572185
16100581035
16100587749
16100597210
16100603801
16100612590
16100619365
16100627300
16100633831
16100642925
16100652202
16100658916
16100666484
16100674968
16100682598
16100690959
16100698528
16100706401
16100713909
16100722759
16100729839
16100736430
16100743877
16100751872
16100759380
16100767436
16100775676
16100782756
16100792827
16100798869
16100811076
16100819011
16100826762
16100834819
16100842204
16100849650
16100857768
16100865886
16100874186
16100881450
16100889628
16100897014
16100907389
16100915141
16100924357
16100932963
16100941691
16100950114
16100958232
16100966960
16100975260
16100982524
16100990519
16100998393
16101006510
16101013651
16101020793
16101030375
16101037760
16101047343
16101054728
16101064371
16101072184
16101082743
16101091288
16101097513
16101109843
16101119120
16101126322
16101135660
16101145853
16101155863
16101164835
16101172159
16101180460
16101189188
16101197367
16101205362
16101212564
16101220316
16101227579
16101233927
16101241434
16101249674
16101257242
16101265238
16101272806
16101280557
16101288187
16101296243
16101303690
16101310831
16101318216
16101326883
16101333231
16101338602
16101343729
16101348734
16101353799
16101358682
16101363809
16101369608
16101374734
16101379434
16101384622
16101389627
16101396707
16101401895
16101407449
16101413309
16101418619
16101423501
16101429117
16101434610
16101440347
16101446329
16101452005
16101457010
16101461770
16101467935
16101472940
16101479898
16101484903
16101490701
16101495767
16101502542
16101507364
16101512735
16101519082
16101525003
16101530069
16101536416
16101541360
16101547158
16101551614
16101557412
16101564309
16101568032
16101574746
16101580300
16101585732
16101591470
16101596963
16101602639
16101609414
16101615334
16101620339
16101626687
16101633340
16101637917
16101643960
16101650307
16101654946
16101660622
16101667092
16101672951
16101679116
16101684853
16101689797
16101695473
16101701272
16101706948
16101711831
16101718423
16101726662
16101732339
16101737527
16101743691
16101748452
16101753457
16101760842
16101767006
16101772683
16101778725
16101786782
16101792214
16101798439
16101803994
16101809365
16101814125
16101821389
16101826638
16101831765
16101836281
16101841835
16101846230
16101851174
16101857033
16101862709
16101867287
16101872902
16101877846
16101883522
16101889809
16101895546
16101900063
16101907143
16101911354
16101917091
16101922890
16101928444
16101934303
16101939796
16101944923
16101950722
16101957741
16101963600
16101968788
16101974159
16101980080
16101985634
16101990578
16101996376
16102002846
16102008278
16102013527
16102019203
16102024330
16102030006
16102037025
16102042640
16102048073
16102052833
16102059303
16102064979
16102070350
16102075172
16102080848
16102087440
16102093422
16102098610
16102105140
16102110084
16102115272
16102119667
16102126869
16102132057
16102135902
16102143287
16102148780
16102153602
16102159339
16102165199
16102171058
16102177589
16102183143
16102188331
16102194190
16102200355
16102205848
16102210792
16102216346
16102223121
16102229347
16102234840
16102245155
16102252357
16102258887
16102268958
16102276954
16102284339
16102292701
16102299232
16102304603
16102308997
16102315833
16102321754
16102326758
16102332557
16102337806
16102342994
16102347938
16102352393
16102357581
16102362098
16102366797
16102372474
16102377601
16102382483
16102387610
16102391700
16102396094
16102400367
16102406043
16102409949
16102414649
16102419898
16102423804
16102428626
16102432532
16102438330
16102442603
16102449561
16102455969
16102460791
16102466162
16102473181
16102479956
16102487280
16102496436
16102503272
16102510535
16102519263
16102525732
16102531714
16102538489
16102545447
16102552466
16102560034
16102567603
16102574744
16102581274
16102589087
16102595740
16102602576
16102609534
16102618872
16102626074
16102632055
16102641089
16102647375
16102656653
16102662939
16102672705
16102679419
16102687109
16102695776
16102703466
16102709387
16102718908
16102725439
16102733557
16102741918
16102749121
16102756201
16102764868
16102771398
16102780065
16102786962
16102797094
16102804357
16102812475
16102819982
16102826818
16102834997
16102844274
16102851720
16102858984
16102866430
16102874120
16102881689
16102889440
16102897680
16102905675
16102914098
16102922582
16102930334
16102940954
16102947301
16102961156
16102968663
16102976537
16102983983
16102994420
16103002599
16103012304
16103019445
16103029332
16103036107
16103045079
16103052648
16103059789
16103066991
16103075353
16103082677
16103091832
16103098546
16103107762
16103114720
16103123937
16103131261
16103137975
16103144811
16103153416
16103159886
16103167821
16103174168
16103183446
16103190770
16103197545
16103204075
16103213048
16103220738
16103227391
16103237401
16103245213
16103252781
16103260289
16103268467
16103275853
16103282933
16103291722
16103298497
16103308689
16103316685
16103323643
16103330906
16103341282
16103349156
16103357640
16103364720
16103374729
16103381931
16103391148
16103398472
16103407810
16103414890
16103422703
16103429050
16103440464
16103447788
16103456150
16103462681
16103471043
16103479465
16103487522
16103494846
16103503269
16103511021
16103519382
16103528782
16103536716
16103544590
16103552829
16103559787
16103569797
16103576999
16103585178
16103591953
16103600132
16103608188
16103616550
16103625827
16103634494
16103643283
16103653049
16103662387
16103670871
16103677097
16103686801
16103693698
16103701145
16103707858
16103715610
16103724338
16103731784
16103737766
16103744418
16103754184
16103761508
16103769626
16103776645
16103786838
16103793979
16103803378
16103811923
16103819919
16103828280
16103838168
16103844760
16103854464
16103861239
16103869357
16103876986
16103886935
16103899447
16103905368
16103911898
16103918551
16103924899
16103929476
16103934909
16103940158
16103944857
16103951754
16103955599
16103963046
16103970614
16103975375
16103981173
16103987216
16103992037
16104001559
16104005465
16104012423
16104019015
16104024630
16104030611
16104035799
16104041171
16104044955
16104051180
16104056368
16104062106
16104068087
16104071932
16104078158
16104081637
16104088656
16104093722
16104098177
16104104769
16104112032
16104116549
16104121554
16104129427
16104133944
16104139864
16104145846
16104150972
16104157259
16104162569
16104168001
16104172030
16104177584
16104186617
16104191683
16104197969
16104203890
16104209627
16104215303
16104219271
16104224886
16104232881
16104238863
16104245516
16104250765
16104256441
16104261507
16104268038
16104273042
16104278902
16104284578
16104288667
16104297090
16104300508
16104306795
16104310274
16104317110
16104322969
16104330965
16104337068
16104342500
16104348360
16104354768
16104360994
16104367525
16104372041
16104380769
16104387117
16104392427
16104398897
16104403840
16104408967
16104416475
16104423067
16104429170
16104438020
16104443940
16104450471
16104455537
16104461824
16104467866
16104473787
16104480684
16104486116
16104495820
16104499788
16104507112
16104510774
16104518769
16104524812
16104532136
16104536958
16104543489
16104547334
16104553559
16104559358
16104565949
16104570771
16104574983
16104581880
16104585664
16104591401
16104597627
16104603608
16104607758
16104613862
16104618379
16104624543
16104630830
16104637055
16104643098
16104648103
16104652741
16104657685
16104663483
16104671479
16104677216
16104684357
16104690583
16104696625
16104701691
16104706025
16104711945
16104718293
16104723115
16104729218
16104735627
16104742157
16104747834
16104754426
16104760041
16104765839
16104771698
16104776093
16104781464
16104788300
16104795014
16104798737
16104804169
16104810212
16104817292
16104821869
16104827912
16104833039
16104839997
16104845429
16104851105
16104857147
16104861115
16104876496
16104883576
16104890289
16104895783
16104902374
16104907501
16104912506
16104919464
16104925079
16104929962
16104935394
16104940155
16104946075
16104950714
16104956818
16104962555
16104968292
16104973846
16104979401
16104984527
16104988678
16104994598
16105001861
16105008331
16105013702
16105019439
16105026764
16105032623
16105037628
16105046417
16105051056
16105059662
16105065521
16105069732
16105075409
16105079620
16105091217
16105094268
16105102081
16105109893
16105117828
16105127471
16105135772
16105142974
16105152557
16105160064
16105167877
16105177581
16105185333
16105192474
16105199981
16105206756
16105214263
16105220489
16105227142
16105237518
16105243926
16105252837
16105259368
16105267181
16105273894
16105281951
16105288665
16105299895
16105309112
16105317229
16105326323
16105332305
16105341033
16105349334
16105357818
16105367156
16105375884
16105383879
16105392546
16105401091
16105407744
16105415984
16105425139
16105433440
16105441985
16105449370
16105457183
16105464751
16105471343
16105479582
16105488005
16105496306
16105504790
16105510405
16105518767
16105526396
16105533537
16105541228
16105548064
16105555693
16105563322
16105571074
16105577116
16105583708
16105592741
16105599394
16105604277
16105614348
16105623015
16105631804
16105638579
16105645598
16105652800
16105658720
16105669401
16105676237
16105685392
16105692717
16105701139
16105709257
16105717253
16105724516
16105732633
16105739836
16105747160
16105757597
16105762724
16105772489
16105779447
16105787504
16105794340
16105804594
16105809660
16105820829
16105830656
16105836942
16105847074
16105852994
16105862455
16105867216
16105875211
16105884244
16105892362
16105900785
16105911405
16105919278
16105925504
16105933622
16105941190
16105949125
16105957425
16105965177
16105973294
16105982816
16105992459
16106002774
16106013456
16106023343
16106032010
16106045316
16106052823
16106062284
16106074613
16106087125
16106099149
16106108365
16106117154
16106125272
16106133755
16106143094
16106152005
16106161282
16106173611
16106183377
16106189358
16106199612
16106208096
16106217068
16106225552
16106235806
16106245633
16106253262
16106264370
16106272183
16106282193
16106289822
16106300076
16106307644
16106318203
16106329006
16106336331
16106343838
16106355190
16106363918
16106373257
16106382107
16106391873
16106400539
16106410000
16106418240
16106431057
16106441128
16106461452
16106480495
16106498440
16106518886
16106538662
16106559230
16106578884
16106598598
16106619533
16106637416
16106645900
16106660121
16106672084
16106690395
16106708095
16106727992
16106744289
16106754237
16106764064
16106772609
16106784877
16106799098
16106808314
16106816859
16106825160
16106832301
16106842555
16106854213
16106862574
16106872950
16106880641
16106889430
16106898463
16106904628
16106912806
16106922084
16106930323
16106939112
16106946314
16106953395
16106962916
16106967494
16106977381
16106987208
16106994044
16107001490
16107008082
16107015833
16107022425
16107031336
16107041468
16107048731
16107055994
16107061915
16107069361
16107075098
16107083399
16107092982
16107099879
16107106898
16107115687
16107125086
16107132044
16107140528
16107147669
16107154505
16107163050
16107171900
16107179956
16107187708
16107196375
16107204676
16107212061
16107220484
16107228418
16107236292
16107244898
16107253259
16107262476
16107270227
16107276880
16107285608
16107293054
16107302332
16107309778
16107318140
16107327661
16107334497
16107344141
16107352441
16107360559
16107367822
16107374719
16107382654
16107392175
16107402734
16107409753
16107418237
16107425256
16107433130
16107443750
16107450158
16107460534
16107467797
16107475061
16107484399
16107491296
16107500512
16107508935
16107517907
16107524560
16107535485
16107542504
16107551232
16107558618
16107567468
16107575585
16107584435
16107589684
16107600488
16107608971
16107616235
16107624047
16107631066
16107637475
16107641015
16107647301
16107651391
16107655846
16107661584
16107665795
16107670861
16107675316
16107681298
16107685509
16107691735
16107696557
16107701256
16107706200
16107711449
16107714623
16107720971
16107725243
16107729332
16107736229
16107740929
16107745812
16107750878
16107755333
16107760521
16107765770
16107770592
16107775963
16107780175
16107784752
16107790612
16107795067
16107800438
16107805504
16107810631
16107815209
16107821739
16107826866
16107831566
16107837486
16107844139
16107848595
16107854088
16107858238
16107863121
16107868187
16107872032
16107877098
16107882897
16107889427
16107895226
16107900780
16107906883
16107912621
16107918114
16107923363
16107929527
16107934898
16107939598
16107945702
16107951927
16107957542
16107961021
16107967064
16107972679
16107977440
16107982506
16107987816
16107992027
16107998741
16108003685
16108009605
16108014427
16108021629
16108026268
16108029869
16108038170
16108041954
16108049095
16108057151
16108064598
16108073387
16108082542
16108089744
16108097129
16108104820
16108112815
16108119163
16108127403
16108135948
16108145286
16108153159
16108161033
16108169029
16108176597
16108184348
16108193321
16108198997
16108208091
16108215842
16108223350
16108230979
16108238120
16108245505
16108251914
16108259299
16108267783
16108275352
16108281333
16108287864
16108296653
16108303245
16108310996
16108317710
16108325889
16108332602
16108342368
16108349509
16108359397
16108366599
16108374900
16108381736
16108390158
16108396689
16108406577
16108413718
16108418540
16108427451
16108434104
16108442404
16108450522
16108458457
16108467063
16108473288
16108480917
16108486472
16108493369
16108501242
16108508688
16108515829
16108523093
16108532858
16108540366
16108547018
16108555807
16108563010
16108574545
16108582236
16108589255
16108595785
16108603476
16108610190
16108617941
16108626486
16108634420
16108641562
16108649618
16108656332
16108664206
16108670126
16108678244
16108684286
16108691854
16108700094
16108707724
16108715902
16108721517
16108728842
16108736410
16108743917
16108752523
16108761495
16108769735
16108776266
16108783590
16108788839
16108799093
16108808065
16108814230
16108820577
16108832052
16108845052
16108853841
16108861410
16108866476
16108876546
16108884908
16108895711
16108903646
16108913045
16108921651
16108928365
16108935872
16108943013
16108950948
16108961141
16108968465
16108974324
16108981221
16108990621
16108997335
16109004659
16109010579
16109019979
16109028523
16109033528
16109043233
16109050679
16109056722
16109064168
16109071492
16109079427
16109088094
16109093831
16109102437
16109109944
16109115926
16109123494
16109132222
16109137898
16109146687
16109154317
16109161885
16109169392
16109175496
16109181965
16109190144
16109197102
16109207051
16109214375
16109221577
16109230061
16109237874
16109244404
16109252827
16109259785
16109267842
16109274372
16109281208
16109289692
16109297444
16109303730
16109311604
16109319721
16109328022
16109335591
16109343952
16109352070
16109358112
16109366108
16109373432
16109383320
16109390461
16109398090
16109407490
16109415363
16109422626
16109427998
16109439411
16109445087
16109452778
16109464985
16109471515
16109479755
16109488117
16109496357
16109503864
16109510700
16109515827
16109519428
16109526630
16109530780
16109538837
16109542621
16109549213
16109554462
16109558490
16109564838
16109571918
16109577106
16109582721
16109588947
16109595722
16109601093
16109607135
16109613605
16109621051
16109626239
16109631427
16109637531
16109642719
16109647296
16109652850
16109659870
16109666461
16109674640
16109679950
16109686603
16109693195
16109699481
16109705341
16109710834
16109715961
16109722736
16109728290
16109734637
16109739520
16109744952
16109750201
16109756976
16109761859
16109770099
16109779010
16109784137
16109790484
16109794635
16109799212
16109805316
16109809405
16109818194
16109823932
16109827411
16109833941
16109839862
16109844806
16109848895
16109856219
16109864520
16109869281
16109873614
16109879534
16109886004
16109890826
16109897479
16109903826
16109908526
16109914019
16109920428
16109927325
16109931414
16109938250
16109943987
16109950701
16109955584
16109963519
16109968524
16109972308
16109978106
16109984759
16109990313
16109996172
16110000872
16110007342
16110012957
16110018877
16110022906
16110029864
16110034441
16110040423
16110046160
16110052019
16110057696
16110063555
16110067705
16110073015
16110080340
16110085222
16110088762
16110096636
16110104937
16110110491
16110115679
16110120562
16110126787
16110131670
16110137102
16110142839
16110149065
16110154314
16110160357
16110167376
16110171831
16110177935
16110183306
16110188677
16110192278
16110201250
16110209185
16110216387
16110222856
16110228899
16110233965
16110239214
16110243974
16110252641
16110260393
16110265642
16110271440
16110277605
16110283403
16110289323
16110295000
16110300127
16110305925
16110310808
16110315996
16110321855
16110326982
16110332353
16110336504
16110343584
16110349626
16110354509
16110359575
16110363969
16110368974
16110375017
16110379045
16110385454
16110390947
16110395707
16110401262
16110406511
16110411882
16110417863
16110423539
16110430192
16110436723
16110442765
16110447038
16110453874
16110460038
16110464921
16110470536
16110477311
16110483293
16110489274
16110495256
16110499223
16110504167
16110509782
16110516557
16110523515
16110529191
16110535722
16110540605
16110546037
16110550370
16110555863
16110561967
16110567094
16110574540
16110581071
16110587052
16110592545
16110597245
16110602738
16110609330
16110615372
16110621537
16110627885
16110633500
16110639420
16110645951
16110649491
16110655839
16110661271
16110668900
16110672745
16110681779
16110686539
16110690445
16110699357
16110708817
16110716019
16110726090
16110734208
16110741227
16110748429
16110756485
16110763077
16110767960
16110777359
16110783646
16110793412
16110801407
16110809403
16110817215
16110826554
16110837723
16110844132
16110855972
16110864639
16110872147
16110879227
16110890030
16110899063
16110909256
16110916336
16110928360
16110936661
16110945877
16110952896
16110961746
16110969375
16110976089
16110984329
16110992264
16110999405
16111009231
16111017654
16111025039
16111032303
16111041641
16111048965
16111057998
16111065628
16111073684
16111080337
16111088577
16111096633
16111104873
16111112136
16111120437
16111127883
16111136428
16111144668
16111153213
16111161208
16111168594
16111177139
16111184890
16111193252
16111200698
16111208511
16111218215
16111226150
16111232619
16111240920
16111248488
16111257766
16111268081
16111276381
16111286269
16111294997
16111302627
16111310866
16111317702
16111326491
16111334182
16111342360
16111352187
16111360427
16111368300
16111376540
16111383315
16111390456
16111400710
16111408950
16111418776
16111424147
16111433302
16111440566
16111449355
16111456862
16111467726
16111474989
16111482558
16111489211
16111498915
16111505507
16111513563
16111521864
16111530958
16111539015
16111547316
16111556044
16111562269
16111571181
16111579542
16111586500
16111593763
16111604384
16111611708
16111619581
16111627211
16111632582
16111643873
16111649305
16111657850
16111669081
16111676100
16111685133
16111709791
16111717787
16111727125
16111734815
16111744276
16111753492
16111760816
16111769422
16111776807
16111785474
16111792860
16111803602
16111810987
16111817396
16111824537
16111832105
16111839918
16111847303
16111854993
16111862623
16111870130
16111877210
16111883985
16111893262
16111901197
16111908704
16111916394
16111924756
16111932569
16111939100
16111945874
16111954663
16111961194
16111968579
16111974805
16111985669
16111992566
16112000867
16112006787
16112014661
16112023145
16112027966
16112038464
16112043286
16112052319
16112060010
16112068616
16112076306
16112085034
16112091443
16112100415
16112108960
16112115491
16112123486
16112130261
16112137952
16112144482
16112153882
16112160473
16112168591
16112175671
16112184460
16112190625
16112196667
16112200451
16112206982
16112212719
16112219250
16112224377
16112230175
16112235669
16112239575
16112244213
16112249951
16112253369
16112260815
16112266247
16112271984
16112278088
16112282849
16112288342
16112294384
16112301892
16112307812
16112314038
16112319531
16112326000
16112332226
16112338757
16112344189
16112349743
16112357250
16112363110
16112368115
16112374035
16112379406
16112386974
16112393444
16112403576
16112409069
16112414013
16112419140
16112422863
16112431408
16112439587
16112445812
16112454357
16112461254
16112466686
16112473156
16112478954
16112484752
16112491405
16112497204
16112502941
16112509105
16112514171
16112519725
16112526134
16112531627
16112537365
16112542858
16112547985
16112552806
16112559703
16112565319
16112571788
16112577098
16112580638
16112587657
16112592845
16112599376
16112605113
16112609325
16112617076
16112622508
16112627025
16112634166
16112639537
16112645885
16112651561
16112657420
16112663036
16112668407
16112675121
16112678905
16112686717
16112690929
16112697459
16112702953
16112709178
16112714976
16112719127
16112725352
16112731212
16112736095
16112742747
16112750255
16112756480
16112763072
16112767528
16112772899
16112776988
16112785411
16112789195
16112795543
16112801707
16112808665
16112813975
16112817881
16112824229
16112831065
16112836558
16112842234
16112847117
16112853892
16112860606
16112865061
16112872691
16112878672
16112885752
16112890208
16112897044
16112902232
16112908030
16112914256
16112920115
16112924876
16112932261
16112937388
16112942576
16112947154
16112954295
16112960642
16112964610
16112971507
16112977793
16112985117
16112989573
16112997263
16113005076
16113011057
16113017161
16113023997
16113029185
16113035227
16113040903
16113046824
16113054453
16113061411
16113068308
16113073984
16113082529
16113089060
16113094980
16113100046
16113105234
16113110605
16113115671
16113119944
16113124399
16113131540
16113136789
16113142099
16113147104
16113151255
16113156076
16113162851
16113167734
16113173715
16113178903
16113185373
16113190439
16113193613
16113200693
16113204050
16113209848
16113216440
16113222666
16113226633
16113233103
16113238718
16113245004
16113251169
16113256845
16113264169
16113269418
16113277475
16113284067
16113290536
16113294931
16113300973
16113304941
16113314889
16113318613
16113325632
16113331735
16113335580
16113343332
16113347177
16113352914
16113360055
16113366159
16113372018
16113378793
16113387460
16113394479
16113402658
16113409738
16113418100
16113425851
16113433175
16113441842
16113449166
16113458688
16113465951
16113471444
16113480661
16113489144
16113498361
16113506600
16113514352
16113520577
16113528695
16113536996
16113545602
16113554147
16113562264
16113567880
16113577462
16113587777
16113593697
16113602059
16113611336
16113620064
16113629220
16113636483
16113646004
16113653817
16113661080
16113669625
16113677132
16113683663
16113694771
16113700814
16113713143
16113718941
16113728218
16113736580
16113745797
16113752144
16113760506
16113772103
16113783211
16113792366
16113800057
16113809151
16113827278
16113832710
16113842293
16113848763
16113858772
16113866463
16113873299
16113881050
16113887886
16113897469
16113904488
16113912483
16113920418
16113925239
16113934822
16113942268
16113948860
16113955513
16113963814
16113970405
16113977730
16113986580
16113991462
16113999458
16114007026
16114015266
16114023018
16114031135
16114038887
16114046455
16114054023
16114060859
16114068305
16114075752
16114083869
16114091804
16114098091
16114106513
16114113838
16114122871
16114130256
16114138191
16114144843
16114154426
16114160835
16114169135
16114177863
16114186164
16114193732
16114202277
16114209357
16114217597
16114225471
16114233771
16114242072
16114250434
16114256904
16114266181
16114272773
16114279242
16114288886
16114297126
16114305365
16114314154
16114322272
16114328925
16114337165
16114346259
16114352484
16114360785
16114368170
16114378546
16114383856
16114393622
16114401251
16114406622
16114417975
16114424201
16114435980
16114441290
16114449774
16114458075
16114465826
16114473883
16114481757
16114489935
16114497076
16114509222
16114522284
16114533331
16114539618
16114548956
16114555914
16114565558
16114575934
16114584662
16114592474
16114601324
16114609503
16114618597
16114625860
16114632940
16114640692
16114650701
16114655889
16114664434
16114673956
16114679998
16114687811
16114697515
16114705267
16114711492
16114720342
16114726324
16114735967
16114744390
16114750616
16114759039
16114766668
16114773443
16114780889
16114789434
16114797002
16114803350
16114812322
16114818731
16114827642
16114834112
16114842412
16114848821
16114857366
16114863286
16114867986
16114873784
16114878667
16114884710
16114889287
16114895940
16114902105
16114908513
16114913457
16114919622
16114926763
16114930364
16114936834
16114942693
16114951482
16114957891
16114963018
16114968694
16114974919
16114980657
16114986272
16114991216
16114998479
16115005010
16115010747
16115017034
16115022649
16115028264
16115032842
16115040288
16115047002
16115053838
16115058843
16115064824
16115070378
16115077153
16115083806
16115089726
16115096013
16115100590
16115108098
16115112187
16115117741
16115124089
16115128972
16115135747
16115142949
16115147404
16115153691
16115159550
16115164189
16115170353
16115174992
16115184147
16115192936
16115197758
16115204838
16115209782
16115215397
16115220890
16115225529
16115232487
16115239445
16115244450
16115251957
16115256840
16115263981
16115269352
16115273319
16115279606
16115284855
16115289311
16115295841
16115300663
16115307743
16115313725
16115319706
16115323429
16115331730
16115336002
16115342106
16115347721
16115351994
16115356693
16115363529
16115367130
16115375065
16115380192
16115385685
16115390629
16115394596
16115400394
16115406315
16115412418
16115417240
16115422733
16115428715
16115433597
16115439335
16115445255
16115449467
16115454960
16115458256
16115467228
16115473148
16115478763
16115484317
16115488041
16115493107
16115499149
16115503605
16115507938
16115514530
16115521183
16115526065
16115531375
16115537113
16115542179
16115547672
16115553653
16115559513
16115566043
16115571903
16115578617
16115584110
16115590763
16115595218
16115603397
16115611942
16115619266
16115628665
16115636478
16115641849
16115647891
16115657657
16115664310
16115672610
16115677493
16115686160
16115694766
16115700320
16115708621
16115716434
16115722964
16115730960
16115733462
16115743716
16115753787
16115762027
16115770755
16115777896
16115783023
16115791507
16115797671
16115806216
16115811099
16115818240
16115825625
16115834658
16115841922
16115853457
16115860110
16115868411
16115874087
16115883975
16115890933
16115900942
16115908877
16115914431
16115922610
16115932070
16115939761
16115948855
16115955325
16115961794
16115972842
16115977724
16115985903
16115990542
16115997500
16116002993
16116008974
16116014284
16116021609
16116027407
16116033877
16116039553
16116044497
16116049135
16116055300
16116060305
16116067507
16116073183
16116078249
16116084047
16116088991
16116094973
16116101442
16116107790
16116116396
16116120729
16116128115
16116132326
16116139650
16116145632
16116150515
16116155458
16116164308
16116168276
16116176821
16116182314
16116187013
16116194155
16116200197
16116208193
16116213747
16116220583
16116225771
16116231508
16116236269
16116242616
16116246950
16116253481
16116259706
16116265688
16116271242
16116277406
16116281374
16116286806
16116293947
16116300355
16116305910
16116312196
16116317445
16116322938
16116327943
16116333314
16116339601
16116346132
16116351076
16116356935
16116363099
16116367860
16116373903
16116380067
16116383729
16116388917
16116395204
16116403077
16116407289
16116414125
16116418275
16116425172
16116429322
16116436158
16116442323
16116448854
16116453797
16116459779
16116465333
16116470338
16116475892
16116485169
16116492127
16116497865
16116502076
16116508973
16116515870
16116521790
16116526246
16116533570
16116540040
16116550477
16116557679
16116565003
16116570557
16116576966
16116583680
16116589356
16116595216
16116602112
16116608887
16116613831
16116619446
16116625794
16116631226
16116637940
16116641785
16116647767
16116651185
16116656617
16116661622
16116667603
16116672547
16116680909
16116686524
16116691102
16116696473
16116701050
16116706238
16116710144
16116715271
16116722962
16116729493
16116735413
16116739441
16116745179
16116750794
16116758972
16116764649
16116771057
16116776856
16116783631
16116788635
16116792359
16116798828
16116805481
16116811096
16116815796
16116822205
16116829163
16116835144
16116840332
16116846741
16116852905
16116858582
16116862610
16116868652
16116872986
16116882080
16116887146
16116892273
16116898254
16116905578
16116910705
16116916443
16116921203
16116926819
16116932434
16116936828
16116944092
16116950439
16116954712
16116959717
16116965210
16116971496
16116977050
16116982666
16116988464
16116995422
16117002624
16117009704
16117015686
16117019836
16117027221
16117030761
16117036010
16117044189
16117049499
16117055786
16117063354
16117068481
16117074951
16117080688
16117085021
16117090270
16117095641
16117099975
16117106628
16117113708
16117119262
16117125366
16117131408
16117137206
16117141784
16117146972
16117151611
16117156676
16117161193
16117165893
16117170776
16117174560
16117181640
16117185302
16117190368
16117195739
16117201476
16117206481
16117211486
16117215331
16117220702
16117225402
16117230346
16117236022
16117241881
16117246276
16117252013
16117257689
16117262999
16117269103
16117275145
16117280150
16117286681
16117293334
16117300414
16117304503
16117312194
16117317504
16117323973
16117329222
16117333129
16117341490
16117345275
16117353697
16117360289
16117365477
16117370238
16117374327
16117379576
16117386229
16117389525
16117395690
16117401732
16117408812
16117413695
16117418028
16117423888
16117429747
16117435179
16117440733
16117446654
16117452513
16117458617
16117464415
16117470396
16117476500
16117480650
16117485899
16117491148
16117499937
16117506346
16117512816
16117520567
16117524962
16117530821
16117539427
16117547850
16117554869
16117560789
16117565428
16117571653
16117577025
16117581846
16117587706
16117592772
16117600889
16117606138
16117612364
16117618101
16117626036
16117632200
16117638121
16117645567
16117653318
16117659483
16117666868
16117673033
16117680052
16117684202
16117692686
16117697813
16117705564
16117712278
16117719297
16117725279
16117731382
16117737486
16117742918
16117749021
16117755674
16117761533
16117767271
16117772459
16117777586
16117783689
16117789487
16117795225
16117801633
16117806333
16117812742
16117816953
16117823301
16117829282
16117834775
16117839780
16117846677
16117852537
16117858030
16117862851
16117868711
16117873716
16117880063
16117884946
16117891538
16117896360
16117902036
16117906614
16117913572
16117918332
16117922177
16117930234
16117939511
16117944944
16117951230
16117955869
16117960996
16117965146
16117970334
16117976804
16117982785
16117987424
16117993527
16117998898
16118004941
16118012509
16118018186
16118023373
16118029355
16118035947
16118041745
16118046017
16118051450
16118057797
16118063779
16118069028
16118074826
16118080929
16118086789
16118092465
16118097897
16118103512
16118107052
16118113034
16118121945
16118128232
16118134091
16118139340
16118145443
16118149838
16118156125
16118161435
16118166501
16118174252
16118181393
16118185360
16118191464
16118198544
16118203061
16118208493
16118214901
16118219906
16118226498
16118234433
16118239743
16118244442
16118253842
16118258114
16118264767
16118271237
16118277218
16118282833
16118290707
16118297482
16118302609
16118309200
16118314816
16118322872
16118328426
16118332150
16118340145
16118343807
16118350094
16118355587
16118360348
16118365963
16118373226
16118378902
16118383297
16118388973
16118393734
16118398861
16118404720
16118410518
16118415951
16118421505
16118427059
16118430904
16118437374
16118442562
16118447445
16118452694
16118457699
16118463009
16118468380
16118473385
16118478817
16118484920
16118489986
16118495845
16118503048
16118508907
16118513240
16118518611
16118524288
16118529598
16118535457
16118542598
16118549678
16118555660
16118561275
16118566707
16118572444
16118577388
16118583248
16118588741
16118595332
16118600887
16118606502
16118612605
16118616267
16118623409
16118627437
16118634761
16118639156
16118645869
16118652095
16118656795
16118662349
16118667354
16118672908
16118679378
16118682735
16118689998
16118695979
16118701167
16118705928
16118712031
16118716914
16118724360
16118729182
16118736628
16118742122
16118748164
16118752986
16118759028
16118765559
16118771174
16118775630
16118783686
16118788813
16118794429
16118798762
16118805293
16118810237
16118815852
16118822993
16118831355
16118836482
16118844050
16118848750
16118854548
16118859736
16118865168
16118872431
16118879511
16118884699
16118893122
16118897517
16118902705
16118909663
16118915278
16118920893
16118926814
16118932368
16118937983
16118942561
16118947932
16118954646
16118958613
16118964655
16118970087
16118974604
16118979975
16118985773
16118990839
16118996577
16119001581
16119006586
16119011835
16119017389
16119022944
16119028376
16119033686
16119039301
16119045160
16119049738
16119055353
16119061701
16119067438
16119072931
16119079096
16119084040
16119088861
16119095331
16119100214
16119106562
16119111750
16119118097
16119122980
16119129267
16119134210
16119140009
16119145685
16119152460
16119157953
16119163935
16119169916
16119175897
16119180536
16119185968
16119192011
16119195673
16119203180
16119209467
16119214960
16119221063
16119225763
16119230524
16119236139
16119242609
16119250848
16119256403
16119260126
16119265741
16119271356
16119276666
16119282770
16119289606
16119295648
16119300104
16119306329
16119312433
16119317987
16119323053
16119328424
16119333307
16119339288
16119346490
16119352228
16119357843
16119363885
16119368585
16119373956
16119381707
16119388055
16119394830
16119401605
16119409417
16119416131
16119423089
16119432000
16119442193
16119448968
16119457940
16119464593
16119475945
16119485650
16119491937
16119499749
16119505792
16119514031
16119523614
16119533013
16119538628
16119549920
16119558526
16119565484
16119572381
16119576836
16119584649
16119591485
16119596490
16119602837
16119608208
16119614251
16119619988
16119625603
16119630486
16119636834
16119642144
16119646966
16119655266
16119660943
16119667473
16119672295
16119678887
16119683770
16119690178
16119695244
16119699273
16119706536
16119710564
16119718010
16119721978
16119728874
16119734246
16119740471
16119746392
16119751702
16119758110
16119763664
16119769219
16119774468
16119780022
16119785698
16119791741
16119796929
16119802849
16119808708
16119814201
16119819634
16119825798
16119830193
16119835136
16119843315
16119848625
16119854423
16119859367
16119865349
16119870354
16119876274
16119882194
16119889885
16119896049
16119903862
16119912041
16119918449
16119924370
16119931267
16119938408
16119942924
16119949882
16119956291
16119961235
16119966911
16119973076
16119979118
16119984062
16119990104
16119997367
16120002006
16120008720
16120014946
16120020011
16120024894
16120031486
16120036613
16120043754
16120047660
16120054618
16120060050
16120066032
16120070793
16120077079
16120082572
16120087394
16120096366
16120104484
16120110282
16120115409
16120120292
16120125785
16120131461
16120140678
16120147697
16120154960
16120158805
16120166740
16120172660
16120176749
16120182792
16120188346
16120193595
16120200309
16120206046
16120210380
16120215812
16120221000
16120227164
16120233268
16120239676
16120243522
16120248710
16120253959
16120258902
16120264396
16120270621
16120275870
16120281546
16120288138
16120293631
16120297965
16120303763
16120309256
16120315238
16120323172
16120327506
16120333182
16120338919
16120344840
16120350333
16120354910
16120360037
16120367789
16120373648
16120378470
16120383658
16120389761
16120394644
16120400504
16120404959
16120411185
16120418753
16120424735
16120429129
16120435294
16120440359
16120445914
16120451285
16120457083
16120463370
16120469290
16120474417
16120480337
16120486258
16120491812
16120496878
16120503042
16120510122
16120516226
16120522207
16120527395
16120532339
16120537771
16120543997
16120549002
16120556997
16120562002
16120567984
16120572866
16120578726
16120584036
16120587576
16120595755
16120600454
16120607717
16120613516
16120619375
16120625540
16120630178
16120636099
16120642324
16120648123
16120655752
16120661856
16120666128
16120672720
16120678457
16120684866
16120690359
16120696096
16120703359
16120709158
16120713003
16120719289
16120725576
16120731130
16120738393
16120744802
16120751089
16120757741
16120763052
16120768423
16120774709
16120781240
16120787466
16120791494
16120797048
16120803884
16120809926
16120813772
16120819936
16120826223
16120832387
16120838613
16120844533
16120849660
16120855825
16120862111
16120867360
16120873281
16120878286
16120881948
16120888417
16120894460
16120900258
16120904897
16120912099
16120917470
16120921804
16120929128
16120933766
16120940541
16120945485
16120951345
16120957082
16120963185
16120967092
16120974721
16120979848
16120985890
16120990651
16120996632
16121003224
16121007924
16121013600
16121019399
16121024587
16121031606
16121037831
16121042836
16121048451
16121054677
16121060719
16121066701
16121071156
16121076771
16121080556
16121089284
16121095082
16121100514
16121104298
16121110463
16121116139
16121122426
16121127675
16121133717
16121139637
16121144764
16121151600
16121157765
16121161976
16121168141
16121173756
16121180409
16121185902
16121194142
16121199391
16121205311
16121210438
16121216664
16121221607
16121228504
16121234974
16121239674
16121245960
16121250660
16121257130
16121263600
16121267689
16121272816
16121279163
16121286610
16121294605
16121300648
16121306995
16121313770
16121320179
16121325001
16121329578
16121338245
16121343311
16121350513
16121357716
16121364185
16121368458
16121375416
16121382618
16121388050
16121393238
16121398731
16121404346
16121410328
16121414966
16121420704
16121426624
16121433033
16121438343
16121442798
16121448658
16121455311
16121461597
16121466114
16121472644
16121478504
16121483875
16121489551
16121496204
16121502185
16121506153
16121512378
16121518482
16121524890
16121529468
16121536182
16121543079
16121548816
16121555469
16121560901
16121565235
16121570728
16121578296
16121584216
16121591419
16121598682
16121603626
16121610339
16121614490
16121620837
16121624316
16121631641
16121636951
16121644153
16121649890
16121654529
16121659412
16121665820
16121670215
16121675830
16121682178
16121688830
16121696704
16121700915
16121708728
16121712695
16121720019
16121723681
16121729358
16121735949
16121742968
16121749255
16121754687
16121760119
16121765124
16121770984
16121776538
16121782336
16121788317
16121794116
16121798510
16121803515
16121810046
16121814929
16121820666
16121826220
16121834277
16121837939
16121845019
16121850512
16121855822
16121861193
16121866992
16121871813
16121878466
16121883776
16121889147
16121896166
16121900378
16121908617
16121912646
16121918871
16121924548
16121932177
16121936327
16121941637
16121947741
16121953722
16121960009
16121967455
16121974474
16121980517
16121987292
16121992663
16121998095
16122003893
16122009386
16122014696
16122020617
16122026232
16122032213
16122038378
16122042528
16122048632
16122054735
16122059252
16122064135
16122072557
16122076403
16122083055
16122088366
16122094591
16122099474
16122105760
16122110094
16122117784
16122123217
16122127062
16122134752
16122140062
16122144762
16122150194
16122155382
16122161058
16122167772
16122173692
16122178697
16122183824
16122192308
16122198595
16122204454
16122210191
16122215685
16122221666
16122226793
16122232530
16122238206
16122243089
16122250108
16122255052
16122261766
16122267320
16122273607
16122278429
16122283800
16122288255
16122294359
16122300340
16122305223
16122313829
16122317918
16122323900
16122329637
16122336229
16122341844
16122347154
16122351365
16122358995
16122364976
16122370836
16122376939
16122382310
16122388414
16122393846
16122398728
16122406419
16122412278
16122417771
16122423326
16122428636
16122434312
16122440904
16122446153
16122455125
16122460435
16122468736
16122474839
16122481614
16122488816
16122497117
16122503648
16122516099
16122528062
16122534470
16122544541
16122550400
16122558884
16122565842
16122573472
16122582505
16122588181
16122599167
16122605698
16122617905
16122621995
16122629197
16122637558
16122644455
16122652573
16122659592
16122664963
16122670639
16122676743
16122681992
16122687424
16122692124
16122697007
16122707077
16122714585
16122720383
16122725815
16122733261
16122739121
16122743271
16122750290
16122756760
16122761154
16122767319
16122772873
16122777878
16122783432
16122788071
16122794174
16122801193
16122807602
16122813339
16122818161
16122824570
16122829330
16122832993
16122841598
16122848801
16122854843
16122859421
16122866012
16122872177
16122877609
16122881210
16122887008
