16124110394
16124116437
16124121869
16124127484
16124132733
16124137127
16124142437
16124148114
16124155316
16124160809
16124166241
16124171673
16124176800
16124184185
16124188275
16124195416
16124201031
16124207623
16124212506
16124219708
16124225628
16124231365
16124238629
16124246685
16124253826
16124260174
16124266949
16124273174
16124279949
16124287335
16124294537
16124299969
16124307354
16124314495
16124321270
16124327862
16124336407
16124343609
16124350078
16124357952
16124366375
16124375896
16124383159
16124389995
16124395061
16124401531
16124406414
16124411907
16124418621
16124426372
16124432781
16124439190
16124445659
16124453960
16124460369
16124469463
16124477153
16124488384
16124493267
16124499126
16124506267
16124511638
16124517803
16124524028
16124529216
16124535686
16124542461
16124548564
16124554241
16124560588
16124566203
16124573467
16124577983
16124585063
16124590129
16124596294
16124603557
16124608440
16124616435
16124621745
16124627727
16124635966
16124640910
16124647868
16124653789
16124660869
16124667644
16124674541
16124680522
16124685832
16124692851
16124700175
16124705607
16124712321
16124717021
16124723430
16124732158
16124740886
16124747050
16124755473
16124761210
16124767924
16124775981
16124782450
16124789469
16124794657
16124803385
16124810160
16124815837
16124821818
16124827860
16124833476
16124839457
16124847209
16124852397
16124859660
16124864726
16124870768
16124879008
16124884074
16124892252
16124897868
16124904154
16124910380
16124916849
16124921732
16124928568
16124934672
16124942545
16124948283
16124951517
16124962015
16124968241
16124973429
16124979960
16124986674
16124999857
16125008036
16125016581
16125024942
16125033365
16125041666
16125048990
16125057535
16125064188
16125070047
16125076151
16125082376
16125089090
16125096659
16125103311
16125109476
16125115396
16125121317
16125128885
16125137857
16125143533
16125149454
16125155496
16125160989
16125167581
16125174844
16125181375
16125189493
16125197000
16125202371
16125209695
16125214517
16125222330
16125228494
16125235635
16125243509
16125252664
16125258340
16125264810
16125271158
16125280801
16125286905
16125292886
16125301736
16125311197
16125319497
16125326516
16125332681
16125340493
16125347573
16125354776
16125360696
16125368081
16125375405
16125383523
16125392556
16125400491
16125406655
16125416238
16125422036
16125432229
16125438638
16125449746
16125457131
16125465188
16125470254
16125478860
16125487527
16125495644
16125501382
16125507912
16125516274
16125523659
16125527932
16125536660
16125543801
16125549294
16125553017
16125558388
16125562417
16125567055
16125571206
16125575722
16125579201
16125583230
16125588601
16125594155
16125599221
16125605019
16125609292
16125617348
16125626137
16125632424
16125639321
16125645729
16125654091
16125660805
16125665505
16125670327
16125677040
16125683022
16125690163
16125695717
16125701515
16125707009
16125711830
16125715920
16125720497
16125723976
16125730812
16125737038
16125742775
16125745522
16125752968
16125756813
16125761696
16125766213
16125770729
16125777504
16125781288
16125786537
16125791969
16125796303
16125799965
16125804665
16125811684
16125817604
16125822243
16125827187
16125831520
16125837318
16125843483
16125848854
16125853065
16125858864
16125863991
16125867470
16125874855
16125878700
16125885048
16125888710
16125895241
16125900062
16125905250
16125910255
16125916908
16125923622
16125929725
16125933937
16125940895
16125945350
16125950782
16125953468
16125963234
16125967506
16125972999
16125978492
16125984413
16125987403
16125996437
16126001441
16126007789
16126012184
16126017982
16126023475
16126030128
16126035560
16126041297
16126046180
16126051551
16126057288
16126062721
16126068092
16126073463
16126079505
16126082984
16126091346
16126096290
16126104285
16126110084
16126114478
16126121009
16126128150
16126134498
16126141944
16126147864
16126153358
16126159217
16126163978
16126171424
16126176063
16126181495
16126187598
16126194129
16126205604
16126215430
16126222327
16126228736
16126235511
16126241553
16126247351
16126252417
16126258582
16126265296
16126271216
16126275367
16126281043
16126285620
16126291846
16126298316
16126303870
16126308142
16126314307
16126318396
16126322852
16126328833
16126333777
16126340918
16126345740
16126354407
16126359595
16126364844
16126370764
16126375464
16126379492
16126384863
16126390479
16126397375
16126401709
16126406714
16126411108
16126416296
16126420447
16126427466
16126436011
16126441382
16126446326
16126452002
16126456335
16126461828
16126466467
16126472632
16126479101
16126484289
16126488745
16126493994
16126501013
16126505163
16126511572
16126516821
16126522497
16126528967
16126533972
16126538427
16126545202
16126550207
16126556128
16126561010
16126567114
16126574255
16126579504
16126583898
16126590002
16126596289
16126599951
16126606176
16126611914
16126617834
16126622045
16126627661
16126632482
16126638464
16126645178
16126649145
16126655615
16126660070
16126667883
16126673864
16126677099
16126684362
16126688696
16126693761
16126702795
16126711217
16126718786
16126726110
16126733495
16126741247
16126749792
16126757970
16126765966
16126770177
16126781164
16126788488
16126799779
16126807042
16126814550
16126824559
16126832372
16126840673
16126848912
16126861608
16126873571
16126881322
16126889684
16126898290
16126904271
16126915196
16126922948
16126931920
16126936681
16126949681
16126956822
16126966710
16126973363
16126980931
16126988255
16126997350
16127004796
16127013707
16127021580
16127028783
16127036717
16127045201
16127053746
16127060521
16127068455
16127077000
16127083226
16127089695
16127098668
16127107884
16127113743
16127123631
16127130040
16127137364
16127147068
16127154881
16127162388
16127170933
16127179295
16127185215
16127191441
16127201817
16127208775
16127218296
16127224827
16127232456
16127241795
16127248448
16127259007
16127265598
16127274998
16127280979
16127289158
16127296726
16127304844
16127313206
16127321567
16127330051
16127338169
16127346592
16127355198
16127363071
16127370945
16127377292
16127384128
16127393772
16127399753
16127409153
16127416965
16127426548
16127432895
16127440891
16127447177
16127457431
16127464145
16127472019
16127480747
16127488925
16127495273
16127503940
16127513156
16127518711
16127528110
16127535068
16127544406
16127549960
16127560642
16127568027
16127575412
16127582370
16127590976
16127598361
16127606601
16127614413
16127622653
16127632053
16127638095
16127647555
16127652438
16127661838
16127668063
16127677890
16127685824
16127695407
16127702548
16127709994
16127720919
16127730929
16127741000
16127748568
16127759310
16127767489
16127775790
16127780062
16127789584
16127796176
16127804476
16127813632
16127820040
16127828463
16127834567
16127842989
16127849825
16127859042
16127865511
16127874117
16127880343
16127888827
16127895296
16127902254
16127911227
16127918307
16127923983
16127933321
16127939303
16127948397
16127956087
16127963106
16127970064
16127977572
16127984102
16127992586
16128002840
16128009066
16128015535
16128024996
16128031771
16128041536
16128047823
16128055452
16128065462
16128072725
16128082308
16128087313
16128097566
16128103670
16128111727
16128118624
16128129305
16128135835
16128146272
16128154024
16128162752
16128171175
16128179597
16128186678
16128194612
16128200532
16128206087
16128210481
16128215730
16128222566
16128228059
16128232942
16128239107
16128244478
16128248872
16128255769
16128261384
16128266878
16128270967
16128276277
16128282502
16128287019
16128291658
16128299348
16128303804
16128310334
16128315278
16128320100
16128326692
16128331941
16128337800
16128344209
16128348664
16128354097
16128361177
16128365205
16128370027
16128376008
16128382234
16128388154
16128393952
16128397553
16128402741
16128407807
16128414338
16128418855
16128424287
16128431367
16128438630
16128444611
16128452180
16128456574
16128462678
16128467866
16128474397
16128483735
16128490083
16128496918
16128502595
16128508332
16128513581
16128517731
16128524140
16128529572
16128533784
16128538483
16128543488
16128549348
16128554169
16128559296
16128565888
16128570649
16128573823
16128580109
16128584687
16128590058
16128594758
16128599518
16128606110
16128611786
16128616486
16128623383
16128626740
16128633759
16128637726
16128642914
16128647614
16128654389
16128660675
16128666291
16128671601
16128676789
16128681122
16128687042
16128693512
16128699188
16128704804
16128708710
16128713104
16128720490
16128724823
16128729950
16128735321
16128741669
16128746430
16128750946
16128755951
16128763153
16128767914
16128772064
16128778351
16128785431
16128791351
16128794952
16128800140
16128805756
16128812103
16128816742
16128822052
16128825531
16128833404
16128839203
16128845550
16128849945
16128854889
16128859772
16128863495
16128870453
16128875885
16128880707
16128886200
16128892242
16128895477
16128901153
16128908111
16128912445
16128919830
16128927032
16128930877
16128938812
16128943328
16128950347
16128955780
16128962066
16128967803
16128974273
16128979522
16128986907
16128996368
16129004852
16129012054
16129019683
16129025359
16129031219
16129037628
16129042266
16129049285
16129056243
16129063323
16129068267
16129072967
16129079436
16129083770
16129089690
16129095122
16129099395
16129106109
16129110381
16129115325
16129121245
16129125884
16129131072
16129136931
16129143584
16129148955
16129155425
16129159942
16129165252
16129170623
16129176421
16129181792
16129187407
16129195342
16129199920
16129206267
16129212493
16129217803
16129222258
16129228972
16129234771
16129239226
16129246001
16129252288
16129259062
16129263579
16129268523
16129274932
16129281157
16129286711
16129294097
16129298552
16129304717
16129310942
16129315703
16129320281
16129325774
16129331450
16129336638
16129345854
16129354216
16129362090
16129369719
16129374052
16129381987
16129391753
16129397368
16129406645
16129412993
16129421782
16129428679
16129436308
16129441679
16129451506
16129458830
16129466154
16129472563
16129479399
16129487333
16129495207
16129501799
16129509794
16129517973
16129525724
16129535002
16129544401
16129552153
16129559172
16129568266
16129575529
16129584623
16129592008
16129601530
16129608305
16129617399
16129624479
16129631864
16129641203
16129648405
16129655424
16129662260
16129678068
16129689725
16129697721
16129704374
16129715787
16129724149
16129734769
16129746183
16129752347
16129763395
16129769254
16129778531
16129786283
16129793912
16129801297
16129810025
16129815763
16129823026
16129831937
16129839444
16129846097
16129854032
16129867276
16129875638
16129884793
16129893704
16129904263
16129913785
16129921292
16129927762
16129933499
16129940946
16129948514
16129955899
16129962918
16129970670
16129978116
16129985623
16129991605
16129998318
16130005887
16130012418
16130020413
16130027798
16130035245
16130042569
16130049222
16130055569
16130062710
16130069668
16130076626
16130083218
16130090542
16130097378
16130103909
16130113369
16130120144
16130127774
16130133389
16130141812
16130151028
16130158230
16130164639
16130172879
16130179043
16130188442
16130194790
16130202358
16130211147
16130218350
16130225063
16130232571
16130239895
16130246121
16130255337
16130261318
16130268887
16130275600
16130284878
16130292812
16130301174
16130308987
16130314541
16130322658
16130330105
16130336696
16130343899
16130351589
16130359279
16130367519
16130372341
16130380947
16130386989
16130395656
16130402675
16130411098
16130417812
16130425197
16130433498
16130444179
16130450954
16130458644
16130466823
16130474819
16130482265
16130490322
16130498073
16130506679
16130516017
16130523586
16130529872
16130536769
16130543788
16130550685
16130558437
16130565089
16130570766
16130578639
16130588771
16130595058
16130601955
16130610744
16130618068
16130624232
16130631984
16130641566
16130649562
16130658351
16130666224
16130674952
16130681666
16130688319
16130696742
16130702967
16130709132
16130717372
16130724086
16130731715
16130739466
16130744105
16130748805
16130756007
16130760096
16130765711
16130769679
16130775965
16130779750
16130784449
16130789332
16130796900
16130801478
16130807032
16130812647
16130817652
16130821742
16130827296
16130831690
16130838648
16130843897
16130848414
16130852076
16130857630
16130863245
16130867945
16130872828
16130878931
16130882960
16130888941
16130893702
16130898585
16130903956
16130909022
16130917994
16130923121
16130927454
16130934107
16130938135
16130944971
16130949732
16130957667
16130963831
16130968958
16130974146
16130980066
16130984949
16130990686
16130994654
16131000818
16131006556
16131012842
16131017054
16131022913
16131027063
16131032862
16131037378
16131043909
16131048792
16131057093
16131064661
16131070215
16131076319
16131083399
16131088342
16131096216
16131102014
16131108850
16131113733
16131118799
16131123560
16131130151
16131134912
16131139002
16131144983
16131150903
16131155847
16131159814
16131166345
16131169458
16131175806
16131180994
16131185998
16131190271
16131195154
16131198816
16131205102
16131212366
16131218652
16131222253
16131227868
16131231897
16131237573
16131241601
16131247644
16131254297
16131259057
16131263208
16131269800
16131274011
16131280359
16131284448
16131290796
16131296472
16131301355
16131306115
16131312402
16131317834
16131324243
16131328942
16131336694
16131342553
16131349389
16131355554
16131361840
16131367883
16131373193
16131377038
16131383996
16131390222
16131395410
16131399865
16131406640
16131411279
16131418054
16131423730
16131429528
16131435021
16131440209
16131445397
16131452599
16131458947
16131465417
16131467065
16131474938
16131481042
16131489526
16131494286
16131500268
16131507958
16131513146
16131517602
16131523949
16131531945
16131537804
16131541894
16131547021
16131552453
16131558861
16131561852
16131569298
16131574547
16131580956
16131586205
16131593468
16131603112
16131609703
16131617211
16131622216
16131627526
16131635277
16131641259
16131648827
16131653221
16131658287
16131661827
16131666954
16131670922
16131676048
16131682091
16131685875
16131690392
16131697106
16131701866
16131707176
16131711510
16131717125
16131720848
16131725975
16131730492
16131736717
16131741600
16131746666
16131750511
16131756310
16131760277
16131764366
16131769676
16131775230
16131779991
16131786034
16131792015
16131796959
16131801414
16131809898
16131816246
16131826195
16131832786
16131839683
16131846824
16131854332
16131862694
16131870323
16131878807
16131886680
16131894493
16131902183
16131909202
16131916465
16131923912
16131931358
16131941673
16131948570
16131956138
16131962913
16131969139
16131978660
16131986595
16131993980
16132001609
16132008750
16132017478
16132024314
16132032371
16132039573
16132047996
16132056419
16132063682
16132072776
16132079795
16132086753
16132096091
16132102256
16132109519
16132119285
16132127463
16132133872
16132141379
16132150168
16132158469
16132164451
16132172873
16132179160
16132187705
16132194663
16132204978
16132211631
16132220847
16132229331
16132237143
16132245078
16132254660
16132262412
16132276206
16132281027
16132291892
16132298544
16132308066
16132316367
16132324728
16132335043
16132342062
16132350302
16132357626
16132363486
16132371664
16132380514
16132387900
16132395956
16132403342
16132409018
16132417685
16132423910
16132431296
16132440207
16132445639
16132454184
16132461203
16132469748
16132475241
16132483664
16132490072
16132498800
16132506735
16132513754
16132521017
16132527670
16132533956
16132542990
16132549581
16132557272
16132564596
16132572470
16132579550
16132586935
16132594930
16132602133
16132609091
16132616476
16132625997
16132631979
16132638326
16132649068
16132655538
16132663473
16132673238
16132682027
16132689046
16132696737
16132706075
16132713643
16132721639
16132729513
16132738057
16132746236
16132754110
16132762533
16132770284
16132774678
16132785115
16132792501
16132800740
16132807210
16132816976
16132823934
16132831868
16132841573
16132849324
16132856526
16132865132
16132872823
16132879170
16132889302
16132896199
16132904866
16132912679
16132920674
16132928365
16132936604
16132944295
16132952351
16132959492
16132969075
16132975728
16132985493
16132991963
16132999898
16133008809
16133016011
16133022114
16133032490
16133040242
16133048237
16133054646
16133062459
16133071919
16133081746
16133090352
16133100789
16133108052
16133115742
16133125508
16133132588
16133142048
16133150227
16133157490
16133164631
16133173176
16133178486
16133187946
16133194111
16133201740
16133209309
16133216755
16133224262
16133229511
16133234821
16133239948
16133242756
16133249531
16133255573
16133259968
16133265095
16133271687
16133275837
16133282185
16133288227
16133292133
16133298969
16133303242
16133309955
16133315265
16133320698
16133326191
16133331257
16133336506
16133341999
16133347431
16133353107
16133359760
16133365558
16133370868
16133375080
16133381488
16133387653
16133392475
16133397419
16133402729
16133409626
16133414142
16133419513
16133426532
16133431293
16133437824
16133441608
16133447406
16133454242
16133459125
16133464984
16133470905
16133475543
16133481037
16133486347
16133492450
16133497699
16133505634
16133509967
16133515765
16133520160
16133525958
16133533099
16133537372
16133544574
16133551166
16133555560
16133561420
16133566791
16133572528
16133578815
16133583881
16133589740
16133597064
16133602435
16133606952
16133612445
16133618732
16133624774
16133629413
16133634234
16133640216
16133645526
16133650226
16133655291
16133661029
16133665606
16133670245
16133675799
16133688006
16133692767
16133700152
16133706317
16133711444
16133717425
16133724444
16133731280
16133737506
16133743426
16133747760
16133752276
16133758013
16133762225
16133769366
16133774615
16133780413
16133784747
16133791705
16133797625
16133802325
16133807696
16133812518
16133818499
16133822955
16133828448
16133834307
16133837725
16133844317
16133850237
16133855181
16133860552
16133865618
16133871050
16133876787
16133882098
16133887652
16133890765
16133898699
16133906389
16133911883
16133916277
16133920916
16133927813
16133932024
16133938616
16133943499
16133950762
16133956438
16133962420
16133968828
16133974443
16133980486
16133985552
16133992083
16133997210
16134002092
16134008806
16134012957
16134019060
16134025530
16134029741
16134034136
16134041643
16134046892
16134053606
16134058000
16134062639
16134069231
16134074907
16134079973
16134086260
16134091570
16134098467
16134103471
16134109514
16134114580
16134119280
16134125261
16134130205
16134135759
16134141435
16134146989
16134153032
16134159196
16134164323
16134170061
16134174455
16134181352
16134186479
16134193071
16134199541
16134203691
16134211259
16134215349
16134222673
16134227617
16134233110
16134240373
16134245805
16134249040
16134256975
16134261674
16134269975
16134275895
16134281694
16134289384
16134296769
16134301774
16134308366
16134313127
16134320451
16134324845
16134330949
16134338761
16134344255
16134348588
16134354692
16134358903
16134364274
16134368791
16134374040
16134380815
16134386430
16134394975
16134400651
16134409989
16134417741
16134424394
16134432145
16134438737
16134448258
16134454972
16134461869
16134468461
16134474869
16134484391
16134490739
16134499283
16134508744
16134516495
16134520768
16134530411
16134536942
16134546280
16134552750
16134562516
16134569474
16134578385
16134588089
16134595047
16134602433
16134610672
16134617935
16134624771
16134633255
16134641861
16134651932
16134659867
16134665909
16134673905
16134682388
16134691300
16134697342
16134706925
16134712357
16134722061
16134728958
16134738297
16134744278
16134754227
16134760879
16134768814
16134778824
16134785965
16134792679
16134800613
16134810257
16134816726
16134825943
16134833938
16134841995
16134849868
16134858047
16134864700
16134873916
16134881973
16134888382
16134895156
16134905410
16134913650
16134920913
16134930130
16134937332
16134947769
16134954910
16134962783
16134972366
16134979568
16134989517
16134998061
16135005264
16135012771
16135020034
16135028274
16135037551
16135046096
16135056533
16135065322
16135075027
16135083816
16135092910
16135099929
16135108901
16135120070
16135128798
16135137221
16135144423
16135154433
16135160354
16135166762
16135175673
16135185683
16135194106
16135200515
16135208266
16135215712
16135224562
16135231764
16135240676
16135248000
16135255385
16135263381
16135270583
16135279311
16135285719
16135295241
16135301527
16135311659
16135318556
16135325697
16135335097
16135341505
16135351393
16135359022
16135366469
16135372877
16135381422
16135389357
16135399916
16135407423
16135416029
16135423720
16135429762
16135436171
16135446913
16135457167
16135465651
16135472059
16135479017
16135488173
16135494825
16135504469
16135511976
16135522413
16135529554
16135539198
16135547438
16135555250
16135562208
16135570143
16135579237
16135587476
16135596143
16135604261
16135608350
16135622083
16135629774
16135637708
16135642103
16135652784
16135659254
16135669385
16135675855
16135684644
16135691419
16135699903
16135709424
16135715955
16135726026
16135733167
16135740552
16135749158
16135757093
16135763990
16135771863
16135780469
16135788648
16135796765
16135804700
16135812024
16135819959
16135826551
16135833203
16135842847
16135850110
16135857678
16135863904
16135869275
16135875318
16135880933
16135885510
16135893079
16135894849
16135906690
16135916455
16135919812
16135928296
16135932813
16135939465
16135945691
16135950207
16135958447
16135963513
16135969922
16135974011
16135979993
16135984570
16135990369
16135995251
16136000134
16136005383
16136010022
16136015271
16136020947
16136027051
16136032116
16136036633
16136041699
16136048657
16136054150
16136059277
16136065014
16136069836
16136075512
16136079907
16136087231
16136092114
16136099255
16136103588
16136110607
16136115551
16136121228
16136127575
16136132092
16136137341
16136144604
16136149914
16136155468
16136160473
16136165905
16136172009
16136176769
16136182446
16136188244
16136193981
16136196850
16136205273
16136209667
16136215710
16136222057
16136225903
16136232555
16136238110
16136244762
16136249645
16136256420
16136261669
16136266735
16136271130
16136277050
16136284496
16136289928
16136295788
16136300182
16136304699
16136312084
16136316540
16136322826
16136327648
16136332165
16136344188
16136350353
16136355724
16136361644
16136368358
16136374584
16136379528
16136384777
16136389171
16136394603
16136399181
16136407054
16136418468
16136426708
16136436046
16136444347
16136448497
16136462169
16136471935
16136482066
16136491954
16136503368
16136516002
16136526317
16136534068
16136543956
16136552257
16136562205
16136571361
16136579295
16136586070
16136594859
16136602244
16136610423
16136618602
16136626170
16136633861
16136642650
16136649730
16136658641
16136664195
16136674693
16136682383
16136690745
16136698436
16136704905
16136716136
16136722666
16136731883
16136738597
16136745616
16136753611
16136762583
16136769969
16136776438
16136786082
16136793284
16136801402
16136809641
16136817271
16136826426
16136833323
16136842844
16136850046
16136856760
16136865794
16136871775
16136881113
16136890269
16136896738
16136906199
16136913767
16136922251
16136930002
16136938059
16136945749
16136956064
16136962534
16136973093
16136981333
16136990854
16136998362
16137007761
16137015695
16137023935
16137032541
16137039560
16137050302
16137057627
16137070017
16137081918
16137093576
16137103891
16137120004
16137134103
16137147714
16137161874
16137177255
16137191598
16137205148
16137219491
16137233896
16137247934
16137257455
16137264596
16137273690
16137292001
16137311532
16137328927
16137348458
16137361276
16137372018
16137382943
16137393014
16137403878
16137415414
16137426522
16137436044
16137447701
16137456917
16137466439
16137475045
16137485421
16137496346
16137508858
16137517708
16137526375
16137534493
16137543099
16137552620
16137562081
16137571358
16137582100
16137591744
16137599129
16137609017
16137617317
16137626717
16137635689
16137644112
16137656746
16137666145
16137676338
16137686653
16137695259
16137705940
16137716194
16137723701
16137734261
16137744575
16137754707
16137763313
16137774422
16137783089
16137793526
16137803718
16137813179
16137821296
16137829902
16137840461
16137852180
16137861763
16137873298
16137881721
16137890571
16137900642
16137910896
16137919563
16137930183
16137941474
16137948432
16137960822
16137969611
16137978645
16137987251
16137998298
16138007880
16138018012
16138025397
16138037482
16138046271
16138053046
16138066535
16138073676
16138080817
16138087043
16138093940
16138098639
16138105231
16138112189
16138120063
16138125190
16138130683
16138137336
16138142585
16138149054
16138156073
16138164985
16138172553
16138179938
16138187812
16138195441
16138201056
16138206916
16138215155
16138222418
16138227118
16138236151
16138242377
16138249396
16138254218
16138261664
16138269171
16138275702
16138283270
16138289496
16138295294
16138301337
16138308539
16138314398
16138321539
16138327704
16138334174
16138339423
16138345831
16138351080
16138359747
16138365301
16138372198
16138377691
16138383490
16138389288
16138396490
16138403631
16138409430
16138415411
16138422369
16138427679
16138433966
16138440313
16138446966
16138454351
16138461004
16138466864
16138474676
16138481390
16138489019
16138499151
16138507269
16138514654
16138523748
16138529608
16138538091
16138544500
16138551336
16138558721
16138567449
16138573675
16138580145
16138585882
16138594488
16138599432
16138607854
16138616277
16138623479
16138631353
16138636480
16138644048
16138650701
16138656255
16138665410
16138673467
16138679693
16138686834
16138693731
16138700445
16138706548
16138711736
16138721624
16138728032
16138733098
16138737798
16138743840
16138747930
16138751897
16138758306
16138761419
16138772710
16138776982
16138784185
16138791875
16138798955
16138806584
16138811956
16138817021
16138823247
16138827214
16138839055
16138845036
16138850347
16138856816
16138861211
16138866033
16138870061
16138876653
16138882695
16138887822
16138894780
16138899419
16138904485
16138909734
16138916447
16138921086
16138925725
16138930852
16138935185
16138940129
16138945988
16138952153
16138956853
16138962102
16138967534
16138973027
16138977482
16138983159
16138988041
16138994328
16138998601
16139004765
16139010319
16139014653
16139021367
16139025944
16139031132
16139036686
16139040104
16139046635
16139052433
16139057316
16139061528
16139067570
16139073002
16139078068
16139083378
16139087284
16139091679
16139096257
16139101017
16139108525
16139114140
16139120610
16139125553
16139130253
16139136418
16139142033
16139145634
16139152165
16139157536
16139162968
16139167179
16139172611
16139177494
16139183170
16139188053
16139193241
16139200565
16139206730
16139212528
16139217899
16139222416
16139227665
16139232975
16139237675
16139244572
16139252445
16139257450
16139262699
16139269169
16139272343
16139279117
16139283146
16139290409
16139296512
16139302372
16139315677
16139329471
16139343570
16139356205
16139363590
16139372074
16139381229
16139388431
16139396305
16139402347
16139408939
16139413089
16139417118
16139423648
16139428165
16139433841
16139438358
16139445133
16139450321
16139456180
16139461246
16139465762
16139470767
16139475833
16139480960
16139484744
16139491397
16139496890
16139502444
16139507999
16139514713
16139519717
16139527957
16139532779
16139537601
16139542544
16139547488
16139554202
16139558780
16139564151
16139570743
16139576724
16139581546
16139586551
16139593081
16139597476
16139603824
16139610171
16139616153
16139621402
16139627383
16139632388
16139638125
16139644351
16139650088
16139655093
16139661013
16139665774
16139672000
16139679263
16139684268
16139690371
16139696719
16139702456
16139709231
16139716006
16139721987
16139727053
16139732668
16139737612
16139743472
16139749941
16139755618
16139760989
16139767275
16139773074
16139778689
16139783450
16139788699
16139795351
16139801211
16139807803
16139815188
16139824343
16139830569
16139839419
16139849795
16139859926
16139867007
16139874697
16139881777
16139890810
16139899538
16139909304
16139923464
16139930117
16139939333
16139946291
16139955019
16139965395
16139975527
16139982363
16139992556
16139998659
16140006472
16140015749
16140023317
16140029238
16140038759
16140045229
16140054567
16140060976
16140068910
16140078554
16140087465
16140093874
16140101137
16140110536
16140118288
16140127565
16140133668
16140143007
16140150697
16140158266
16140166322
16140173707
16140181520
16140191591
16140199708
16140207033
16140213624
16140221498
16140229066
16140239259
16140245790
16140253907
16140262635
16140270753
16140279481
16140287538
16140294984
16140303102
16140310731
16140318971
16140325196
16140335084
16140344361
16140352540
16140359010
16140367616
16140374146
16140382569
16140391969
16140401124
16140407532
16140415406
16140424866
16140433167
16140443299
16140451295
16140458985
16140467225
16140475342
16140483399
16140490174
16140499939
16140509461
16140516724
16140523377
16140532349
16140541260
16140548829
16140557373
16140568604
16140576722
16140584412
16140591980
16140598999
16140609375
16140616638
16140626038
16140632630
16140641419
16140651856
16140658569
16140666382
16140675110
16140683167
16140692200
16140701294
16140708740
16140717895
16140726257
16140737610
16140743408
16140753235
16140763794
16140773559
16140781433
16140788147
16140796020
16140804443
16140811889
16140820007
16140827514
16140835632
16140843200
16140849670
16140858886
16140865783
16140873352
16140882019
16140888732
16140895263
16140904724
16140910827
16140919799
16140926818
16140935607
16140944091
16140950317
16140956664
16140964843
16140972228
16140977721
16140986388
16140992126
16141000488
16141006408
16141014831
16141023315
16141031188
16141037109
16141044738
16141051147
16141063231
16141071715
16141077941
16141084228
16141095946
16141104613
16141111693
16141119017
16141129516
16141135985
16141145873
16141153075
16141162108
16141169371
16141176207
16141188292
16141194274
16141204833
16141212279
16141220336
16141226134
16141232176
16141237486
16141244444
16141249449
16141256163
16141260802
16141267455
16141271849
16141278319
16141283507
16141290953
16141295897
16141302061
16141307188
16141313902
16141318480
16141324889
16141330199
16141335692
16141342894
16141347777
16141354307
16141359190
16141364378
16141369444
16141375303
16141380247
16141387144
16141392454
16141399473
16141404539
16141410093
16141413389
16141422911
16141429503
16141434568
16141440611
16141445494
16141452085
16141457396
16141462950
16141469480
16141475035
16141483030
16141488523
16141492796
16141497923
16141503477
16141510984
16141516722
16141523008
16141528868
16141533933
16141539610
16141544798
16141551695
16141557005
16141563108
16141570371
16141577024
16141582151
16141587888
16141593443
16141599363
16141605405
16141612241
16141617490
16141622861
16141629758
16141633726
16141640623
16141646482
16141652158
16141657773
16141663694
16141668943
16141674436
16141679929
16141686460
16141692808
16141699949
16141705015
16141710691
16141717160
16141724607
16141729612
16141734128
16141740110
16141747190
16141753781
16141758176
16141762754
16141769895
16141775266
16141782468
16141787168
16141792478
16141798764
16141804135
16141809934
16141815671
16141821958
16141828549
16141834531
16141838681
16141844602
16141851682
16141857968
16141863400
16141869809
16141876523
16141881223
16141886777
16141892636
16141898679
16141905514
16141908932
16141916196
16141920895
16141927365
16141932187
16141937619
16141945737
16141949582
16141955258
16141963559
16141969357
16141974118
16141980343
16141985959
16141992001
16141998410
16142002987
16142007931
16142014889
16142019345
16142027401
16142034604
16142039730
16142049618
16142056210
16142063412
16142070614
16142075619
16142082211
16142089352
16142095700
16142100033
16142105404
16142110409
16142116879
16142120480
16142126217
16142133114
16142137814
16142144283
16142149532
16142156857
16142161923
16142168087
16142173641
16142179256
16142185177
16142190060
16142195187
16142200741
16142204769
16142209286
16142216549
16142221126
16142226925
16142231991
16142238155
16142242672
16142250423
16142254818
16142262386
16142267757
16142272396
16142279537
16142283138
16142288936
16142295406
16142301815
16142308712
16142314022
16142318294
16142325069
16142329830
16142339351
16142345333
16142351497
16142356136
16142361934
16142367244
16142372676
16142375606
16142382381
16142386470
16142395565
16142401302
16142408138
16142412837
16142422359
16142428890
16142439632
16142446773
16142453914
16142460750
16142470149
16142475887
16142485469
16142490901
16142501033
16142507869
16142516841
16142521846
16142529964
16142539058
16142544917
16142552485
16142559871
16142569636
16142576350
16142585872
16142592097
16142598933
16142607417
16142619014
16142628657
16142635737
16142643489
16142651728
16142660151
16142668452
16142676081
16142689570
16142700495
16142711115
16142718745
16142725947
16142736262
16142745112
16142752863
16142761897
16142769038
16142776423
16142783503
16142791315
16142798579
16142806208
16142816035
16142823481
16142833308
16142841669
16142850214
16142858088
16142866144
16142874140
16142882380
16142891047
16142898249
16142904963
16142914362
16142920649
16142931513
16142938410
16142948114
16142953669
16142962213
16142969477
16142979364
16142986322
16142994074
16143004144
16143011713
16143022577
16143030878
16143037958
16143048761
16143057855
16143066095
16143074396
16143079767
16143088373
16143094537
16143101617
16143111200
16143119745
16143127740
16143135797
16143143365
16143152460
16143162530
16143169855
16143178460
16143187433
16143193292
16143201654
16143207330
16143217584
16143224908
16143232232
16143239801
16143248773
16143256585
16143260675
16143270806
16143278680
16143285699
16143293450
16143300836
16143306939
16143314080
16143322259
16143329949
16143337274
16143347161
16143355706
16143366204
16143373833
16143381707
16143390984
16143399590
16143408074
16143416314
16143426079
16143435906
16143445367
16143454949
16143463982
16143473382
16143484429
16143492424
16143500969
16143509392
16143517327
16143524590
16143534905
16143542107
16143548516
16143555168
16143564141
16143569939
16143576714
16143584954
16143593254
16143601616
16143610466
16143618096
16143626152
16143634148
16143642510
16143649162
16143656731
16143665215
16143672173
16143681633
16143686760
16143695732
16143701042
16143711296
16143717827
16143725212
16143734062
16143743706
16143749992
16143757438
16143766228
16143773979
16143779655
16143784477
16143788933
16143794121
16143797783
16143803337
16143809318
16143815361
16143821037
16143826591
16143829948
16143837761
16143842521
16143849662
16143854179
16143859184
16143866203
16143871147
16143876945
16143882560
16143888725
16143893608
16143899711
16143904716
16143908927
16143913078
16143921562
16143927177
16143932670
16143937675
16143944999
16143949638
16143955680
16143961173
16143966483
16143974357
16143980827
16143986503
16143993766
16144000297
16144006278
16144011893
16144014579
16144021842
16144028678
16144034476
16144038993
16144044974
16144049796
16144055106
16144061576
16144066581
16144073295
16144079093
16144084647
16144089042
16144094657
16144100272
16144106253
16144112540
16144118705
16144127555
16144133963
16144137137
16144144339
16144150138
16144156241
16144161673
16144167411
16144172843
16144179007
16144184867
16144189139
16144194144
16144199515
16144206107
16144210806
16144218680
16144224234
16144228873
16144234549
16144239554
16144245413
16144250296
16144255728
16144261649
16144267142
16144272025
16144277518
16144282462
16144289114
16144294302
16144299918
16144305228
16144312491
16144317923
16144323477
16144329336
16144334463
16144339529
16144345938
16144352102
16144356192
16144362295
16144366629
16144372610
16144376883
16144382620
16144388785
16144395193
16144400625
16144406118
16144411673
16144417227
16144422598
16144428762
16144432669
16144437918
16144443716
16144449575
16144455679
16144461233
16144467581
16144473379
16144480703
16144486868
16144493765
16144498098
16144503652
16144508535
16144513967
16144519766
16144525930
16144531301
16144536733
16144542898
16144547781
16144554495
16144559316
16144564687
16144570974
16144575918
16144582143
16144586721
16144592214
16144598135
16144605947
16144611745
16144616750
16144623464
16144630239
16144635915
16144642629
16144648000
16144653798
16144658925
16144666128
16144673635
16144680532
16144685842
16144692739
16144699147
16144706105
16144712026
16144716726
16144722341
16144729299
16144735891
16144741689
16144746877
16144752309
16144759206
16144765126
16144770619
16144775197
16144782033
16144786916
16144792043
16144797963
16144805409
16144809438
16144815602
16144822011
16144828053
16144832082
16144837453
16144842397
16144847646
16144854726
16144859425
16144865163
16144871510
16144876698
16144882008
16144888966
16144895558
16144901479
16144909230
16144915211
16144927663
16144934498
16144943654
16144953053
16144958912
16144968007
16144978566
16144988392
16144996388
16145007252
16145014882
16145022328
16145033192
16145040089
16145048817
16145058155
16145065052
16145074147
16145083424
16145092396
16145101368
16145108875
16145117298
16145125233
16145131275
16145140858
16145147999
16145156361
16145163746
16145174305
16145181812
16145190662
16145198414
16145206898
16145213795
16145223194
16145230152
16145237232
16145246876
16145253589
16145261341
16145269459
16145278675
16145287220
16145296070
16145300586
16145311145
16145323963
16145332264
16145341724
16145348499
16145359424
16145363819
16145376575
16145384509
16145397205
16145403736
16145412830
16145417835
16145426990
16145436633
16145443286
16145452625
16145458667
16145467090
16145475146
16145482532
16145488513
16145496753
16145505725
16145513232
16145522082
16145529590
16145536670
16145544909
16145553943
16145562488
16145570361
16145576526
16145584277
16145592700
16145600085
16145608630
16145615832
16145623645
16145630358
16145638598
16145644335
16145652270
16145662097
16145668811
16145679248
16145687182
16145693896
16145702075
16145707995
16145717516
16145726977
16145734240
16145743578
16145752062
16145758227
16145767199
16145774584
16145784594
16145793871
16145800524
16145808703
16145813280
16145822497
16145830492
16145837084
16145848253
16145856005
16145865404
16145872362
16145880419
16145889818
16145897081
16145906847
16145914293
16145923204
16145928453
16145937365
16145946642
16145953112
16145962816
16145971788
16145978929
16145984850
16145993456
16146000475
16146007128
16146015123
16146025133
16146032274
16146038744
16146050523
16146058153
16146066698
16146075853
16146085374
16146091783
16146101854
16146108263
16146118944
16146125841
16146132982
16146142503
16146149583
16146155931
16146165452
16146172471
16146180101
16146188768
16146198228
16146205369
16146215745
16146221910
16146227586
16146233262
16146238938
16146244493
16146251512
16146257249
16146262315
16146267686
16146272935
16146280015
16146285752
16146291917
16146298753
16146304002
16146310166
16146315720
16146322007
16146327805
16146332505
16146339341
16146343736
16146351670
16146356736
16146363328
16146368638
16146374619
16146379014
16146384507
16146392258
16146397446
16146403123
16146407700
16146414414
16146419236
16146426011
16146433579
16146439316
16146444565
16146449997
16146454880
16146463059
16146467392
16146472703
16146478074
16146484726
16146490464
16146496384
16146503037
16146507309
16146513718
16146519333
16146525376
16146532822
16146539841
16146545456
16146551560
16146558152
16146562729
16146569992
16146575913
16146582138
16146589218
16146593857
16146600022
16146606186
16146612717
16146619553
16146623459
16146629929
16146636948
16146642563
16146647812
16146652878
16146658371
16146664352
16146670212
16146677109
16146685043
16146689316
16146697006
16146702011
16146709762
16146714523
16146721237
16146726120
16146731186
16146738266
16146744980
16146750900
16146756454
16146759262
16146766281
16146770858
16146778183
16146782455
16146788742
16146792831
16146799240
16146804123
16146811081
16146817184
16146823104
16146827743
16146834213
16146838668
16146844223
16146850875
16146855209
16146861923
16146868820
16146874313
16146879135
16146885055
16146890609
16146896163
16146901595
16146907089
16146913863
16146919845
16146926376
16146931136
16146938033
16146943404
16146948226
16146953719
16146959151
16146965621
16146970565
16146976607
16146983260
16146988082
16146993636
16146999740
16147004928
16147012069
16147017684
16147022506
16147028304
16147033797
16147039229
16147045516
16147051436
16147056380
16147062179
16147067977
16147073470
16147077071
16147085555
16147090438
16147097335
16147103255
16147111556
16147117049
16147124251
16147129439
16147135543
16147140914
16147146102
16147151656
16147158919
16147165816
16147168807
16147177046
16147182906
16147188338
16147193892
16147200240
16147209395
16147215010
16147220686
16147226241
16147231856
16147237166
16147247176
16147253096
16147262923
16147269209
16147274580
16147279951
16147286055
16147293318
16147299910
16147305525
16147312178
16147318281
16147323652
16147330244
16147336531
16147343184
16147348555
16147354109
16147358809
16147366621
16147371260
16147377974
16147382612
16147389448
16147394087
16147399336
16147405745
16147411604
16147415815
16147421003
16147430036
16147436628
16147443220
16147451765
16147458723
16147466352
16147474409
16147481428
16147490888
16147497663
16147505598
16147513777
16147520796
16147529279
16147537031
16147544477
16147550092
16147556318
16147565595
16147571271
16147581220
16147588422
16147598188
16147604475
16147611616
16147620161
16147626020
16147635908
16147642377
16147652875
16147660016
16147669111
16147676252
16147682966
16147688947
16147698590
16147704023
16147713666
16147722272
16147729291
16147736310
16147743817
16147747663
16147758161
16147766522
16147772016
16147781293
16147789594
16147796063
16147805097
16147811017
16147818341
16147827252
16147832929
16147842023
16147848615
16147857831
16147863995
16147873029
16147877972
16147887189
16147893414
16147901410
16147912091
16147919476
16147925213
16147935284
16147941510
16147948956
16147955792
16147963360
16147971112
16147979474
16147987103
16147995037
16148001629
16148010296
16148016278
16148024456
16148031720
16148040936
16148051617
16148058087
16148068463
16148075482
16148082562
16148091412
16148099285
16148108074
16148116253
16148123943
16148130962
16148138165
16148145977
16148153728
16148161053
16148169353
16148177166
16148184856
16148192730
16148200603
16148208355
16148212261
16148222027
16148228435
16148238018
16148244488
16148253704
16148261455
16148269451
16148275737
16148282207
16148291484
16148297039
16148306499
16148313030
16148322368
16148327617
16148336956
16148342815
16148350933
16148358867
16148367168
16148373943
16148381511
16148387981
16148395610
16148401286
16148410381
16148419597
16148427898
16148435954
16148444072
16148450481
16148459026
16148464824
16148472209
16148482463
16148488200
16148497478
16148504252
16148510966
16148519816
16148527202
16148533061
16148542644
16148549601
16148559428
16148564616
16148574565
16148581401
16148588908
16148594828
16148602885
16148611064
16148619303
16148625529
16148634440
16148640300
16148649821
16148655802
16148662394
16148671427
16148680461
16148686747
16148692973
16148701945
16148708964
16148716105
16148724345
16148731059
16148738993
16148746745
16148753641
16148761210
16148770426
16148776469
16148784403
16148792216
16148799601
16148810038
16148814554
16148822977
16148828959
16148835428
16148840494
16148847513
16148853312
16148860331
16148867045
16148872233
16148875345
16148882425
16148888590
16148893900
16148899393
16148904276
16148908243
16148913919
16148917704
16148922403
16148928018
16148932535
16148937540
16148945108
16148949564
16148954386
16148960855
16148965433
16148970560
16148976053
16148981973
16148988199
16148993265
16148998941
16149003885
16149008218
16149015054
16149018717
16149023904
16149030252
16149035928
16149042032
16149046976
16149051431
16149056375
16149060525
16149067056
16149072610
16149079324
16149083597
16149089944
16149093912
16149100320
16149104471
16149109537
16149116434
16149121255
16149126504
16149131692
16149136392
16149142007
16149146951
16149150979
16149156228
16149163186
16149168130
16149172281
16149179239
16149183633
16149188699
16149193582
16149199258
16149204934
16149210183
16149215127
16149220254
16149224343
16149230447
16149234719
16149240151
16149245095
16149252236
16149258584
16149262795
16149269021
16149273355
16149279092
16149284219
16149289468
16149296914
16149301858
16149305581
16149311929
16149315896
16149321938
16149327615
16149332558
16149335732
16149343179
16149347695
16149353738
16149358071
16149362832
16149368691
16149373757
16149379922
16149389260
16149394814
16149402566
16149407204
16149413369
16149419411
16149424050
16149428811
16149433877
16149441384
16149445351
16149450722
16149455422
16149461647
16149465126
16149470864
16149476601
16149480568
16149485390
16149490700
16149494728
16149500588
16149504738
16149510537
16149514931
16149520180
16149525307
16149529946
16149534584
16149541115
16149545754
16149552284
16149560402
16149566872
16149572121
16149577126
16149582253
16149587258
16149592629
16149597450
16149603676
16149609108
16149614357
16149619606
16149623695
16149629677
16149634254
16149639503
16149644447
16149650002
16149656105
16149660316
16149666176
16149670998
16149676063
16149681373
16149686806
16149694801
16149700050
16149704262
16149709266
16149714638
16149719520
16149725197
16149730385
16149736427
16149740394
16149745155
16149750160
16149755958
16149761573
16149765480
16149771217
16149776100
16149782142
16149789833
16149794349
16149799965
16149804969
16149810585
16149815956
16149822181
16149828956
16149835365
16149840614
16149846046
16149851112
16149857093
16149861549
16149866187
16149876869
16149882179
16149889198
16149894264
16149899268
16149902870
16149910377
16149915504
16149921119
16149928565
16149934303
16149939246
16149946449
16149952430
16149958961
16149965552
16149971229
16149977759
16149983680
16149990760
16149995277
16150001258
16150006812
16150012366
16150017737
16150023414
16150029700
16150036536
16150041724
16150046119
16150051368
16150056067
16150060950
16150067298
16150072669
16150077247
16150083716
16150087806
16150092383
16150098853
16150103003
16150109656
16150114905
16150121680
16150126624
16150132422
16150135901
16150142310
16150147315
16150152259
16150156348
16150163306
16150167700
16150173621
16150178198
16150183325
16150188025
16150192969
16150197241
16150207007
16150211462
16150216589
16150222022
16150227026
16150231909
16150237097
16150243384
16150249304
16150254553
16150259863
16150263892
16150269995
16150274390
16150280615
16150284888
16150291235
16150297522
16150303076
16150311804
16150317419
16150321875
16150327429
16150333838
16150341040
16150345801
16150352514
16150356421
16150361792
16150368017
16150371557
16150377844
16150382971
16150389563
16150393774
16150399939
16150405004
16150409521
16150415258
16150420080
16150426794
16150431982
16150436376
16150441381
16150447302
16150453527
16150459265
16150464453
16150467626
16150474523
16150478979
16150486059
16150492162
16150497289
16150501196
16150506384
16150513708
16150519994
16150528600
16150535497
16150540563
16150545995
16150551488
16150558019
16150562048
16150570043
16150575780
16150582006
16150587926
16150593420
16150598058
16150603307
16150611425
16150616674
16150621801
16150626989
16150632482
16150637121
16150641149
16150645726
16150651830
16150658483
16150664525
16150669286
16150674413
16150679540
16150681859
16150688146
16150692296
16150699010
16150704015
16150709447
16150714086
16150719335
16150723790
16150730077
16150734593
16150740697
16150745030
16150751683
16150755651
16150762181
16150766515
16150772374
16150776647
16150781529
16150788487
16150792088
16150797765
16150802831
16150808812
16150812352
16150817540
16150825291
16150830235
16150834691
16150839879
16150845677
16150850987
16150855016
16150860142
16150865697
16150872716
16150875828
16150882359
16150886754
16150893101
16150897191
16150902012
16150907445
16150916234
16150921177
16150927952
16150932713
16150938206
16150942845
16150948094
16150953892
16150961583
16150968174
16150973545
16150978123
16150983067
16150988499
16150993504
16151000767
16151007420
16151013523
16151019200
16151025914
16151028965
16151036106
16151041294
16151047215
16151053562
16151061680
16151066258
16151071324
16151076878
16151081577
16151088291
16151096897
16151101963
16151108311
16151113560
16151119785
16151125034
16151131016
16151136082
16151141270
16151146702
16151153538
16151160984
16151164951
16151170627
16151177708
16151182651
16151187290
16151192295
16151195652
16151202854
16151208408
16151213962
16151217991
16151223667
16151227695
16151233066
16151238010
16151245456
16151252475
16151257724
16151263889
16151268283
16151272983
16151277195
16151282627
16151289035
16151295688
16151300327
16151305271
16151310520
16151315525
16151320468
16151325534
16151331882
16151338779
16151343479
16151348545
16151353244
16151358859
16151364108
16151369235
16151374606
16151380405
16151388339
16151393466
16151396335
16151405185
16151409152
16151415134
16151419284
16151426364
16151432590
16151437717
16151442538
16151447543
16151451938
16151458346
16151463046
16151469760
16151475619
16151479526
16151484775
16151488620
16151495212
16151499667
16151506625
16151511264
16151517734
16151523898
16151528048
16151533664
16151537814
16151543918
16151551730
16151557101
16151561862
16151568881
16151572787
16151577609
16151583224
16151588595
16151593539
16151599948
16151606417
16151611117
16151615634
16151622286
16151627413
16151631076
16151637362
16151643099
16151651156
16151659396
16151664034
16151670931
16151675204
16151681185
16151685824
16151692416
16151696932
16151704073
16151711092
16151716464
16151721102
16151725802
16151731295
16151738314
16151743075
16151750033
16151754549
16151759981
16151765047
16151769442
16151776949
16151781710
16151786837
16151791414
16151796114
16151801607
16151807100
16151812655
16151817904
16151824679
16151829317
16151833468
16151839632
16151844332
16151848787
16151854891
16151859713
16151866304
16151872591
16151877291
16151881136
16151887117
16151890902
16151896944
16151903597
16151908541
16151913240
16151917513
16151923128
16151928377
16151933138
16151939546
16151945223
16151950960
16151956331
16151961397
16151966768
16151972444
16151977327
16151982271
16151987764
16151993746
16151999910
16152005098
16152009737
16152014803
16152019380
16152024324
16152027986
16152035127
16152040010
16152047029
16152051485
16152057527
16152061677
16152066377
16152073091
16152077791
16152083162
16152088716
16152094819
16152098909
16152104707
16152108247
16152115510
16152121492
16152126497
16152132295
16152136934
16152141938
16152146699
16152151765
16152156709
16152163850
16152167939
16152174348
16152179719
16152185456
16152191438
16152199067
16152205842
16152208772
16152217805
16152224458
16152230561
16152236115
16152241426
16152244599
16152253449
16152259431
16152266999
16152271821
16152278779
16152283173
16152287690
16152293977
16152299165
16152303254
16152309663
16152315461
16152322663
16152327546
16152332612
16152336274
16152341279
16152345795
16152353303
16152359040
16152364289
16152368622
16152373200
16152377167
16152382233
16152389741
16152395478
16152401764
16152406098
16152412201
16152417023
16152421052
16152425629
16152432526
16152436799
16152443696
16152449555
16152453522
16152457612
16152464142
16152470307
16152476410
16152483918
16152488678
16152494782
16152499420
16152503815
16152510163
16152514740
16152519501
16152527252
16152532379
16152537750
16152542511
16152548187
16152553192
16152557892
16152562836
16152570892
16152576447
16152581207
16152586273
16152591827
16152597504
16152602081
16152607147
16152611542
16152618439
16152623138
16152628937
16152634613
16152637787
16152643707
16152648163
16152653107
16152658905
16152665436
16152669647
16152675445
16152680633
16152686127
16152691742
16152696930
16152702667
16152711334
16152716949
16152722809
16152728241
16152733490
16152740814
16152745880
16152751312
16152760772
16152768951
16152775360
16152780975
16152787017
16152791473
16152797454
16152802764
16152809112
16152816009
16152821807
16152825958
16152831634
16152835235
16152841949
16152847198
16152853729
16152858734
16152865997
16152870635
16152875152
16152880401
16152884551
16152892181
16152896758
16152903594
16152908538
16152914214
16152919585
16152925384
16152928802
16152935149
16152941741
16152946319
16152952972
16152956878
16152963409
16152967437
16152972808
16152977752
16152983855
16152990508
16152994964
16152999480
16153005279
16153010100
16153015105
16153020171
16153026824
16153031829
16153036162
16153042510
16153047393
16153052642
16153059600
16153065093
16153070586
16153077788
16153081328
16153087676
16153093169
16153098235
16153102751
16153108123
16153111418
16153119841
16153125701
16153131377
16153136504
16153140227
16153145964
16153151396
16153156645
16153165556
16153170378
16153177153
16153181792
16153185881
16153192290
16153197051
16153203154
16153210234
16153216704
16153221526
16153226103
16153231474
16153236418
16153240691
16153247160
16153252409
16153260283
16153265593
16153272002
16153277922
16153284392
16153288298
16153296232
16153303374
16153312651
16153321440
16153328703
16153335600
16153342985
16153348600
16153357512
16153365202
16153377226
16153385771
16153394133
16153400419
16153406156
16153412687
16153419523
16153428373
16153433134
16153441313
16153450773
16153457609
16153461332
16153469816
16153476042
16153484708
16153489835
16153494962
16153502653
16153508390
16153514066
16153519132
16153524137
16153529874
16153534391
16153539396
16153544645
16153553495
16153558866
16153564603
16153568937
16153574064
16153578031
16153584012
16153589017
16153596097
16153600736
16153606901
16153611661
16153617277
16153623075
16153626920
16153632963
16153639188
16153643644
16153649747
16153653836
16153658597
16153665067
16153670072
16153674894
16153681119
16153687955
16153692472
16153698148
16153703275
16153708524
16153713101
16153718106
16153722989
16153730069
16153735257
16153739957
16153744534
16153751187
16153754971
16153760037
16153766690
16153772427
16153777493
16153782864
16153788663
16153792447
16153796658
16153803616
16153808255
16153814114
16153820645
16153825101
16153829251
16153836392
16153841702
16153846890
16153852383
16153861478
16153869412
16153875760
16153881314
16153885708
16153892239
16153898038
16153902554
16153907986
16153915921
16153921048
16153927273
16153932278
16153938138
16153943509
16153950039
16153955899
16153961575
16153969448
16153976040
16153983487
16153987027
16153994107
16153999234
16154003872
16154009304
16154016629
16154021145
16154028652
16154032925
16154037930
16154042629
16154048306
16154054470
16154061794
16154066372
16154071865
16154077114
16154082851
16154085659
16154092922
16154097439
16154104580
16154109890
16154115383
16154119350
16154125271
16154129116
16154133938
16154140224
16154144436
16154151089
16154156887
16154160915
16154166836
16154171718
16154176540
16154181118
16154188991
16154195705
16154200954
16154205471
16154211513
16154216701
16154221096
16154226650
16154233974
16154241542
16154246547
16154251918
16154256008
16154262416
16154266994
16154272182
16154278652
16154285793
16154290432
16154295436
16154300807
16154306362
16154311305
16154316432
16154321681
16154327541
16154333766
16154338161
16154342067
16154348598
16154352809
16154357387
16154363979
16154371120
16154376796
16154382289
16154386928
16154392421
16154396388
16154401454
16154408656
16154413905
16154418422
16154424098
16154429469
16154435512
16154441371
16154445582
16154451930
16154459071
16154465175
16154470851
16154476649
16154481715
16154486720
16154491420
16154496852
16154505336
16154511134
16154516871
16154520717
16154526698
16154531825
16154539576
16154546351
16154552760
16154559718
16154564601
16154569423
16154574244
16154579737
16154584437
16154590724
16154597377
16154602137
16154606532
16154612330
16154616114
16154620875
16154626063
16154631068
16154637354
16154642420
16154647486
16154652186
16154656458
16154662196
16154666163
16154670802
16154677027
16154683619
16154688807
16154694727
16154699244
16154703394
16154708277
16154712428
16154717677
16154723719
16154728846
16154733424
16154737574
16154743250
16154749110
16154754420
16154760645
16154766627
16154771998
16154777186
16154781641
16154786524
16154791773
16154797754
16154806421
16154811976
16154815027
16154822718
16154828211
16154833094
16154835840
16154841456
16154846521
16154853846
16154858423
16154864527
16154868494
16154874842
16154878931
16154883509
16154889917
16154895777
16154902368
16154907373
16154912317
16154917810
16154922388
16154927271
16154932276
16154937097
16154944177
16154948633
16154954981
16154959497
16154965051
16154971521
16154975977
16154982813
16154989465
16154995447
16155003381
16155008020
16155012537
16155020227
16155024133
16155029993
16155033716
16155043970
16155049646
16155055261
16155058862
16155066858
16155071557
16155078760
16155084009
16155089441
16155095971
16155106653
16155111963
16155118860
16155123071
16155128076
16155134240
16155141015
16155148828
16155155297
16155159570
16155165612
16155169885
16155175195
16155180078
16155186425
16155193078
16155197595
16155204064
16155208520
16155213159
16155218164
16155223779
16155232202
16155239099
16155243127
16155250024
16155253625
16155258630
16155263574
16155269128
16155275048
16155281030
16155287133
16155292748
16155296532
16155302209
16155308007
16155313073
16155316186
16155323022
16155327721
16155334191
16155339440
16155345360
16155349938
16155356896
16155361230
16155367760
16155374291
16155378625
16155384057
16155389062
16155392907
16155398888
16155404015
16155409386
16155415917
16155420434
16155426293
16155430626
16155436486
16155440392
16155445214
16155452782
16155458031
16155462853
16155469323
16155473961
16155479332
16155484398
16155502892
16155509117
16155514855
16155519798
16155527428
16155532250
16155538414
16155545555
16155550926
16155555870
16155561791
16155566673
16155572044
16155574913
16155582604
16155589378
16155595360
16155601646
16155607445
16155611656
16155616783
16155621971
16155625328
16155631798
16155638084
16155642906
16155648643
16155653892
16155658897
16155664879
16155671104
16155678306
16155684227
16155691612
16155696739
16155703026
16155706749
16155713890
16155719627
16155727623
16155732750
16155738304
16155745445
16155750999
16155756858
16155761863
16155766014
16155771995
16155779258
16155789512
16155795372
16155804283
16155810508
16155817954
16155824363
16155828758
16155834800
16155839805
16155844016
16155848411
16155853294
16155857505
16155862083
16155868797
16155873863
16155878501
16155883018
16155887779
16155892234
16155896995
16155901878
16155907127
16155911521
16155916038
16155920127
16155924094
16155928916
16155933738
16155939109
16155944053
16155949180
16155953574
16155959006
16155964683
16155969382
16155975120
16155980674
16155985618
16155992881
16155997703
16156005210
16156010032
16156015281
16156020835
16156026145
16156029624
16156039267
16156044333
16156049826
16156054709
16156059653
16156062217
16156069602
16156074485
16156080161
16156087302
16156092002
16156099326
16156104819
16156110495
16156116538
16156124228
16156130026
16156135092
16156140647
16156144858
16156150534
16156156149
16156161520
16156169211
16156175436
16156180930
16156186240
16156191367
16156197348
16156203757
16156208456
16156215414
16156221457
16156228171
16156236410
16156242026
16156248190
16156254843
16156259970
16156267660
16156274374
16156279684
16156287558
16156291830
16156296774
16156301413
16156307943
16156313253
16156318197
16156323629
16156327780
16156331503
16156337301
16156341818
16156346945
16156354940
16156359823
16156365499
16156370138
16156375082
16156379354
16156385336
16156390158
16156395162
16156400656
16156405294
16156411459
16156415914
16156422445
16156427877
16156432699
16156439474
16156445455
16156449911
16156455404
16156459249
16156465353
16156471151
16156476034
16156483297
16156487875
16156492757
16156498617
16156504781
16156509481
16156514181
16156521078
16156525106
16156531209
16156537069
16156541219
16156546590
16156551778
16156556600
16156563619
16156568624
16156574972
16156580037
16156586324
16156590841
16156595968
16156600850
16156608053
16156613363
16156618367
16156623678
16156628255
16156632650
16156639180
16156645223
16156651937
16156657552
16156665425
16156670430
