16227153892
16227161095
16227168419
16227177818
16227184654
16227194786
16227203026
16227211571
16227217979
16227228477
16227237999
16227245384
16227256614
16227263633
16227274131
16227282249
16227292442
16227301231
16227311058
16227319847
16227328514
16227336875
16227345664
16227356346
16227368980
16227378745
16227387351
16227396934
16227406821
16227418296
16227428123
16227438071
16227447715
16227456199
16227466636
16227476157
16227487449
16227495994
16227506309
16227515952
16227522788
16227534568
16227547202
16227556418
16227568381
16227579673
16227591147
16227599753
16227611777
16227625693
16227636313
16227644980
16227655112
16227662924
16227672934
16227681540
16227688742
16227699179
16227707724
16227715353
16227724814
16227733908
16227742392
16227755026
16227762900
16227771445
16227779562
16227789145
16227797751
16227808493
16227817831
16227830771
16227838888
16227847006
16227857138
16227864645
16227872458
16227882406
16227894186
16227904623
16227912130
16227922933
16227931051
16227939413
16227949972
16227961569
16227970175
16227980001
16227991720
16228000631
16228008749
16228021139
16228029806
16228041463
16228052145
16228060750
16228071859
16228079671
16228088643
16228101400
16228110433
16228121847
16228130147
16228141622
16228149556
16228166463
16228180318
16228190694
16228211873
16228222615
16228230489
16228242147
16228253194
16228261739
16228272603
16228282369
16228291036
16228301106
16228313313
16228321736
16228333943
16228345418
16228354634
16228363606
16228372822
16228384907
16228396260
16228404316
16228415120
16228422993
16228434102
16228441975
16228451741
16228456257
16228464070
16228471699
16228477558
16228487385
16228493428
16228499470
16228506733
16228515156
16228520832
16228526325
16228533528
16228538899
16228545674
16228551716
16228560322
16228567463
16228573628
16228579182
16228585163
16228590962
16228598530
16228605427
16228611347
16228617268
16228624897
16228631306
16228638386
16228644306
16228649738
16228658283
16228663532
16228671406
16228676594
16228683002
16228689533
16228696796
16228705524
16228710895
16228718342
16228722980
16228730243
16228735920
16228743183
16228755939
16228760944
16228768146
16228773578
16228780048
16228787311
16228794391
16228801593
16228808246
16228816242
16228821247
16228828327
16228833270
16228840473
16228848407
16228856586
16228864093
16228870197
16228876544
16228884113
16228890399
16228899554
16228906390
16228912311
16228918964
16228925311
16228931964
16228938861
16228946857
16228953204
16228961261
16228967242
16228974628
16228981341
16228987323
16228995013
16229003192
16229008380
16229016864
16229024188
16229030780
16229036212
16229044146
16229050616
16229056964
16229063006
16229069903
16229077777
16229083148
16229089617
16229094989
16229101947
16229107012
16229112933
16229118548
16229124591
16229129595
16229134295
16229141314
16229147540
16229152911
16229157672
16229163165
16229168108
16229173968
16229179461
16229185137
16229190691
16229195940
16229201067
16229205584
16229212176
16229217425
16229222369
16229228106
16229234087
16229240313
16229245440
16229250811
16229255938
16229262224
16229265826
16229272661
16229277666
16229284685
16229290606
16229296404
16229302263
16229309221
16229316179
16229319780
16229328020
16229333513
16229337603
16229343889
16229350481
16229357622
16229362871
16229367510
16229373186
16229379045
16229386064
16229393145
16229397722
16229403520
16229410295
16229416155
16229421587
16229428118
16229434343
16229440508
16229446123
16229451921
16229459612
16229466509
16229474138
16229480547
16229486711
16229494707
16229502397
16229509660
16229515581
16229522173
16229527483
16229532976
16229539934
16229549089
16229554399
16229560380
16229565446
16229571062
16229576738
16229582475
16229588518
16229592912
16229600419
16229605913
16229609086
16229615190
16229621599
16229627031
16229632097
16229638627
16229645463
16229650468
16229655778
16229660844
16229666337
16229671830
16229677751
16229685319
16229690141
16229696305
16229701493
16229706620
16229713273
16229717851
16229723588
16229729081
16229737687
16229742875
16229748490
16229755143
16229759232
16229765702
16229771439
16229776688
16229783891
16229790543
16229793961
16229801957
16229806962
16229812455
16229817704
16229822709
16229827897
16229836014
16229842118
16229847855
16229853104
16229858658
16229863297
16229869218
16229875016
16229883072
16229888932
16229894730
16229900406
16229903946
16229910782
16229915787
16229919327
16229927628
16229933609
16229941056
16229944718
16229952713
16229956314
16229962296
16229968399
16229974747
16229979935
16229984940
16229990494
16229996414
16230002640
16230006607
16230012284
16230018387
16230026322
16230031754
16230037918
16230040665
16230048721
16230053787
16230058731
16230063736
16230071182
16230076981
16230083267
16230090897
16230099014
16230105606
16230110245
16230117203
16230124527
16230130814
16230135818
16230140762
16230145828
16230151077
16230156814
16230162674
16230168228
16230172989
16230178116
16230183548
16230189163
16230194351
16230199356
16230203689
16230209305
16230215042
16230220047
16230224685
16230229629
16230234390
16230240982
16230245926
16230253494
16230258743
16230263565
16230269302
16230277175
16230284561
16230291824
16230295669
16230307754
16230311843
16230320632
16230329299
16230336379
16230343459
16230349868
16230358657
16230373306
16230380203
16230387710
16230395583
16230402663
16230409011
16230417861
16230425857
16230433791
16230443069
16230449721
16230457290
16230464004
16230472793
16230479568
16230487380
16230498977
16230506362
16230514357
16230521926
16230528334
16230537917
16230543654
16230552565
16230559890
16230566603
16230574355
16230581801
16230590529
16230595473
16230605483
16230612380
16230619277
16230627883
16230635024
16230643080
16230649550
16230658278
16230664504
16230671523
16230679579
16230688429
16230694899
16230704176
16230710890
16230717604
16230725844
16230732497
16230741347
16230749831
16230758253
16230768385
16230777846
16230790907
16230797133
16230806593
16230814711
16230822706
16230829847
16230837355
16230844374
16230852736
16230860243
16230867140
16230876295
16230881300
16230891371
16230898634
16230907606
16230914930
16230921156
16230930128
16230936842
16230944044
16230951734
16230959120
16230967542
16230975721
16230982496
16230990369
16230998548
16231006910
16231014906
16231023634
16231031446
16231038770
16231045972
16231054883
16231064466
16231072034
16231079420
16231086805
16231095716
16231101880
16231108533
16231117627
16231125379
16231133435
16231138257
16231147718
16231156690
16231164930
16231175244
16231180677
16231187635
16231196363
16231205457
16231212415
16231219434
16231229199
16231236463
16231244275
16231252820
16231260083
16231266309
16231275708
16231283154
16231291821
16231299023
16231308240
16231314709
16231321851
16231329297
16231342847
16231350354
16231357556
16231365368
16231372021
16231379895
16231389905
16231397534
16231404858
16231412610
16231420544
16231429944
16231437146
16231445141
16231453503
16231461926
16231475293
16231484692
16231493359
16231504650
16231509167
16231518139
16231525097
16231537792
16231546581
16231553417
16231559399
16231567883
16231573193
16231581615
16231589306
16231596569
16231604931
16231611217
16231618236
16231622997
16231628551
16231633861
16231638988
16231644482
16231651928
16231656994
16231662426
16231668468
16231673961
16231680065
16231686596
16231690990
16231696056
16231702587
16231706554
16231712719
16231719066
16231723156
16231730419
16231734874
16231740368
16231745250
16231750682
16231756176
16231762279
16231767162
16231773021
16231778087
16231782177
16231792430
16231798229
16231803478
16231807018
16231813304
16231819591
16231824718
16231830699
16231836620
16231842296
16231845592
16231852489
16231858348
16231864757
16231870311
16231876842
16231882701
16231889110
16231895335
16231902354
16231908153
16231916637
16231920177
16231927196
16231932689
16231940196
16231945811
16231951304
16231957286
16231964732
16231971507
16231977366
16231983836
16231988780
16231994945
16232001353
16232007579
16232013499
16232021067
16232027903
16232033763
16232039317
16232045481
16232049388
16232055674
16232062266
16232068980
16232074961
16232081126
16232087229
16232093333
16232100169
16232107737
16232115000
16232122447
16232131968
16232137766
16232148081
16232155589
16232161814
16232168223
16232173655
16232178416
16232184214
16232188975
16232193430
16232199839
16232205210
16232210032
16232215708
16232221995
16232228037
16232234385
16232238169
16232245615
16232250193
16232255259
16232260752
16232267649
16232271982
16232277170
16232283396
16232287974
16232293100
16232298777
16232304819
16232310312
16232315012
16232323435
16232328623
16232334238
16232338877
16232344919
16232349558
16232357309
16232361887
16232367563
16232375009
16232380381
16232385324
16232392343
16232399790
16232405405
16232411814
16232417856
16232423960
16232430246
16232436044
16232440195
16232446848
16232453745
16232460275
16232465463
16232470590
16232477182
16232483286
16232489816
16232496103
16232501901
16232507883
16232513254
16232518747
16232522958
16232529916
16232533273
16232538522
16232546945
16232553598
16232557321
16232563241
16232569650
16232575387
16232581979
16232585885
16232593393
16232599130
16232605172
16232611642
16232617563
16232621957
16232628183
16232633249
16232639230
16232645578
16232651376
16232654977
16232662362
16232666391
16232672250
16232678598
16232684396
16232690072
16232697579
16232707101
16232713510
16232720223
16232725411
16232732858
16232738961
16232745614
16232753671
16232759652
16232765450
16232771493
16232776254
16232781503
16232786141
16232792611
16232797799
16232803719
16232808907
16232814828
16232824105
16232831673
16232840951
16232848641
16232855721
16232863228
16232870308
16232878121
16232886056
16232893624
16232902047
16232909981
16232916573
16232924447
16232931282
16232940926
16232948250
16232956246
16232963936
16232971688
16232978340
16232986397
16232994026
16233002266
16233009285
16233018379
16233027046
16233033211
16233040596
16233048226
16233054573
16233061104
16233068550
16233075142
16233083015
16233092720
16233100410
16233109016
16233117805
16233125740
16233133186
16233139656
16233148323
16233155281
16233163704
16233170906
16233178352
16233185676
16233192207
16233201301
16233207832
16233216438
16233222603
16233231392
16233238594
16233247322
16233255256
16233264167
16233271492
16233278144
16233288032
16233294929
16233303962
16233311530
16233319831
16233326606
16233335517
16233341377
16233349555
16233355109
16233363899
16233371345
16233378181
16233385810
16233392341
16233401923
16233410102
16233421638
16233429023
16233438727
16233446601
16233456550
16233465278
16233476142
16233483649
16233492011
16233499091
16233505072
16233511847
16233517341
16233525763
16233530768
16233539618
16233549262
16233555915
16233562323
16233570929
16233578192
16233586066
16233593756
16233602240
16233609442
16233617743
16233624884
16233632636
16233640997
16233647772
16233655219
16233662970
16233669928
16233676886
16233685309
16233693365
16233702460
16233710211
16233717474
16233726141
16233734503
16233744025
16233751715
16233760016
16233767218
16233775274
16233784125
16233791998
16233801947
16233808477
16233817389
16233825506
16233833685
16233841558
16233848761
16233858953
16233866522
16233874517
16233882635
16233891424
16233897833
16233904669
16233912237
16233920416
16233929876
16233938665
16233946294
16233955389
16233965337
16233972723
16233982610
16233990179
16233999273
16234007146
16234015264
16234023199
16234029912
16234038335
16234047857
16234055120
16234062261
16234069829
16234078985
16234087041
16234095891
16234103460
16234112066
16234120244
16234127691
16234134954
16234149968
16234156743
16234162603
16234170110
16234176396
16234181218
16234187444
16234193791
16234198857
16234204900
16234209294
16234214299
16234218266
16234226567
16234231267
16234237492
16234243901
16234249577
16234254948
16234260381
16234266118
16234270879
16234276616
16234281804
16234286320
16234292546
16234298100
16234302678
16234307500
16234314519
16234321110
16234326298
16234332036
16234337651
16234343571
16234349919
16234355839
16234361943
16234368840
16234373906
16234377507
16234383732
16234390202
16234396183
16234401982
16234408390
16234414372
16234419804
16234425236
16234430973
16234435612
16234441288
16234447697
16234453678
16234459111
16234465275
16234471501
16234477421
16234482060
16234488163
16234493901
16234501408
16234507389
16234518620
16234522953
16234530094
16234534001
16234540959
16234546757
16234553410
16234560429
16234566166
16234571415
16234577763
16234583195
16234589176
16234592655
16234601688
16234608463
16234613712
16234620487
16234625980
16234632023
16234636539
16234642826
16234649784
16234657902
16234665104
16234671024
16234675602
16234682438
16234685428
16234692447
16234697757
16234705692
16234712894
16234718448
16234724491
16234729251
16234735721
16234743228
16234748539
16234756229
16234763675
16234771915
16234776798
16234783390
16234789188
16234795474
16234802188
16234807926
16234813724
16234818546
16234824100
16234829044
16234841739
16234848453
16234852908
16234860599
16234865054
16234871707
16234876041
16234881290
16234886600
16234891666
16234897342
16234904422
16234908694
16234913943
16234919742
16234925357
16234931338
16234936526
16234941592
16234947085
16234952212
16234958499
16234962954
16234970767
16234976077
16234982119
16234989139
16234995486
16235001284
16235007327
16235011966
16235019534
16235024356
16235029849
16235035769
16235041384
16235046878
16235052798
16235057986
16235061953
16235068484
16235073672
16235080020
16235086550
16235092532
16235098757
16235103701
16235108767
16235115115
16235120425
16235125063
16235131045
16235136111
16235141238
16235148745
16235152285
16235159487
16235164858
16235170718
16235175723
16235182070
16235187197
16235192568
16235198672
16235204348
16235209597
16235215945
16235222964
16235228701
16235233950
16235240542
16235246096
16235251894
16235257509
16235261538
16235268007
16235275087
16235282229
16235288576
16235293642
16235298830
16235304812
16235310793
16235316286
16235321657
16235328920
16235335390
16235348268
16235353701
16235364870
16235373537
16235381349
16235389650
16235400209
16235406679
16235414980
16235421510
16235428407
16235435182
16235446657
16235454347
16235461733
16235468019
16235474489
16235481874
16235488161
16235494936
16235501466
16235508424
16235515626
16235522462
16235529481
16235536867
16235544679
16235554506
16235562074
16235568605
16235578004
16235585145
16235592897
16235600099
16235607057
16235614869
16235621522
16235628480
16235636964
16235644227
16235650575
16235658021
16235666200
16235675294
16235682618
16235689698
16235697694
16235704774
16235711854
16235719666
16235729371
16235736024
16235743226
16235751588
16235757935
16235764527
16235770875
16235780152
16235785706
16235795472
16235803101
16235811646
16235819092
16235825989
16235835145
16235843812
16235850525
16235859315
16235867127
16235873597
16235882508
16235888733
16235898987
16235907105
16235914246
16235921936
16235931031
16235938599
16235946595
16235954651
16235962342
16235970276
16235979981
16235984925
16235994812
16236002442
16236009522
16236018494
16236027161
16236034546
16236042969
16236052918
16236059570
16236069458
16236076843
16236087952
16236100525
16236106872
16236117126
16236125976
16236133484
16236141540
16236148254
16236155945
16236163208
16236170288
16236178283
16236185608
16236192199
16236201538
16236207763
16236215210
16236221862
16236231567
16236239196
16236246826
16236253479
16236261230
16236267761
16236273742
16236283203
16236291198
16236297363
16236304687
16236311157
16236317199
16236323242
16236330444
16236339294
16236347228
16236354430
16236362304
16236370116
16236378844
16236385863
16236395446
16236401610
16236411376
16236418334
16236426452
16236436339
16236444396
16236452208
16236459411
16236467589
16236475890
16236484313
16236495360
16236501769
16236510497
16236519103
16236527770
16236535033
16236542784
16236551085
16236562133
16236569579
16236577880
16236584410
16236591857
16236598570
16236606017
16236613524
16236623412
16236630248
16236637938
16236648497
16236656065
16236663329
16236671324
16236678954
16236688902
16236696348
16236700804
16236707457
16236713316
16236719054
16236724486
16236730467
16236736143
16236742308
16236747130
16236752928
16236758543
16236763426
16236769346
16236778624
16236784971
16236792173
16236799192
16236805418
16236812437
16236818724
16236826109
16236834166
16236840086
16236845335
16236850889
16236857115
16236861692
16236867430
16236872312
16236876951
16236881590
16236887266
16236892210
16236896910
16236902647
16236908628
16236913450
16236918394
16236923765
16236928465
16236932798
16236937681
16236942197
16236948972
16236954343
16236960142
16236966673
16236971860
16236976377
16236981748
16236988340
16236993528
16236999937
16237006162
16237012388
16237018003
16237023130
16237029600
16237036252
16237040647
16237046872
16237053159
16237056577
16237062558
16237069211
16237075681
16237082395
16237088376
16237094541
16237099973
16237106321
16237110593
16237119321
16237125852
16237131406
16237138730
16237144406
16237149900
16237154477
16237161862
16237170835
16237177304
16237181821
16237190000
16237193967
16237201230
16237205441
16237211423
16237216062
16237222470
16237228818
16237235165
16237241574
16237247006
16237253415
16237258542
16237263730
16237269406
16237275327
16237281369
16237288937
16237294003
16237299863
16237304806
16237311032
16237317685
16237324216
16237328793
16237335080
16237341672
16237348691
16237355038
16237364438
16237370785
16237377133
16237382138
16237388668
16237394711
16237402340
16237409054
16237414791
16237419552
16237425228
16237430844
16237436581
16237440975
16237448544
16237453854
16237458676
16237463681
16237469235
16237474179
16237478634
16237485409
16237489132
16237496273
16237502072
16237506649
16237513851
16237519589
16237526119
16237531796
16237538082
16237544125
16237550106
16237554928
16237561459
16237566524
16237573116
16237580013
16237587032
16237592892
16237598324
16237604305
16237609432
16237614559
16237619259
16237626034
16237630977
16237636898
16237641537
16237647091
16237652096
16237656734
16237661495
16237667171
16237672603
16237678096
16237684627
16237690975
16237696590
16237701534
16237706417
16237713497
16237717403
16237722774
16237728694
16237734493
16237739315
16237743465
16237750484
16237757137
16237762630
16237768917
16237773738
16237777950
16237783443
16237789668
16237794490
16237804988
16237810603
16237814937
16237822871
16237832393
16237838619
16237849117
16237856380
16237865535
16237874751
16237883845
16237893306
16237902217
16237906550
16237915340
16237923213
16237931819
16237943294
16237952266
16237960872
16237970576
16237982234
16237991694
16238002864
16238010981
16238020686
16238028010
16238035639
16238044551
16238050837
16238058283
16238066035
16238076411
16238085017
16238089717
16238098750
16238107661
16238115595
16238124262
16238133540
16238142146
16238150629
16238158381
16238167902
16238175104
16238181940
16238191401
16238198725
16238204706
16238214411
16238222101
16238230036
16238238276
16238246821
16238254816
16238263910
16238270380
16238279047
16238286615
16238294916
16238303034
16238313288
16238320429
16238326960
16238333551
16238340692
16238351496
16238359369
16238366632
16238373773
16238379633
16238388849
16238395746
16238403375
16238413080
16238421625
16238429315
16238436639
16238444330
16238451227
16238459222
16238469293
16238478754
16238489435
16238502130
16238509088
16238518670
16238532220
16238539056
16238548761
16238555169
16238562677
16238570672
16238577508
16238585016
16238591607
16238598321
16238605035
16238611688
16238618768
16238625909
16238632684
16238640313
16238648736
16238655145
16238662225
16238667718
16238674554
16238683343
16238693780
16238705926
16238714776
16238725640
16238732537
16238745965
16238754327
16238761590
16238767815
16238774285
16238782098
16238789483
16238796136
16238803460
16238811883
16238818841
16238826287
16238833367
16238839715
16238846978
16238852837
16238859490
16238868096
16238875054
16238881890
16238889336
16238897637
16238903374
16238911248
16238918511
16238926140
16238934563
16238941826
16238951897
16238961357
16238969048
16238976250
16238983147
16238991570
16239000847
16239007622
16239015129
16239023979
16239028740
16239036308
16239043266
16239051933
16239059257
16239066704
16239074211
16239081535
16239089531
16239096977
16239104851
16239116142
16239125358
16239132255
16239140068
16239146599
16239153862
16239164360
16239170524
16239176017
16239180778
16239186515
16239194267
16239200920
16239204948
16239209770
16239215446
16239221550
16239225395
16239230217
16239236015
16239243705
16239248466
16239254753
16239260734
16239265983
16239271049
16239276969
16239281913
16239287895
16239295158
16239300468
16239305656
16239310539
16239314506
16239319877
16239324271
16239328727
16239333915
16239338737
16239343864
16239351981
16239357474
16239364677
16239373099
16239379142
16239383720
16239388663
16239393180
16239399894
16239404349
16239409415
16239414359
16239420096
16239425773
16239429740
16239434623
16239439200
16239445792
16239452079
16239457572
16239461844
16239466239
16239471183
16239476310
16239482413
16239488089
16239493277
16239499686
16239505973
16239510916
16239518302
16239522696
16239527945
16239534842
16239539847
16239544730
16239548758
16239553946
16239556388
16239564200
16239569266
16239575186
16239581290
16239586661
16239591483
16239597281
16239602103
16239606864
16239611075
16239619132
16239624136
16239629385
16239634695
16239639517
16239642142
16239648367
16239651175
16239659232
16239665762
16239672415
16239678152
16239681631
16239686575
16239692740
16239697500
16239703543
16239708487
16239714285
16239718985
16239724539
16239730093
16239734976
16239740103
16239745596
16239751944
16239757498
16239762381
16239767691
16239773245
16239778677
16239782461
16239789480
16239796743
16239802725
16239808584
16239814199
16239819693
16239823965
16239828970
16239834890
16239840139
16239846304
16239851492
16239856985
16239863699
16239869924
16239876150
16239882742
16239887380
16239894216
16239900808
16239907705
16239913625
16239920034
16239927053
16239933706
16239936819
16239943655
16239949209
16239953664
16239958730
16239965139
16239969900
16239975942
16239979299
16239986013
16239990957
16239997793
16240002737
16240007070
16240012197
16240016958
16240022329
16240027822
16240034353
16240039541
16240045217
16240050771
16240055837
16240061635
16240067067
16240072438
16240078603
16240083059
16240088002
16240093557
16240099355
16240105092
16240109853
16240117543
16240122426
16240129079
16240133596
16240140981
16240147450
16240153493
16240158681
16240163381
16240168508
16240176198
16240181752
16240186940
16240192555
16240197621
16240204762
16240209889
16240215382
16240221486
16240227040
16240231801
16240237965
16240244191
16240248402
16240254323
16240260548
16240263905
16240273915
16240282033
16240291310
16240298451
16240304982
16240313527
16240320912
16240331044
16240337147
16240345082
16240353077
16240361683
16240368947
16240377125
16240384694
16240393422
16240401112
16240408985
16240417652
16240424733
16240432118
16240442127
16240450917
16240457203
16240466114
16240476429
16240485523
16240491993
16240500050
16240507801
16240516163
16240523487
16240530506
16240539600
16240547047
16240555531
16240563526
16240575184
16240584705
16240592945
16240600635
16240609791
16240624744
16240634754
16240643543
16240652027
16240659290
16240665943
16240675220
16240681385
16240690662
16240699268
16240706226
16240714893
16240722278
16240729908
16240736927
16240746997
16240753650
16240762256
16240769885
16240778491
16240784656
16240792102
16240799304
16240809863
16240817554
16240824207
16240833545
16240840625
16240847400
16240855212
16240864551
16240871875
16240880481
16240887073
16240895068
16240902270
16240911975
16240919543
16240928515
16240936633
16240944568
16240952075
16240960376
16240967822
16240974292
16240981677
16240990649
16240999316
16241006396
16241013842
16241022326
16241030017
16241036608
16241044177
16241052539
16241060717
16241068713
16241076159
16241083483
16241091418
16241098681
16241106249
16241114855
16241123461
16241130846
16241138781
16241146105
16241153735
16241162524
16241170092
16241179064
16241186877
16241194201
16241201891
16241210741
16241218981
16241226793
16241234911
16241241381
16241249804
16241257738
16241266222
16241275316
16241281725
16241291124
16241297167
16241309008
16241315721
16241324205
16241332079
16241339159
16241347399
16241356920
16241365831
16241375414
16241384264
16241391954
16241403978
16241411729
16241425340
16241433885
16241444871
16241453172
16241460191
16241466966
16241475023
16241481798
16241491685
16241498338
16241506883
16241514757
16241521226
16241527940
16241534959
16241542466
16241549974
16241557481
16241564927
16241572313
16241581956
16241589219
16241595079
16241604539
16241611375
16241618699
16241625596
16241633103
16241641526
16241649278
16241655747
16241663072
16241669541
16241677354
16241683762
16241689622
16241695420
16241700120
16241707566
16241712388
16241718247
16241723374
16241729111
16241734544
16241742295
16241748765
16241755967
16241761643
16241768662
16241773728
16241778672
16241784104
16241789231
16241795334
16241802292
16241809495
16241814499
16241819993
16241826279
16241833664
16241838364
16241845566
16241852952
16241857895
16241865708
16241871079
16241873825
16241880906
16241887558
16241892319
16241897019
16241902146
16241907273
16241914231
16241919297
16241924057
16241928696
16241933396
16241940232
16241945847
16241950546
16241955307
16241960434
16241965317
16241970322
16241976242
16241981979
16241986557
16241991684
16241997116
16242002304
16242007980
16242013107
16242017868
16242023911
16242031296
16242035995
16242044723
16242048630
16242054001
16242062729
16242071457
16242075729
16242083176
16242088302
16242093857
16242098862
16242104355
16242110580
16242115890
16242121200
16242126755
16242132370
16242135055
16242141891
16242147567
16242153427
16242159591
16242164657
16242170395
16242175399
16242180099
16242186019
16242189376
16242195480
16242199997
16242206710
16242210189
16242217758
16242223434
16242229110
16242234664
16242239730
16242247177
16242251876
16242257430
16242263168
16242268051
16242274459
16242280074
16242284286
16242289718
16242295821
16242300643
16242305892
16242312911
16242316879
16242322738
16242328597
16242334090
16242341048
16242347335
16242352828
16242359359
16242363570
16242369857
16242375411
16242380904
16242388228
16242393661
16242399093
16242405990
16242409652
16242414779
16242422469
16242425948
16242432052
16242437667
16242443404
16242449691
16242455428
16242462020
16242468245
16242473922
16242479781
16242486922
16242491988
16242497725
16242503279
16242508223
16242515242
16242520491
16242523909
16242531233
16242536666
16242543501
16242548628
16242554427
16242560164
16242565352
16242571517
16242576460
16242582686
16242589522
16242594222
16242597212
16242609724
16242615523
16242621687
16242629988
16242638594
16242643660
16242651533
16242656172
16242663252
16242667891
16242674361
16242681196
16242687971
16242692915
16242698042
16242703901
16242709273
16242714033
16242719221
16242724287
16242730269
16242735396
16242741194
16242746321
16242750837
16242757185
16242761763
16242767378
16242775373
16242780867
16242786116
16242790876
16242796003
16242800276
16242804975
16242811628
16242816572
16242824140
16242829450
16242834455
16242840376
16242845930
16242850385
16242857343
16242863874
16242871809
16242880171
16242888410
16242897382
16242905622
16242913190
16242921430
16242930280
16242936018
16242943403
16242953596
16242958784
16242970258
16242975507
16242983991
16242994184
16242999494
16243009870
16243016950
16243025678
16243033307
16243041547
16243049421
16243058393
16243067487
16243076825
16243084211
16243092572
16243100141
16243107099
16243114789
16243123334
16243131452
16243140180
16243150434
16243158551
16243166303
16243175092
16243182294
16243189435
16243197675
16243205853
16243214032
16243222333
16243231061
16243237469
16243245587
16243254132
16243262738
16243269940
16243277203
16243284527
16243292645
16243300091
16243308026
16243316632
16243324139
16243332318
16243341412
16243349652
16243357220
16243366009
16243373577
16243382489
16243391827
16243400250
16243407879
16243420269
16243429486
16243438153
16243446942
16243455731
16243463665
16243470318
16243479290
16243487225
16243495953
16243502056
16243510601
16243518291
16243527203
16243534283
16243541790
16243550762
16243558147
16243566936
16243574322
16243581524
16243590069
16243598430
16243606609
16243615276
16243621074
16243628948
16243637737
16243645916
16243654094
16243658550
16243667766
16243677410
16243685161
16243692485
16243699993
16243710674
16243716838
16243725017
16243733989
16243740581
16243749919
16243757976
16243765422
16243773601
16243781780
16243786845
16243794780
16243804607
16243811870
16243821941
16243829265
16243836772
16243845256
16243853129
16243861308
16243870463
16243876933
16243886088
16243894633
16243902385
16243910685
16243918803
16243927531
16243931682
16243941935
16243949504
16243958659
16243968974
16243976115
16243981425
16243992655
16243999980
16244005839
16244014079
16244022502
16244031108
16244038920
16244047099
16244054545
16244062907
16244069926
16244077128
16244084879
16244095561
16244103312
16244110331
16244118143
16244125529
16244133585
16244142008
16244150492
16244158060
16244166239
16244175272
16244181864
16244191141
16244196268
16244205607
16244213480
16244222635
16244236002
16244245646
16244255106
16244261698
16244270060
16244280130
16244286844
16244296122
16244303995
16244312601
16244318704
16244327432
16244334940
16244341715
16244348245
16244353861
16244359903
16244365213
16244370401
16244374979
16244379801
16244384500
16244390421
16244395303
16244402200
16244407388
16244414651
16244418436
16244425455
16244430887
16244435220
16244442178
16244448343
16244454813
16244459878
16244465433
16244470926
16244477090
16244482706
16244486307
16244491372
16244497903
16244503152
16244508890
16244514505
16244519510
16244526285
16244530679
16244536294
16244542459
16244548440
16244554300
16244559976
16244565408
16244570962
16244575418
16244581643
16244589090
16244595681
16244600747
16244606362
16244611550
16244617593
16244624124
16244627419
16244632791
16244640298
16244643777
16244651345
16244656472
16244661233
16244668374
16244672830
16244678445
16244684487
16244690530
16244696084
16244701821
16244707497
16244712991
16244719155
16244725137
16244730325
16244735207
16244740273
16244746316
16244751687
16244759804
16244765359
16244770791
16244776040
16244782082
16244787942
16244792641
16244800393
16244805275
16244811013
16244817421
16244823525
16244829445
16244836037
16244843056
16244848000
16244851357
16244860451
16244868569
16244874184
16244880898
16244888344
16244897682
16244904518
16244910500
16244916909
16244922463
16244927895
16244933449
16244938515
16244943520
16244948708
16244953468
16244959206
16244965737
16244970741
16244975502
16244981606
16244986366
16244991432
16244997353
16245000710
16245006813
16245012489
16245018471
16245024452
16245029823
16245035011
16245040382
16245045448
16245049354
16245057167
16245062233
16245069435
16245074684
16245079994
16245085975
16245092323
16245097877
16245102760
16245108436
16245113075
16245119911
16245126320
16245132240
16245135170
16245142006
16245151039
16245156227
16245162941
16245168556
16245173622
16245179847
16245185157
16245189552
16245196754
16245201515
16245207008
16245212928
16245219032
16245224769
16245229041
16245235755
16245241676
16245247230
16245251441
16245264503
16245282996
16245291724
16245299964
16245307899
16245318458
16245326942
16245334815
16245344581
16245352088
16245357886
16245363990
16245369483
16245375159
16245380836
16245385779
16245391761
16245396644
16245401038
16245406470
16245411414
16245416236
16245422034
16245428931
16245434852
16245441382
16245446631
16245452857
16245458167
16245466468
16245472388
16245479468
16245485694
16245491126
16245497534
16245503882
16245509741
16245517676
16245522803
16245527564
16245533057
16245538184
16245542883
16245549536
16245555396
16245561926
16245571814
16245576880
16245586279
16245591345
16245598914
16245605444
16245612952
16245617529
16245624792
16245630957
16245639136
16245645056
16245651160
16245662207
16245669714
16245676611
16245682837
16245691260
16245696509
16245704809
16245712744
16245719214
16245727392
16245734961
16245742895
16245749060
16245756079
16245765051
16245773107
16245780615
16245789282
16245795690
16245802587
16245810705
16245819189
16245825170
16245832678
16245839330
16245847143
16245853185
16245860143
16245866552
16245873144
16245881567
16245889684
16245897131
16245903112
16245910192
16245919286
16245928625
16245936437
16245943090
16245949804
16245956151
16245963109
16245972082
16245979467
16245989171
16245997472
16246004796
16246012975
16246019567
16246026708
16246034337
16246043859
16246053746
16246060338
16246069188
16246075780
16246082372
16246089574
16246100499
16246111791
16246118749
16246127355
16246136510
16246145177
16246154576
16246165807
16246179356
16246187169
16246195958
16246205357
16246213109
16246220433
16246230015
16246237157
16246247227
16246254429
16246264683
16246272801
16246280675
16246288914
16246296422
16246303868
16246311741
16246319188
16246327183
16246334935
16246342015
16246349522
16246358982
16246366734
16246374180
16246380772
16246387669
16246394871
16246404637
16246412144
16246420445
16246427403
16246435459
16246443638
16246450596
16246458531
16246467686
16246475926
16246484837
16246491489
16246500767
16246507359
16246514317
16246521030
16246527866
16246539707
16246548008
16246554722
16246561680
16246570835
16246578342
16246585300
16246592380
16246600559
16246610813
16246618076
16246627964
16246634922
16246641819
16246649814
16246659946
16246667514
16246676303
16246683139
16246691257
16246697849
16246707370
16246714328
16246722202
16246729526
16246738864
16246745700
16246752780
16246760776
16246768344
16246777927
16246784763
16246791721
16246801791
16246808383
16246818149
16246823337
16246833163
16246839694
16246846591
16246856174
16246863620
16246874728
16246881198
16246888217
16246894748
16246899264
16246906711
16246913424
16246921298
16246926364
16246933627
16246940463
16246946688
16246954379
16246959262
16246964572
16246969088
16246974398
16246978915
16246985629
16246988314
16246996615
16247002352
16247007296
16247012423
16247017611
16247023348
16247028597
16247034518
16247039889
16247044711
16247049716
16247055148
16247060214
16247066256
16247071505
16247077670
16247083224
16247089571
16247094576
16247099032
16247105440
16247110384
16247115939
16247121249
16247126559
16247131869
16247138277
16247144808
16247149569
16247153597
16247159945
16247164461
16247171725
16247176424
16247181490
16247186373
16247192721
16247197481
16247202547
16247209261
16247214205
16247220797
16247225496
16247231356
16247235994
16247241426
16247246065
16247253878
16247257845
16247264131
16247268770
16247274935
16247281282
16247286043
16247290621
16247299044
16247306307
16247313387
16247318880
16247324922
16247331148
16247337068
16247343660
16247347749
16247354830
16247360628
16247366182
16247371980
16247378328
16247384004
16247391267
16247398225
16247404756
16247410371
16247417024
16247423982
16247429842
16247435396
16247441072
16247446931
16247452424
16247460054
16247466340
16247473237
16247479402
16247487459
16247496919
16247503816
16247509004
16247516145
16247521516
16247525666
16247533540
16247538728
16247544221
16247548738
16247553987
16247559541
16247564729
16247569856
16247575349
16247580232
16247585420
16247590058
16247595368
16247601594
16247605805
16247612641
16247618012
16247623506
16247629487
16247634797
16247640290
16247644746
16247651582
16247656770
16247661591
16247666413
16247672212
16247691193
16247697175
16247705415
16247711945
16247717255
16247724641
16247729890
16247735871
16247742097
16247749299
16247754914
16247760163
16247766144
16247770905
16247777985
16247782929
16247789032
16247795258
16247802704
16247809052
16247815461
16247821625
16247826081
16247832245
16247838105
16247844025
16247850495
16247856232
16247862641
16247867707
16247873444
16247879120
16247885102
16247890900
16247897309
16247902985
16247908661
16247916657
16247922516
16247926056
16247934296
16247940155
16247944489
16247949738
16247957184
16247961334
16247969635
16247976166
16247981720
16247988068
16247994415
16247999115
16248005402
16248010101
16248015472
16248022369
16248031036
16248037994
16248048004
16248059234
16248069427
16248078522
16248087555
16248097198
16248105682
16248116668
16248126312
16248136322
16248144683
16248153045
16248162384
16248173065
16248180694
16248190887
16248199554
16248209930
16248216888
16248225494
16248235626
16248245025
16248252776
16248257903
16248268096
16248275848
16248286773
16248295318
16248303008
16248309966
16248319793
16248327544
16248335174
16248342986
16248350616
16248358611
16248367156
16248375518
16248383941
16248390899
16248399444
16248407622
16248415862
16248424834
16248433074
16248440642
16248449065
16248456755
16248463958
16248475615
16248485808
16248490264
16248501189
16248511931
16248521147
16248531645
16248539885
16248548003
16248557890
16248566557
16248575468
16248582060
16248592009
16248598051
16248605864
16248613127
16248622587
16248627653
16248635710
16248643706
16248653227
16248659819
16248666716
16248673796
16248683134
16248689360
16248697538
16248704863
16248714811
16248721464
16248728971
16248736357
16248743986
16248749968
16248757536
16248766569
16248775846
16248782194
16248789579
16248798063
16248805998
16248813505
16248822416
16248829984
16248839933
16248847685
16248856901
16248865080
16248871305
16248880827
16248889555
16248898832
16248906827
16248921171
16248929594
16248934354
16248946500
16248954618
16248964445
16248972440
16248980680
16248988614
16248996305
16249004667
16249012113
16249020902
16249028348
16249036649
16249045377
16249054288
16249061612
16249069669
16249077420
16249084500
16249092313
16249099698
16249107694
16249115323
16249125943
16249132535
16249140836
16249148892
16249157010
16249164090
16249172269
16249181973
16249190335
16249198453
16249206448
16249213834
16249221402
16249228848
16249237637
16249241849
16249251492
16249258938
16249267239
16249275418
16249282742
16249293484
16249299771
16249308072
16249317715
16249325955
16249333035
16249341092
16249350247
16249358364
16249366238
16249374172
16249381863
16249391567
16249398464
16249405728
16249417385
16249422878
16249432400
16249439541
16249446987
16249457607
16249465237
16249471645
16249479641
16249488735
16249497402
16249504726
16249512661
16249520107
16249525234
16249531765
16249538723
16249544338
16249547756
16249554653
16249558254
16249563320
16249570705
16249577541
16249582729
16249586818
16249594265
16249598964
16249604397
16249609890
16249615078
16249621486
16249627224
16249633083
16249638332
16249643764
16249648708
16249654384
16249659633
16249667507
16249676967
16249682826
16249691127
16249698085
16249704006
16249709987
16249716152
16249719020
16249725856
16249730434
16249734401
16249738368
16249743617
16249748805
16249753139
16249757533
16249762477
16249768214
16249772182
16249775233
16249780605
16249786769
16249792323
16249795131
16249801356
16249805690
16249811549
16249815517
16249823390
16249829494
16249835536
16249840663
16249846156
16249851100
16249855800
16249861476
16249867396
16249872951
16249878261
16249884791
16249889369
16249894679
16249899623
16249903590
16249909755
16249915797
16249921779
16249926844
16249931910
16249937770
16249941371
16249946070
16249952174
16249958827
16249964808
16249969752
16249975856
16249981715
16249988124
16249992152
16249997523
16250003504
16250010279
16250017176
16250021327
16250025904
16250031031
16250037013
16250041834
16250046534
16250053797
16250059962
16250066920
16250070765
16250075709
16250080958
16250087000
16250092738
16250099451
16250104273
16250112086
16250116297
16250122767
16250126734
16250132227
16250138758
16250144373
16250150049
16250156458
16250162073
16250168665
16250173731
16250178003
16250185938
16250189722
16250196192
16250201014
16250208399
16250213953
16250220972
16250228846
16250235193
16250242090
16250251673
16250256922
16250264124
16250270471
16250279016
16250282373
16250287256
16250295313
16250299829
16250304834
16250310938
16250315515
16250320276
16250324854
16250329431
16250335169
16250339685
16250344629
16250348840
16250354883
16250360132
16250365076
16250369409
16250375940
16250381128
16250387415
16250392480
16250396387
16250401086
16250405542
16250411218
16250417016
16250422815
16250429223
16250434534
16250439538
16250444543
16250450769
16250455835
16250460962
16250468042
16250473718
16250478051
16250484704
16250490136
16250494653
16250498010
16250503198
16250510583
16250516076
16250522180
16250527612
16250532983
16250539575
16250546716
16250555871
16250562402
16250567773
16250572778
16250578149
16250584924
16250590783
16250596948
16250604577
16250608727
16250615319
16250618859
16250625390
16250631005
16250638635
16250649194
16250654504
16250663354
16250670739
16250679345
16250687157
16250693993
16250702538
16250710839
16250718102
16250726525
16250739098
16250744408
16250751427
16250760888
16250768944
16250776269
16250783898
16250792748
16250800133
16250807579
16250815087
16250823021
16250829491
16250841332
16250848961
16250859398
16250866967
16250875695
16250885155
16250894554
16250903832
16250913719
16250921288
16250928063
16250938500
16250947777
16250955833
16250962914
16250971825
16250979515
16250987205
16250995262
16251003319
16251010643
16251015648
16251024498
16251032921
16251041771
16251048912
16251054161
16251061973
16251070701
16251079551
16251086631
16251094078
16251103233
16251111045
16251117149
16251124656
16251132469
16251140403
16251146324
16251156272
16251165672
16251172935
16251180015
16251186729
16251194663
16251203452
16251211021
16251219993
16251227012
16251235923
16251242820
16251251365
16251257957
16251266319
16251272605
16251279868
16251287742
16251295615
16251303855
16251311729
16251318870
16251327231
16251335715
16251343467
16251349448
16251356833
16251366050
16251372886
16251381308
16251390403
16251399314
16251403952
16251414328
16251422446
16251433554
16251438987
16251450522
16251458457
16251466086
16251475119
16251483603
16251492148
16251499289
16251507712
16251516623
16251522788
16251532614
16251541098
16251545676
16251554343
16251562277
16251572531
16251579916
16251587546
16251595785
16251603781
16251612204
16251621115
16251629416
16251636923
16251645712
16251652792
16251661398
16251669821
16251675253
16251683615
16251693564
16251705038
16251712851
16251721273
16251728720
16251737448
16251747824
16251755758
16251763021
16251770895
16251777243
16251786581
16251793356
16251801168
16251809530
16251817770
16251824789
16251833212
16251840475
16251848776
16251856954
16251864584
16251870626
16251878744
16251885580
16251893087
16251900289
16251912008
16251917806
16251928426
16251935811
16251941305
16251951742
16251958272
16251966939
16251977620
16251985921
16251994039
16252002645
16252010335
16252016378
16252025533
16252033956
16252038472
16252047444
16252055135
16252066548
16252075215
16252082967
16252090779
16252099446
16252106832
16252113789
16252122029
16252128682
16252133748
16252139119
16252145284
16252151082
16252156697
16252161946
16252167622
16252173238
16252179524
16252185323
16252191365
16252196309
16252202168
16252207844
16252213216
16252218220
16252224751
16252230122
16252237752
16252241597
16252249837
16252253987
16252263203
16252268879
16252273884
16252280903
16252286335
16252289448
16252296589
16252302205
16252310017
16252316731
16252321797
16252329853
16252334980
16252340718
16252346455
16252349446
16252358906
16252364338
16252370503
16252377278
16252381916
16252389729
16252393879
16252399861
16252412617
16252418537
16252424702
16252431599
16252438435
16252445210
16252449970
16252457966
16252466694
16252472370
16252478229
16252483967
16252488911
16252495991
16252501728
16252507282
16252513203
16252518757
16252523762
16252530109
16252535724
16252541340
16252545124
16252552692
16252558429
16252563373
16252568256
16252573444
16252577717
16252583454
16252590168
16252595356
16252601215
16252608417
16252612384
16252617450
16252624225
16252631244
16252638263
16252644672
16252649433
16252656147
16252661640
16252666095
16252671344
16252677204
16252683429
16252689166
16252694965
16252699664
16252705402
16252712482
16252718463
16252721698
16252731830
16252737750
16252744525
16252749591
16252754962
16252761920
16252767963
16252774127
16252779681
16252786761
16252791949
16252795611
16252803180
16252809527
16252813922
16252820270
16252827106
16252832660
16252838458
16252844501
16252849200
16252855487
16252860736
16252867206
16252870623
16252879168
16252885028
16252891375
16252896380
16252901873
16252907428
16252913409
16252919268
16252927325
16252932635
16252939593
16252945513
16252949664
16252955645
16252959735
16252966693
16252973834
16252979266
16252985247
16252990557
16252996722
16253002764
16253006548
16253013751
16253020281
16253026385
16253032427
16253037554
16253043597
16253050677
16253055804
16253060931
16253068316
16253074236
16253078875
16253082903
16253087420
16253093279
16253097796
16253103899
16253109576
16253114458
16253119219
16253124712
16253129351
16253134417
16253140032
16253145159
16253152178
16253157793
16253162859
16253167315
16253172442
16253179094
16253183611
16253190630
16253196856
16253202593
16253206499
16253213518
16253218340
16253223223
16253228289
16253233599
16253241533
16253246965
16253253191
16253257768
16253261980
16253268694
16253272722
16253277971
16253283830
16253290666
16253294634
16253300920
16253305193
16253312151
16253316911
16253322344
16253327287
16253334489
16253340532
16253345781
16253350114
16253356523
16253361650
16253367082
16253372575
16253378618
16253384538
16253388750
16253394182
16253400285
16253405229
16253410051
16253417009
16253424089
16253430070
16253435258
16253440935
16253445878
16253450883
16253457353
16253462663
16253469194
16253474504
16253479265
16253484941
16253490983
16253495134
16253502336
16253506547
16253511979
16253518022
16253523698
16253529313
16253535661
16253539018
16253544328
16253551591
16253556962
16253565446
16253573075
16253577897
16253584245
16253591996
16253598893
16253605180
16253609208
16253616959
16253622819
16253629960
16253635453
16253641496
16253647050
16253653336
16253658219
16253663407
16253668290
16253672929
16253678849
16253683976
16253690018
16253696305
16253701737
16253706376
16253711869
16253716813
16253722245
16253726822
16253732438
16253737626
16253743790
16253748917
16253754838
16253760087
16253765641
16253769120
16253776810
16253783768
16253788895
16253794632
16253801407
16253807694
16253814041
16253819718
16253824417
16253830338
16253835831
16253841751
16253848526
16253853653
16253860245
16253866287
16253871231
16253877518
16253882462
16253887955
16253891983
16253900284
16253906204
16253912857
16253918717
16253923172
16253930374
16253935379
16253941849
16253946915
16253954300
16253959854
16253966202
16253971817
16253978043
16253984207
16253988296
16253995132
16254002090
16254008011
16254011856
16254017349
16254024917
16254028702
16254035110
16254041092
16254047134
16254053787
16254059280
16254065078
16254070694
16254076431
16254081375
16254087967
16254093704
16254100540
16254106704
16254110488
16254117019
16254123062
16254129592
16254134719
16254138931
16254145706
16254152114
16254156997
16254163040
16254169998
16254177505
16254182998
16254190383
16254197830
16254208022
16254214187
16254220596
16254226089
16254234328
16254240920
16254247329
16254253493
16254260146
16254265517
16254272048
16254278396
16254284255
16254290359
16254295974
16254298965
16254305617
16254310866
16254317763
16254322890
16254329055
16254334975
16254340102
16254345839
16254352981
16254357924
16254362624
16254370192
16254375258
16254381484
16254386855
16254393569
16254399672
16254405776
16254410659
16254416701
16254424025
16254429518
16254435500
16254441359
16254447341
16254452712
16254458815
16254465346
16254472121
16254477553
16254483595
16254489699
16254496657
16254502394
16254506789
16254514357
16254520522
16254526198
16254530837
16254538344
16254544691
16254549208
16254555800
16254562147
16254567763
16254573866
16254581129
16254584975
16254592726
16254598219
16254604506
16254610365
16254615980
16254620924
16254629225
16254634535
16254640700
16254645765
16254652418
16254659193
16254663832
16254669508
16254675428
16254681593
16254687941
16254693556
16254701002
16254706678
16254712721
16254719435
16254725294
16254731459
16254737135
16254744093
16254749098
16254755751
16254763380
16254768995
16254776014
16254783582
16254792433
16254797559
16254807203
16254814649
16254821607
16254830579
16254842908
16254853834
16254863782
16254872144
16254880811
16254890882
16254897718
16254907667
16254915845
16254925306
16254932020
16254945936
16254954236
16254959363
16254968030
16254971998
16254981519
16254988660
16254996778
16255007703
16255016309
16255025403
16255032544
16255037488
16255044568
16255050366
16255055860
16255063428
16255068494
16255073926
16255078809
16255085217
16255089856
16255096021
16255101148
16255108777
16255114392
16255119885
16255125439
16255129346
16255136975
16255140576
16255150098
16255156811
16255164807
16255171338
16255177624
16255183667
16255188489
16255196362
16255206799
16255215344
16255224927
16255232556
16255240368
16255250073
16255258130
16255266125
16255277600
16255287426
16255294262
16255302075
16255309155
16255316601
16255324169
16255333203
16255341625
16255350842
16255357434
16255364575
16255373303
16255381725
16255390270
16255397472
16255406078
16255414074
16255421764
16255430126
16255439587
16255449047
16255457043
16255464733
16255472790
16255480419
16255488293
16255494640
16255504223
16255511547
16255518322
16255525585
16255532482
16255540905
16255547680
16255556835
16255565319
16255573192
16255581615
16255589672
16255597057
16255604747
16255613231
16255621349
16255629283
16255637401
16255646800
16255654552
16255664623
16255672496
16255679515
16255690746
16255698985
16255708263
16255715282
16255724864
16255734019
16255742320
16255750804
16255758861
16255768077
16255774547
16255784251
16255791942
16255803111
16255811961
16255822398
16255829112
16255836619
16255843516
16255851024
16255859507
16255868724
16255875743
16255882945
16255892649
16255899913
16255907664
16255914378
16255922435
16255932078
16255940074
16255946849
16255953501
16255960459
16255968821
16255976389
16255984629
16255992808
16256001109
16256011973
16256019602
16256027049
16256033396
16256041148
16256050120
16256057444
16256065806
16256073374
16256081126
16256088633
16256095713
16256103098
16256111826
16256118784
16256126475
16256133921
16256145212
16256153330
16256160471
16256168833
16256178049
16256186472
16256194651
16256201731
16256209238
16256216867
16256224558
16256235422
16256242319
16256250315
16256260019
16256266611
16256275644
16256285104
16256291757
16256301401
16256308542
16256316293
16256325998
16256333566
16256340524
16256348276
16256356210
16256365549
16256372385
16256382211
16256392221
16256399118
16256407907
16256413888
16256426401
16256436960
16256445749
16256454416
16256461984
16256470651
16256477609
16256486032
16256492868
16256501046
16256510690
16256517221
16256526681
16256534066
16256536874
16256545236
16256548837
16256553292
16256558175
16256562631
16256566781
16256571298
16256576241
16256580941
16256585336
16256589913
16256594979
16256599923
16256604623
16256609750
16256614144
16256620614
16256624459
16256628609
16256635140
16256639535
16256645089
16256651376
16256656808
16256660287
16256666390
16256670663
16256674752
16256679024
16256683663
16256689156
16256694893
16256699654
16256703621
16256708199
16256712411
16256717232
16256721444
16256726510
16256731148
16256736641
16256741463
16256746834
16256752144
16256757515
16256762032
16256767098
16256772835
16256779122
16256784066
16256789620
16256794991
16256799202
16256803719
16256810128
16256815132
16256820076
16256824776
16256831185
16256836251
16256841622
16256846077
16256850289
16256857674
16256862435
16256866707
16256871163
16256876900
16256881233
16256886604
16256894478
16256899483
16256904121
16256908943
16256914497
16256923347
16256931465
16256939949
16256947334
16256953987
16256958992
16256965034
16256972420
16256976997
16256982307
16256987129
16256991402
16256994881
16257000068
16257003975
16257009346
16257015754
16257020759
16257026619
16257031746
16257036934
16257039497
16257051704
16257060249
16257068245
16257074958
16257082588
16257090400
16257096870
16257104560
16257111030
16257118904
16257125007
16257132575
16257142402
16257150276
16257154670
16257159248
16257164985
16257169685
16257173591
16257179450
16257183418
16257187751
16257191657
16257196906
16257202888
16257207832
16257212775
16257216743
16257221076
16257224982
16257230231
16257235725
16257242011
16257247932
16257252814
16257257209
16257263068
16257267036
16257273017
16257277778
16257282600
16257286994
16257292609
16257297065
16257301398
16257306342
16257312812
16257317878
16257322211
16257327887
16257331489
16257336249
16257341987
16257347663
16257353278
16257358710
16257364447
16257369757
16257375251
16257379645
16257385993
16257391181
16257396613
16257401374
16257405585
16257411078
16257415290
16257420050
16257427436
16257434516
16257441474
16257448859
16257453498
16257459662
16257465888
16257473517
16257478827
16257483771
16257488410
16257494513
16257497443
16257502997
16257507636
16257512091
16257519965
16257526068
16257529913
16257535284
16257538885
16257545416
16257549506
16257554510
16257560431
16257564581
16257568243
16257573065
16257579718
16257585028
16257589545
16257595099
16257600348
16257605292
16257609381
16257615240
16257623175
16257628302
16257632696
16257637579
16257643011
16257647467
16257651861
16257657354
16257663153
16257668768
16257674322
16257679022
16257685186
16257689825
16257694647
16257700567
16257707891
16257713201
16257719488
16257724493
16257729681
16257732794
16257739813
16257745794
16257752874
16257756292
16257762762
16257768987
16257773565
16257779363
16257783880
16257788641
16257793523
16257800848
16257806768
16257810064
16257817266
16257822820
16257826849
16257833868
16257838995
16257847417
16257852483
16257859319
16257864751
16257868963
16257875799
16257881597
16257886846
16257893255
16257898809
16257903692
16257909185
16257914617
16257920049
16257925054
16257930730
16257937017
16257943914
16257950811
16257956609
16257961736
16257967412
16257975164
16257982915
16257992314
16257998662
16258005864
16258011724
16258018437
16258024541
16258030950
16258036931
16258044133
16258048284
16258055119
16258059636
16258065190
16258071599
16258075993
16258081609
16258088445
16258118474
16258123418
16258127751
16258131840
16258136235
16258140324
16258144047
16258146672
16258150151
16258153813
16258157719
16258161626
16258164677
16258167485
16258171452
16258175053
16258179204
16258183598
16258187199
16258191411
16258194951
16258198735
16258202519
16258206364
16258211125
16258215825
16258219182
16258222600
16258227421
16258232182
16258238469
16258243229
16258248295
16258253605
16258258793
16258263310
16258269291
16258276188
16258280888
16258285893
16258290470
16258295048
16258299809
16258305180
16258309635
16258313847
16258319462
16258324284
16258330326
16258334782
16258339482
16258343937
16258347782
16258352238
16258357426
16258360905
16258365421
16258370731
16258375736
16258381413
16258385990
16258390629
16258395451
16258400456
16258404911
16258410709
16258414860
16258419071
16258423161
16258427555
16258434452
16258439701
16258444523
16258450504
16258455204
16258460819
16258465641
16258471989
16258475468
16258482181
16258487247
16258493412
16258499088
16258504886
16258508549
16258513859
16258518680
16258523075
16258528690
16258534549
16258540836
16258545597
16258551212
16258555912
16258561283
16258566654
16258573490
16258579593
16258584964
16258590580
16258596195
16258601688
16258607975
16258613895
16258619632
16258624149
16258630863
16258637699
16258642642
16258648319
16258653995
16258660892
16258666263
16258673831
16258678897
16258684207
16258691104
16258696536
16258701724
16258705508
16258713199
16258719730
16258727176
16258735538
16258741641
16258749332
16258757449
16258764102
16258768130
16258773379
16258778689
16258784671
16258789248
16258794192
16258798404
16258803042
16258807925
16258813418
16258818606
16258824588
16258829837
16258835025
16258841372
16258847537
16258853335
16258857974
16258864016
16258869693
16258876101
16258881472
16258887210
16258892703
16258898074
16258903872
16258910037
16258914309
16258919619
16258925357
16258932131
16258938418
16258943972
16258947451
16258955813
16258961428
16258966006
16258972964
16258979861
16258983340
16258990725
16258997012
16259002871
16259007815
16259013552
16259019778
16259026247
16259033083
16259038576
16259042910
16259050722
16259054507
16259062014
16259066836
16259073794
16259079470
16259083864
16259089052
16259094301
16259099795
16259104983
16259111330
16259117251
16259123964
16259131350
16259136843
16259141542
16259147524
16259152773
16259158754
16259165651
16259170839
16259177248
16259183657
16259187868
16259193605
16259199526
16259205873
16259212221
16259217470
16259222597
16259229006
16259235414
16259242861
16259248110
16259254274
16259259645
16259264772
16259271547
16259277773
16259282289
16259289186
16259295717
16259301088
16259308351
16259313905
16259320375
16259326295
16259333742
16259340333
16259348756
16259354921
16259362123
16259367921
16259374269
16259379579
16259385377
16259390443
16259396303
16259400819
16259405702
16259411867
16259416322
16259421510
16259428224
16259432008
16259438051
16259444825
16259449464
16259454469
16259460145
16259466371
16259471254
16259476686
16259481324
16259487428
16259494569
16259500550
16259505860
16259511903
16259517213
16259524659
16259530152
16259540589
16259546021
16259551454
16259556519
16259563783
16259570252
16259575684
16259578858
16259585694
16259591431
16259597352
16259602784
16259608277
16259615479
16259619996
16259625672
16259631531
16259639832
16259644532
16259649903
16259656373
16259662110
16259667664
16259671754
16259678650
16259686829
16259693787
16259700257
16259706666
16259710084
16259717713
16259723633
16259728638
16259735108
16259742371
16259748658
16259755188
16259761597
16259765747
16259772095
16259778504
16259785157
16259790894
16259796448
16259801636
16259807923
16259813477
16259819092
16259825073
16259830628
16259836487
16259841492
16259847840
16259854004
16259858948
16259866089
16259871338
16259879883
16259883789
16259891052
16259896362
16259903931
16259909790
16259916626
16259922790
16259929748
16259936218
16259944641
16259951355
16259957703
16259963867
16259969604
16259975769
16259983825
16259988891
16259993469
16259997619
16260002441
16260008850
16260013916
16260019897
16260026550
16260031982
16260037841
16260045105
16260050110
16260055420
16260060485
16260067810
16260073730
16260078857
16260084594
16260090026
16260094909
16260100158
16260107421
16260112915
16260117980
16260125366
16260130493
16260135864
16260141845
16260146911
16260152526
16260157470
16260164245
16260170226
16260175109
16260180602
16260186523
16260192077
16260197631
16260203063
16260211547
16260217284
16260223022
16260228881
16260234069
16260240234
16260246703
16260250671
16260256774
16260263244
16260268981
16260275085
16260281005
16260286437
16260291747
16260297179
16260302550
16260311217
16260316283
16260321105
16260327880
16260334166
16260338866
16260344054
16260349425
16260358397
16260363646
16260369445
16260376525
16260381957
16260387023
16260391600
16260397704
16260404051
16260409972
16260416320
16260421874
16260427367
16260432006
16260438292
16260444029
16260451903
16260458006
16260464232
16260469359
16260474669
16260480345
16260484984
16260490111
16260495970
16260501585
16260511412
16260518004
16260524596
16260533018
16260537352
16260545286
16260552244
16260558592
16260565184
16260571165
16260576658
16260581846
16260589171
16260595152
16260602415
16260608946
16260613951
16260621397
16260626707
16260630674
16260637571
16260643187
16260649778
16260655455
16260662474
