16192514638
16192520863
16192525441
16192530507
16192535756
16192540028
16192544850
16192550343
16192556325
16192562367
16192567555
16192572377
16192578358
16192583546
16192588673
16192593312
16192599232
16192605275
16192611073
16192616566
16192623524
16192630238
16192637623
16192643544
16192649342
16192656117
16192663136
16192668690
16192678029
16192685841
16192692433
16192700795
16192709278
16192720875
16192728260
16192735279
16192742054
16192749684
16192756947
16192765431
16192773121
16192779896
16192786305
16192796375
16192803455
16192809437
16192818653
16192823841
16192829395
16192835743
16192842640
16192847157
16192854115
16192861134
16192865833
16192872059
16192878284
16192884083
16192889271
16192896717
16192901295
16192907642
16192912586
16192919483
16192925831
16192931629
16192937427
16192941944
16192949390
16192954273
16192960621
16192967029
16192972583
16192978931
16192985096
16192992481
16192996936
16193004139
16193009754
16193016895
16193023731
16193031055
16193037952
16193045215
16193051624
16193057422
16193065174
16193071948
16193078357
16193083362
16193091113
16193097888
16193103076
16193111804
16193118823
16193125903
16193132190
16193139331
16193145923
16193151721
16193158679
16193165271
16193172229
16193179126
16193186633
16193192493
16193199267
16193206836
16193215198
16193224231
16193231372
16193240039
16193246386
16193252734
16193260363
16193266833
16193274035
16193282519
16193288195
16193295153
16193302722
16193307605
16193317553
16193324694
16193332446
16193338610
16193345202
16193351672
16193357531
16193365710
16193372485
16193378344
16193385180
16193391162
16193397692
16193404467
16193410937
16193416735
16193423083
16193431261
16193437487
16193444811
16193449145
16193456225
16193463854
16193469469
16193477038
16193483202
16193489367
16193494433
16193500109
16193508471
16193515185
16193520983
16193528551
16193532885
16193539782
16193547777
16193553209
16193561815
16193567003
16193573290
16193581102
16193587328
16193592516
16193600023
16193607286
16193614672
16193622118
16193628649
16193635485
16193641649
16193649095
16193656298
16193663011
16193671984
16193678636
16193687059
16193692003
16193701097
16193710008
16193716844
16193725816
16193731981
16193739977
16193747301
16193756639
16193763231
16193772020
16193779832
16193787279
16193794786
16193801561
16193809312
16193815904
16193824937
16193830858
16193839708
16193845628
16193855211
16193862779
16193869920
16193877549
16193884996
16193892625
16193899705
16193908128
16193915635
16193922044
16193931443
16193937974
16193946824
16193953599
16193960374
16193966416
16193977769
16193985398
16193989915
16194000108
16194007554
16194015427
16194020371
16194025681
16194030320
16194036790
16194043443
16194046677
16194053696
16194057908
16194064317
16194070298
16194076646
16194082200
16194089280
16194092087
16194098984
16194104478
16194108811
16194114304
16194120347
16194126328
16194132310
16194138230
16194143113
16194149704
16194156113
16194161850
16194168015
16194173630
16194180161
16194187180
16194191574
16194198288
16194202866
16194209580
16194214829
16194221176
16194227280
16194233017
16194239487
16194245468
16194251938
16194257004
16194263474
16194266281
16194276779
16194281723
16194287216
16194293381
16194298813
16194305466
16194310776
16194315720
16194322128
16194326096
16194332443
16194337021
16194342819
16194348068
16194354965
16194359848
16194367111
16194373764
16194378891
16194383041
16194391159
16194396835
16194402695
16194407638
16194414596
16194418503
16194426193
16194432358
16194437668
16194442489
16194447250
16194453048
16194459579
16194465988
16194471725
16194479538
16194486618
16194495163
16194503707
16194509933
16194518417
16194526840
16194531784
16194537582
16194543869
16194548568
16194554977
16194561202
16194566329
16194572006
16194577743
16194580551
16194587081
16194592086
16194599716
16194604232
16194612350
16194617172
16194622787
16194626998
16194632186
16194637984
16194643966
16194652206
16194658492
16194664718
16194671004
16194676681
16194681563
16194688338
16194694015
16194699996
16194705489
16194710677
16194716292
16194723006
16194728621
16194734847
16194740889
16194747909
16194754378
16194760299
16194763717
16194771895
16194776778
16194783431
16194787764
16194794051
16194801192
16194806990
16194812606
16194817244
16194823043
16194829207
16194834578
16194840987
16194846968
16194852523
16194858138
16194863631
16194870162
16194875472
16194881636
16194886824
16194894209
16194899397
16194904707
16194910567
16194915938
16194920943
16194925887
16194932417
16194937972
16194945479
16194950117
16194957014
16194962386
16194967390
16194973250
16194978743
16194982893
16194990523
16194995222
16195000715
16195006148
16195011519
16195017317
16195023237
16195027998
16195033919
16195040144
16195046126
16195050947
16195058271
16195063582
16195069319
16195075117
16195080366
16195088728
16195092695
16195101301
16195107161
16195113569
16195118696
16195125593
16195132063
16195141035
16195146711
16195152571
16195158918
16195164472
16195169599
16195174665
16195179121
16195185346
16195191023
16195196699
16195203840
16195209028
16195217390
16195224714
16195230817
16195240217
16195246015
16195254987
16195258649
16195267194
16195275373
16195282636
16195288068
16195297346
16195302961
16195311201
16195318769
16195324628
16195333906
16195339643
16195348737
16195354413
16195364362
16195371198
16195379743
16195385175
16195393048
16195400678
16195408063
16195415631
16195424237
16195432294
16195439740
16195446088
16195454083
16195459821
16195468610
16195474713
16195483808
16195493024
16195498151
16195507001
16195512616
16195522443
16195529401
16195536664
16195545148
16195554974
16195562115
16195569562
16195577374
16195584210
16195590985
16195599042
16195606183
16195614606
16195622296
16195629742
16195635785
16195645550
16195651776
16195659771
16195667462
16195673809
16195683209
16195689312
16195699993
16195712689
16195721661
16195734906
16195746441
16195759136
16195769695
16195781719
16195792217
16195803692
16195817242
16195827496
16195837383
16195846844
16195854656
16195864788
16195872539
16195882976
16195895672
16195906475
16195917034
16195928203
16195937114
16195947979
16195958477
16195969341
16195977703
16195989605
16195999065
16196008159
16196018291
16196027629
16196037090
16196047832
16196058391
16196067790
16196078960
16196088786
16196096965
16196107524
16196116863
16196126506
16196134990
16196146403
16196154826
16196166423
16196174358
16196186015
16196197490
16196207500
16196215434
16196226481
16196237895
16196250041
16196264384
16196277018
16196287394
16196297465
16196307963
16196320109
16196329692
16196338542
16196350749
16196360575
16196369425
16196379923
16196388712
16196399027
16196407999
16196417521
16196429240
16196437968
16196447062
16196456583
16196468058
16196476603
16196485514
16196494913
16196506510
16196515726
16196524637
16196534403
16196543924
16196556070
16196565348
16196576029
16196585550
16196595499
16196607157
16196613993
16196624369
16196634928
16196645059
16196655924
16196666055
16196676248
16196686990
16196699381
16196707132
16196715982
16196725381
16196734781
16196744730
16196755044
16196764810
16196773843
16196783975
16196793008
16196803384
16196811746
16196822732
16196831949
16196842325
16196851358
16196865762
16196875344
16196883950
16196894204
16196901101
16196909890
16196917947
16196926797
16196934548
16196940408
16196951577
16196958535
16196966042
16196972817
16196982400
16196990884
16197000222
16197006020
16197014626
16197021584
16197030190
16197036843
16197046181
16197055764
16197064126
16197071633
16197079751
16197087441
16197095742
16197103737
16197111428
16197119729
16197126687
16197136086
16197143044
16197150429
16197159401
16197166298
16197175576
16197182167
16197188332
16197197243
16197204140
16197212075
16197216103
16197220375
16197225930
16197232033
16197235634
16197240761
16197245583
16197250221
16197253823
16197259010
16197264443
16197269264
16197273537
16197276955
16197281899
16197285195
16197291237
16197294716
16197299721
16197304237
16197309059
16197314430
16197319130
16197324684
16197329384
16197334755
16197341164
16197344948
16197349464
16197354408
16197358864
16197363624
16197368690
16197373268
16197380775
16197385780
16197389625
16197394569
16197399147
16197404457
16197409706
16197414894
16197420387
16197426796
16197431556
16197435890
16197442421
16197447242
16197452491
16197457191
16197464149
16197468483
16197473915
16197479286
16197483741
16197489723
16197494606
16197499610
16197505836
16197510475
16197515052
16197520118
16197525306
16197527381
16197534522
16197538612
16197543678
16197548072
16197553504
16197557411
16197561683
16197565528
16197570899
16197575660
16197581153
16197584388
16197590736
16197595313
16197599098
16197603309
16197608192
16197612952
16197616798
16197621009
16197625953
16197630531
16197636146
16197639442
16197644813
16197648780
16197654517
16197658546
16197664222
16197669654
16197674232
16197678504
16197683082
16197689551
16197694861
16197699683
16197703528
16197709693
16197713355
16197718787
16197722815
16197730445
16197736365
16197741370
16197744117
16197751868
16197755835
16197761390
16197766700
16197771521
16197778113
16197782019
16197787818
16197793738
16197798133
16197803199
16197808997
16197814490
16197820838
16197824988
16197831031
16197835913
16197841773
16197845557
16197851355
16197855078
16197862586
16197868079
16197873694
16197878821
16197884436
16197889502
16197894995
16197900244
16197907019
16197914160
16197918921
16197925574
16197931311
16197935278
16197941321
16197947790
16197955115
16197961279
16197967322
16197972754
16197977820
16197984900
16197990027
16197997351
16198005224
16198012610
16198021216
16198028784
16198036169
16198043371
16198049231
16198056311
16198062597
16198071508
16198078894
16198086340
16198092993
16198100073
16198104040
16198114721
16198120825
16198130346
16198136267
16198145178
16198151464
16198159094
16198165258
16198173376
16198181066
16198188635
16198195837
16198202795
16198211523
16198218969
16198226720
16198234289
16198241003
16198247411
16198258153
16198265783
16198273717
16198280309
16198286046
16198296117
16198302892
16198310216
16198318029
16198325292
16198334020
16198341588
16198347142
16198355321
16198364110
16198370458
16198376134
16198384557
16198390355
16198399388
16198405675
16198414403
16198420446
16198426305
16198434789
16198441136
16198450292
16198455541
16198465428
16198471105
16198479222
16198485814
16198494176
16198501073
16198510228
16198517796
16198524449
16198531102
16198540929
16198547093
16198556737
16198568455
16198579137
16198585179
16198595250
16198601842
16198612462
16198621983
16198629979
16198634312
16198645421
16198654759
16198663365
16198671238
16198679539
16198685948
16198694981
16198701390
16198711216
16198717686
16198728001
16198734837
16198742710
16198752476
16198758640
16198768467
16198775059
16198785984
16198794407
16198802341
16198811558
16198819065
16198827549
16198834995
16198843723
16198851414
16198859287
16198868442
16198876072
16198883030
16198888584
16198897983
16198904758
16198916050
16198923130
16198930088
16198936313
16198945957
16198953525
16198960483
16198967685
16198976841
16198985813
16198992832
16198996799
16199008701
16199012607
16199022251
16199030734
16199039340
16199046420
16199055942
16199062534
16199070834
16199077976
16199085605
16199092929
16199103610
16199109531
16199119296
16199126315
16199133884
16199142001
16199149509
16199156833
16199165256
16199174289
16199181369
16199185397
16199197177
16199203769
16199211459
16199218600
16199227939
16199236361
16199244113
16199251742
16199259616
16199268283
16199275912
16199282321
16199291171
16199299777
16199307467
16199313571
16199321688
16199330599
16199336337
16199344576
16199355807
16199362277
16199370638
16199376803
16199384432
16199393282
16199399325
16199408358
16199419222
16199426241
16199431856
16199436983
16199442110
16199447909
16199453097
16199457735
16199463473
16199470186
16199474825
16199479830
16199485872
16199490145
16199496370
16199501253
16199507479
16199513765
16199519259
16199526766
16199532137
16199538729
16199545687
16199551973
16199558382
16199565279
16199572420
16199578035
16199583956
16199589998
16199594820
16199601656
16199607759
16199613802
16199619051
16199624483
16199629671
16199635713
16199641756
16199647737
16199653658
16199658785
16199666109
16199670809
16199678499
16199683931
16199690035
16199696138
16199702425
16199708955
16199714998
16199721162
16199727022
16199730073
16199739900
16199746797
16199751680
16199756990
16199764070
16199770967
16199775606
16199783235
16199788240
16199795930
16199800996
16199805940
16199813081
16199819185
16199823945
16199831086
16199837739
16199844453
16199850129
16199854524
16199860444
16199866182
16199870637
16199877168
16199881868
16199888703
16199895661
16199900361
16199906831
16199912873
16199918366
16199922761
16199928620
16199935945
16199943513
16199947846
16199954316
16199958772
16199963593
16199970857
16199977448
16199985017
16199991731
16199996552
16200002045
16200009431
16200013642
16200021394
16200027131
16200035981
16200041901
16200049042
16200058869
16200065339
16200074311
16200079682
16200084992
16200089875
16200096528
16200102875
16200109162
16200114350
16200120820
16200126557
16200134247
16200139252
16200147309
16200153595
16200159516
16200166108
16200173981
16200179108
16200185578
16200191315
16200195710
16200201874
16200208466
16200213959
16200219452
16200223664
16200228424
16200235626
16200240326
16200246308
16200251068
16200257233
16200262299
16200269379
16200274933
16200280731
16200285431
16200292267
16200297028
16200302704
16200307465
16200314362
16200319794
16200324738
16200329681
16200335236
16200340057
16200345001
16200351349
16200356476
16200362396
16200368011
16200374115
16200379913
16200386261
16200392486
16200396576
16200405609
16200410187
16200418121
16200422577
16200429290
16200435455
16200441742
16200445221
16200453521
16200460723
16200465301
16200470062
16200477325
16200482757
16200487945
16200495086
16200500274
16200506439
16200511688
16200519683
16200523773
16200529815
16200535858
16200541717
16200544830
16200555206
16200558868
16200566192
16200571868
16200576080
16200582427
16200587188
16200593536
16200598968
16200606170
16200612518
16200621551
16200628631
16200635345
16200643645
16200650848
16200656035
16200666839
16200673797
16200681243
16200689544
16200697173
16200701751
16200712554
16200719146
16200729461
16200738799
16200744658
16200754973
16200761077
16200770537
16200775603
16200785613
16200791228
16200802092
16200807768
16200817595
16200824431
16200831755
16200837920
16200844878
16200852629
16200860747
16200866972
16200873808
16200881499
16200888884
16200895415
16200902922
16200909392
16200920805
16200929228
16200937529
16200943510
16200951140
16200959379
16200964323
16200973662
16200981108
16200990446
16200999113
16201005644
16201014616
16201023039
16201028471
16201037199
16201043608
16201053801
16201062468
16201070158
16201075163
16201084867
16201090666
16201098600
16201106718
16201115568
16201124906
16201131742
16201138212
16201145719
16201153532
16201160978
16201165067
16201177946
16201182401
16201192289
16201198637
16201207609
16201213590
16201220975
16201230619
16201235868
16201245023
16201252042
16201260953
16201267179
16201276212
16201281827
16201291532
16201297819
16201306363
16201313260
16201322782
16201329190
16201336576
16201343778
16201351590
16201357633
16201367093
16201373319
16201382840
16201391019
16201396146
16201405484
16201411405
16201420194
16201428617
16201436856
16201445401
16201452298
16201459989
16201467313
16201474210
16201481778
16201489468
16201498685
16201506741
16201514798
16201518643
16201529141
16201535062
16201544461
16201551053
16201558255
16201567654
16201577176
16201583767
16201590909
16201600430
16201606839
16201614041
16201623318
16201631680
16201638272
16201646145
16201654446
16201661831
16201669339
16201677212
16201681301
16201692288
16201698818
16201707607
16201713772
16201723416
16201731655
16201737942
16201744839
16201752895
16201762783
16201769253
16201776028
16201782986
16201792751
16201799709
16201807217
16201815212
16201823635
16201828091
16201837978
16201844082
16201853420
16201861904
16201867824
16201876308
16201884914
16201894191
16201899135
16201907863
16201914211
16201922817
16201930446
16201937832
16201944118
16201954799
16201960048
16201967617
16201975673
16201983669
16201990566
16201998073
16202004787
16202016323
16202023586
16202031703
16202037868
16202044887
16202049587
16202054653
16202058498
16202064540
16202069972
16202076320
16202080592
16202086024
16202090785
16202096217
16202113734
16202121425
16202126735
16202133205
16202141749
16202145717
16202157741
16202163356
16202172328
16202176967
16202185023
16202189723
16202196071
16202200892
16202205775
16202210109
16202216151
16202220973
16202227504
16202232814
16202238246
16202244838
16202252833
16202257716
16202263209
16202271754
16202277796
16202283717
16202292079
16202297022
16202304896
16202312708
16202318629
16202325587
16202332362
16202336695
16202342677
16202347376
16202353480
16202359705
16202364039
16202370509
16202375025
16202379786
16202384608
16202391322
16202395960
16202401820
16202405360
16202411219
16202415919
16202421290
16202425562
16202431544
16202436365
16202441920
16202446985
16202452051
16202456019
16202461634
16202467493
16202474024
16202479090
16202483179
16202489527
16202493677
16202498987
16202503016
16202510706
16202516504
16202522059
16202526514
16202532740
16202537317
16202544641
16202549158
16202554895
16202562159
16202567530
16202574121
16202578821
16202586389
16202592066
16202597681
16202603784
16202609522
16202616358
16202621729
16202626734
16202631799
16202637232
16202643091
16202648279
16202654932
16202660303
16202666467
16202670801
16202677332
16202681787
16202687891
16202692896
16202698633
16202705469
16202711267
16202716943
16202722009
16202727991
16202732324
16202738000
16202744226
16202751123
16202756677
16202761438
16202766015
16202772546
16202777063
16202782678
16202789209
16202794458
16202801599
16202805749
16202812890
16202817895
16202822961
16202827905
16202833886
16202843286
16202851831
16202856958
16202862329
16202870751
16202876550
16202882653
16202888085
16202898767
16202903527
16202909753
16202914453
16202918603
16202923852
16202930383
16202936913
16202940759
16202946923
16202952233
16202956811
16202961999
16202968346
16202973046
16202979455
16202984338
16202988976
16202995080
16202999779
16203005517
16203010033
16203016076
16203020959
16203026025
16203032067
16203038048
16203042199
16203047570
16203053795
16203059960
16203065514
16203071190
16203077111
16203082360
16203086815
16203092003
16203097497
16203103356
16203109337
16203114525
16203119530
16203124657
16203128991
16203135216
16203141076
16203148400
16203154747
16203159142
16203165123
16203172081
16203178185
16203188561
16203193077
16203206383
16203214195
16203219872
16203228295
16203236107
16203243065
16203251915
16203259972
16203267967
16203274315
16203282799
16203288902
16203298241
16203304161
16203313744
16203319847
16203327782
16203337242
16203346153
16203352012
16203360496
16203368431
16203374962
16203381859
16203389854
16203399009
16203407554
16203415794
16203423607
16203431663
16203437400
16203446067
16203453270
16203462669
16203468833
16203477745
16203484947
16203492210
16203501792
16203511863
16203522239
16203528770
16203536399
16203546104
16203552024
16203561790
16203570213
16203576194
16203584190
16203590659
16203599387
16203605796
16203612937
16203619956
16203627341
16203635825
16203643882
16203650352
16203657554
16203666587
16203674643
16203680686
16203687461
16203697043
16203702598
16203711997
16203719870
16203727012
16203735007
16203744834
16203750998
16203758628
16203767661
16203775534
16203784201
16203791526
16203799277
16203806784
16203813742
16203823508
16203829062
16203840476
16203848105
16203855734
16203863425
16203871603
16203878806
16203887228
16203895529
16203904745
16203911337
16203921164
16203927450
16203936789
16203943503
16203950888
16203960470
16203966635
16203977499
16203982748
16203993063
16204000082
16204008505
16204017233
16204023459
16204033102
16204042318
16204049398
16204059164
16204065573
16204075765
16204082296
16204089559
16204101034
16204108480
16204118673
16204125448
16204132955
16204140707
16204149557
16204158102
16204166341
16204173971
16204180624
16204190267
16204196188
16204205282
16204213766
16204220663
16204227376
16204237020
16204245016
16204253072
16204260518
16204269307
16204277852
16204286214
16204294088
16204300679
16204309957
16204318929
16204326070
16204333638
16204344442
16204351705
16204359517
16204367818
16204376302
16204383504
16204393453
16204400716
16204409505
16204418355
16204427083
16204435872
16204444356
16204451863
16204460347
16204466817
16204477010
16204483968
16204489888
16204499348
16204506551
16204516499
16204523152
16204532612
16204538594
16204545613
16204552388
16204562581
16204569111
16204576619
16204583760
16204591816
16204599934
16204605610
16204613911
16204621907
16204627827
16204636311
16204642109
16204649922
16204654072
16204661396
16204667500
16204673298
16204678791
16204684651
16204690449
16204696736
16204703205
16204708271
16204712727
16204718525
16204725361
16204730732
16204735615
16204743305
16204748432
16204754597
16204758625
16204764729
16204768696
16204774982
16204783039
16204787983
16204794025
16204799335
16204804523
16204809956
16204816547
16204823383
16204829914
16204836323
16204843403
16204850422
16204856342
16204861713
16204868244
16204874470
16204881427
16204886127
16204892475
16204896686
16204902118
16204908405
16204913837
16204919330
16204924335
16204933918
16204941486
16204949237
16204953876
16204960895
16204966571
16204972797
16204978839
16204985675
16204992633
16204997333
16205002460
16205010333
16205015582
16205022113
16205029254
16205037494
16205043170
16205050617
16205055255
16205060870
16205068561
16205074359
16205080341
16205084308
16205090472
16205097247
16205101642
16205107806
16205112872
16205117877
16205124103
16205129657
16205136615
16205141131
16205147540
16205153399
16205158099
16205162311
16205168597
16205173297
16205179706
16205184832
16205189837
16205194537
16205199725
16205206012
16205211566
16205217730
16205225177
16205229571
16205235186
16205239520
16205247210
16205251788
16205257830
16205263629
16205267840
16205274859
16205280413
16205287066
16205291766
16205296893
16205302752
16205307757
16205312884
16205321795
16205327593
16205333392
16205339007
16205344561
16205350176
16205354937
16205359271
16205368426
16205373980
16205380022
16205384905
16205389544
16205397234
16205401385
16205408160
16205413348
16205420916
16205426287
16205432085
16205438128
16205443377
16205448015
16205454363
16205457476
16205466387
16205472307
16205476458
16205484453
16205488299
16205494951
16205500383
16205506304
16205512285
16205517962
16205524004
16205529436
16205535784
16205541643
16205547686
16205553667
16205559832
16205565813
16205570940
16205577288
16205582598
16205588091
16205592974
16205599321
16205604692
16205611040
16205617754
16205623735
16205631548
16205636614
16205642961
16205650713
16205656572
16205662492
16205669389
16205674272
16205681352
16205686113
16205692766
16205697038
16205703020
16205707963
16205713335
16205720354
16205724016
16205730241
16205734636
16205741228
16205746599
16205751420
16205757158
16205762529
16205766496
16205772233
16205777726
16205783891
16205789689
16205795671
16205799150
16205807084
16205811845
16205818864
16205823808
16205829606
16205835588
16205842302
16205847551
16205854020
16205862321
16205869889
16205878312
16205885209
16205892900
16205900224
16205906205
16205913102
16205923844
16205930741
16205939347
16205947160
16205953812
16205961137
16205969437
16205976334
16205982255
16205993119
16206000993
16206008622
16206018387
16206026566
16206033463
16206041215
16206048661
16206055008
16206061661
16206071610
16206078934
16206086808
16206093461
16206100907
16206108048
16206116410
16206123978
16206132401
16206140030
16206146866
16206153519
16206162369
16206170365
16206177201
16206186844
16206195450
16206202042
16206208573
16206217240
16206225357
16206232926
16206240189
16206248062
16206256485
16206265701
16206272903
16206278641
16206287247
16206295059
16206302933
16206310318
16206317703
16206324173
16206333511
16206339737
16206347244
16206355545
16206364334
16206371658
16206380691
16206391678
16206398391
16206408889
16206415969
16206423599
16206430374
16206438919
16206445938
16206454910
16206462112
16206470901
16206478652
16206486831
16206493423
16206503066
16206509353
16206519241
16206524978
16206532668
16206542007
16206546829
16206555557
16206562698
16206569839
16206577590
16206586135
16206593764
16206602004
16206610183
16206618606
16206626784
16206632949
16206643325
16206652419
16206659255
16206667556
16206676284
16206682937
16206690627
16206699538
16206707290
16206714064
16206725478
16206733229
16206741957
16206749282
16206755507
16206762404
16206772719
16206781203
16206786574
16206796645
16206804823
16206812392
16206820693
16206828993
16206834425
16206844923
16206851759
16206860732
16206867873
16206876723
16206883559
16206893019
16206899428
16206906203
16206915907
16206923842
16206931532
16206939284
16206947767
16206954481
16206962782
16206972609
16206980970
16206988295
16206993605
16207000868
16207011915
16207018629
16207025648
16207033094
16207039991
16207048353
16207056349
16207062879
16207071424
16207080152
16207090406
16207098890
16207103407
16207114637
16207124342
16207133192
16207140943
16207149549
16207155897
16207165418
16207172010
16207179945
16207187208
16207197706
16207206617
16207214796
16207221876
16207229078
16207237012
16207240980
16207255445
16207262647
16207273633
16207281141
16207289319
16207297071
16207304029
16207310437
16207317395
16207324109
16207334912
16207341992
16207347364
16207351575
16207357923
16207362439
16207368909
16207370130
16207380078
16207384778
16207390637
16207395398
16207401441
16207406995
16207411328
16207417981
16207423962
16207429761
16207435437
16207441419
16207446545
16207451978
16207457166
16207462903
16207468640
16207474072
16207478162
16207483472
16207487927
16207493420
16207498669
16207507580
16207512646
16207518262
16207524121
16207528515
16207533276
16207541089
16207545483
16207551648
16207559704
16207564221
16207570630
16207575207
16207582226
16207587353
16207592419
16207597546
16207605420
16207610791
16207616101
16207621960
16207627392
16207632519
16207638623
16207644299
16207651074
16207658032
16207662609
16207668835
16207674328
16207678662
16207684643
16207689465
16207695141
16207701916
16207707104
16207712170
16207716686
16207724255
16207729382
16207734509
16207740063
16207745922
16207752575
16207757580
16207762463
16207768627
16207774425
16207779980
16207785473
16207791271
16207796093
16207801952
16207806896
16207814037
16207818981
16207824352
16207832226
16207838329
16207844738
16207851207
16207857250
16207864025
16207870739
16207876476
16207881908
16207887523
16207893322
16207898693
16207903759
16207909069
16207914318
16207919078
16207924327
16207930126
16207937572
16207940929
16207948741
16207953014
16207958507
16207965221
16207970714
16207975658
16207980846
16207987804
16207992076
16207999523
16208003368
16208010692
16208014476
16208020397
16208026378
16208032848
16208040538
16208046397
16208052196
16208056285
16208062144
16208068248
16208072887
16208078746
16208085460
16208089793
16208096507
16208102061
16208106944
16208111827
16208117747
16208123607
16208130809
16208136546
16208142711
16208147838
16208153392
16208157725
16208164256
16208170665
16208175486
16208182689
16208187327
16208193675
16208198863
16208205455
16208210826
16208215953
16208222850
16208228282
16208232859
16208241587
16208245249
16208252818
16208258372
16208264475
16208270213
16208276194
16208282847
16208288340
16208292796
16208298106
16208305247
16208309519
16208316050
16208321116
16208326853
16208333323
16208339182
16208345896
16208352122
16208358652
16208364573
16208369578
16208379771
16208388193
16208394053
16208399119
16208407419
16208412607
16208419993
16208424875
16208430979
16208437143
16208443552
16208450754
16208455210
16208463511
16208468515
16208474985
16208479807
16208489206
16208495554
16208502634
16208506113
16208515635
16208520639
16208527231
16208534250
16208539499
16208545481
16208552683
16208558664
16208566110
16208573068
16208580698
16208584482
16208596933
16208603586
16208610910
16208617136
16208624826
16208632028
16208637705
16208646982
16208655893
16208662546
16208669992
16208675912
16208683786
16208691537
16208698312
16208703805
16208712594
16208719430
16208728891
16208735116
16208743112
16208749948
16208757272
16208766732
16208774118
16208781869
16208789987
16208797433
16208804391
16208811898
16208818551
16208826547
16208832345
16208844552
16208851998
16208860299
16208866403
16208874215
16208882882
16208891061
16208897042
16208905038
16208912606
16208921273
16208930123
16208935433
16208944833
16208951913
16208960152
16208968758
16208976510
16208985543
16208992562
16208999154
16209007271
16209014474
16209021920
16209029244
16209037728
16209045235
16209053353
16209061959
16209069527
16209076546
16209082222
16209090035
16209096566
16209105904
16209114022
16209122200
16209128365
16209137154
16209143807
16209150704
16209160286
16209168038
16209174629
16209184761
16209190437
16209198189
16209204659
16209216744
16209222725
16209234322
16209241951
16209250435
16209258247
16209266182
16209273506
16209281685
16209287178
16209296150
16209305000
16209310982
16209319038
16209326912
16209333381
16209340034
16209348884
16209356575
16209366401
16209371772
16209381172
16209388252
16209395149
16209402046
16209410041
16209417060
16209428352
16209435371
16209443428
16209447273
16209457038
16209463081
16209473274
16209479499
16209490302
16209497199
16209505927
16209511970
16209518684
16209527900
16209534553
16209541450
16209550117
16209557990
16209566047
16209573432
16209581977
16209589545
16209596503
16209604072
16209608161
16209619025
16209627753
16209635871
16209643744
16209651252
16209655585
16209666388
16209672736
16209679328
16209688788
16209696112
16209704840
16209711066
16209720343
16209725714
16209735175
16209742316
16209749579
16209756415
16209765082
16209771796
16209781806
16209788336
16209795966
16209803839
16209814032
16209818610
16209828314
16209834479
16209843817
16209849860
16209856573
16209865851
16209872626
16209879828
16209888617
16209895758
16209905462
16209912787
16209918524
16209926459
16209935248
16209944220
16209951361
16209959417
16209967596
16209975225
16209981573
16209987738
16209993963
16209999945
16210005804
16210012457
16210018927
16210026800
16210034613
16210041387
16210046697
16210053533
16210059881
16210065008
16210069647
16210076116
16210080938
16210086309
16210091070
16210098760
16210103948
16210108953
16210115240
16210120306
16210126348
16210132757
16210139227
16210145147
16210150396
16210157842
16210164190
16210169805
16210174810
16210180425
16210188055
16210194341
16210200628
16210206487
16210211919
16210218023
16210222722
16210229802
16210235174
16210241582
16210246465
16210253118
16210258184
16210265386
16210269719
16210275274
16210280034
16210286992
16210291936
16210300176
16210306768
16210312627
16210317449
16210323552
16210330022
16210336858
16210342168
16210348210
16210353093
16210360662
16210365788
16210371099
16210378179
16210382390
16210388493
16210395390
16210399419
16210405095
16210409612
16210416631
16210421635
16210430486
16210433842
16210442204
16210446477
16210453130
16210457890
16210465337
16210471501
16210479314
16210483891
16210491398
16210496098
16210504277
16210509953
16210518620
16210522221
16210531743
16210537480
16210545292
16210550541
16210558537
16210564702
16210570073
16210577824
16210584355
16210591740
16210597782
16210605290
16210610112
16210615605
16210624272
16210630436
16210637272
16210643559
16210653324
16210660465
16210665837
16210672184
16210678959
16210683903
16210689945
16210695927
16210702458
16210707829
16210713078
16210718754
16210723393
16210727604
16210733830
16210738224
16210746830
16210751041
16210756229
16210761661
16210766666
16210772648
16210778263
16210783329
16210789982
16210799625
16210807560
16210814029
16210824222
16210831608
16210837040
16210843937
16210848392
16210853641
16210858646
16210864139
16210869144
16210874210
16210880680
16210885624
16210890567
16210895633
16210900516
16210905338
16210911014
16210916202
16210922000
16210927433
16210932071
16210937076
16210942020
16210948856
16210953800
16210958988
16210964725
16210970096
16210974063
16210980228
16210984439
16210989688
16210995487
16211000491
16211005863
16211010623
16211016910
16211022098
16211026798
16211032291
16211038638
16211043826
16211051639
16211056522
16211061648
16211065982
16211072208
16211078250
16211083804
16211088992
16211093997
16211098941
16211104312
16211109622
16211115359
16211120547
16211128665
16211133670
16211139712
16211145572
16211151736
16211157534
16211164981
16211171023
16211179995
16211188968
16211195559
16211204959
16211209841
16211218753
16211224246
16211233401
16211239993
16211249209
16211255007
16211264590
16211271670
16211280703
16211286868
16211295474
16211301638
16211310854
16211317080
16211326418
16211332339
16211341189
16211348391
16211355532
16211362246
16211372011
16211377260
16211387087
16211392336
16211402163
16211409670
16211415163
16211423891
16211432863
16211437258
16211447085
16211452883
16211461062
16211470095
16211475466
16211484804
16211491396
16211502382
16211510378
16211518190
16211524294
16211533815
16211540346
16211548464
16211555116
16211564211
16211573305
16211578920
16211584963
16211594728
16211602968
16211609865
16211615480
16211621584
16211630678
16211639833
16211645814
16211653139
16211660951
16211667909
16211673524
16211680665
16211689638
16211697999
16211704103
16211711488
16211719484
16211724428
16211732667
16211739625
16211748292
16211755555
16211762697
16211769838
16211778627
16211784852
16211792298
16211799867
16211810121
16211815858
16211825196
16211831361
16211839234
16211846803
16211854310
16211858338
16211870606
16211875245
16211885865
16211892030
16211901734
16211907777
16211916688
16211923341
16211931763
16211940247
16211947694
16211957093
16211962830
16211972352
16211977662
16211985840
16211994141
16212006531
16212013611
16212021973
16212030518
16212036194
16212042725
16212053894
16212060059
16212069275
16212075684
16212084900
16212090821
16212098999
16212104981
16212112305
16212121460
16212129639
16212137085
16212145325
16212152222
16212158386
16212168274
16212174011
16212181580
16212189819
16212198670
16212205872
16212213989
16212221985
16212227783
16212237061
16212241882
16212251099
16212257202
16212266357
16212273620
16212282471
16212289673
16212296936
16212304565
16212311523
16212320984
16212329040
16212336731
16212343689
16212351074
16212359192
16212367736
16212375305
16212379394
16212389953
16212398010
16212405517
16212412109
16212419555
16212426147
16212435058
16212442932
16212448364
16212458496
16212466369
16212475585
16212482787
16212489562
16212497741
16212505004
16212511901
16212519958
16212527831
16212535461
16212542663
16212550719
16212558715
16212566772
16212573852
16212582580
16212591186
16212596068
16212600463
16212605712
16212609984
16212616210
16212620482
16212628478
16212633727
16212640380
16212646483
16212651244
16212657103
16212662413
16212668761
16212676757
16212683043
16212688658
16212694091
16212700194
16212705504
16212710631
16212717162
16212724913
16212730223
16212737364
16212744811
16212752562
16212757994
16212764342
16212773619
16212779723
16212786864
16212793578
16212799315
16212803465
16212809752
16212815245
16212821776
16212825926
16212832030
16212836119
16212842467
16212847288
16212854002
16212860289
16212865660
16212871092
16212877867
16212882872
16212889281
16212893919
16212900389
16212903807
16212911680
16212917296
16212923887
16212928587
16212935057
16212939329
16212946287
16212952086
16212958983
16212963499
16212969908
16212974852
16212981504
16212987425
16212992613
16212998594
16213005003
16213011595
16213016783
16213023252
16213028746
16213034971
16213040281
16213045164
16213053831
16213060606
16213066099
16213070799
16213076841
16213082823
16213088926
16213094114
16213100095
16213104612
16213111021
16213116514
16213123045
16213127683
16213135862
16213140440
16213147520
16213153562
16213157835
16213164121
16213171384
16213178098
16213183347
16213188230
16213196348
16213199644
16213208860
16213213926
16213219663
16213225217
16213229429
16213236203
16213241575
16213246457
16213254270
16213259458
16213265683
16213270444
16213276303
16213281186
16213287900
16213294492
16213300779
16213305722
16213309812
16213316220
16213323239
16213330197
16213339658
16213346250
16213351132
16213359006
16213367368
16213373349
16213380551
16213387631
16213395139
16213400571
16213406552
16213411740
16213417050
16213421750
16213427426
16213430600
16213439084
16213443600
16213449094
16213455563
16213458981
16213465146
16213471249
16213476132
16213481869
16213488156
16213491879
16213498288
16213503720
16213510068
16213516110
16213521725
16213527218
16213532528
16213538510
16213545773
16213551083
16213556454
16213562191
16213567685
16213573971
16213579586
16213586239
16213592526
16213597836
16213604183
16213609127
16213614865
16213620846
16213626583
16213632992
16213638790
16213644161
16213648373
16213656246
16213660580
16213667172
16213672360
16213679196
16213685970
16213691525
16213696163
16213703732
16213711971
16213716488
16213723385
16213731380
16213736324
16213742184
16213749691
16213754208
16213759701
16213767452
16213772274
16213777584
16213785213
16213792415
16213799434
16213809688
16213814205
16213822262
16213830257
16213839107
16213846492
16213852962
16213860042
16213866756
16213878780
16213886959
16213895198
16213904842
16213912471
16213920345
16213928401
16213934566
16213943111
16213951778
16213959895
16213964229
16213975276
16213982600
16213991023
16213998225
16214006770
16214016597
16214025325
16214033443
16214042110
16214050166
16214059199
16214068049
16214076533
16214084102
16214092036
16214101008
16214109919
16214117976
16214125972
16214134211
16214141780
16214148433
16214156184
16214162349
16214172847
16214181086
16214188960
16214197627
16214205134
16214211543
16214220759
16214228449
16214237971
16214245539
16214254145
16214261225
16214271662
16214278925
16214286921
16214292292
16214300044
16214307002
16214314265
16214322260
16214328547
16214334528
16214343256
16214350458
16214360956
16214368220
16214375483
16214380182
16214389826
16214395991
16214405390
16214411860
16214419611
16214427546
16214434809
16214444147
16214452021
16214460382
16214465876
16214474115
16214481379
16214490412
16214498224
16214504450
16214513910
16214520380
16214526911
16214536249
16214543756
16214554071
16214561884
16214567377
16214576471
16214582147
16214592523
16214599847
16214607050
16214615778
16214623224
16214631036
16214638299
16214642694
16214653741
16214662103
16214670587
16214678705
16214687189
16214694574
16214703302
16214710443
16214718561
16214725091
16214734796
16214742059
16214749017
16214758538
16214764581
16214772332
16214778741
16214787286
16214795709
16214804803
16214807183
16214820794
16214829217
16214837945
16214844354
16214851678
16214860040
16214867608
16214875359
16214885125
16214892999
16214900811
16214909295
16214917535
16214925469
16214933465
16214942254
16214946587
16214959099
16214965447
16214973931
16214980340
16214989800
16214996880
16215002434
16215011895
16215019707
16215028252
16215035515
16215046074
16215051812
16215060662
16215070061
16215078362
16215086296
16215095269
16215099663
16215110222
16215119072
16215124321
16215134392
16215141228
16215150932
16215156670
16215167229
16215172966
16215183769
16215190422
16215198601
16215206291
16215215019
16215222649
16215231071
16215237541
16215246879
16215253960
16215261772
16215270378
16215275078
16215280266
16215285820
16215293388
16215297844
16215304313
16215308403
16215315300
16215320366
16215326957
16215332695
16215340202
16215344658
16215351555
16215356010
16215362846
16215367729
16215374321
16215381401
16215385917
16215391532
16215399284
16215405387
16215410087
16215415580
16215422355
16215427421
16215434684
16215439201
16215445793
16215452567
16215457450
16215463249
16215470512
16215475517
16215483512
16215488822
16215496085
16215502311
16215506889
16215511771
16215518241
16215522086
16215528922
16215535819
16215542838
16215549308
16215555411
16215562919
16215569388
16215575736
16215582938
16215590934
16215598685
16215604789
16215610465
16215615775
16215621573
16215626639
16215633963
16215640006
16215644523
16215650992
16215655387
16215661917
16215666556
16215673087
16215679679
16215685416
16215691580
16215696768
16215701712
16215707389
16215713187
16215719962
16215725455
16215731803
16215737357
16215742911
16215749564
16215754202
16215760916
16215764456
16215772025
16215778738
16215782889
16215789542
16215794913
16215802969
16215807974
16215812491
16215819327
16215825064
16215830740
16215836905
16215842154
16215846792
16215853628
16215856863
16215864432
16215871023
16215876578
16215881277
16215888357
16215894156
16215898916
16215905508
16215911673
16215917410
16215922598
16215929434
16215933828
16215939810
16215947073
16215952627
16215956778
16215962698
16215969595
16215977590
16215982168
16215988516
16215995108
16215999685
16216005606
16216011587
16216016043
16216022817
16216029409
16216033987
16216038625
16216045828
16216051504
16216057974
16216063039
16216070242
16216076589
16216081655
16216088186
16216094534
16216099905
16216106069
16216109182
16216116750
16216123342
16216127859
16216132680
16216139516
16216144887
16216153188
16216158925
16216166921
16216173086
16216182546
16216186391
16216195363
16216202566
16216210317
16216215993
16216223562
16216229421
16216234975
16216241140
16216246450
16216252919
16216258535
16216263295
16216270436
16216276052
16216281179
16216286916
16216292958
16216298940
16216304738
16216307668
16216314809
16216319203
16216326161
16216331044
16216337575
16216343556
16216348134
16216354787
16216359120
16216365834
16216370168
16216376576
16216380849
16216387685
16216393300
16216400868
16216406728
16216412709
16216417409
16216424184
16216430775
16216436757
16216442433
16216448598
16216455434
16216461659
16216467396
16216473439
16216479054
16216484730
16216491871
16216500233
16216509755
16216517628
16216525319
16216532948
16216541432
16216549672
16216557850
16216562428
16216573048
16216579640
16216589283
16216598866
16216604359
16216614491
16216620533
16216630299
16216637745
16216647511
16216655995
16216663868
16216669422
16216679737
16216688221
16216694569
16216701099
16216711353
16216718433
16216728565
16216735035
16216744617
16216751392
16216759449
16216767261
16216776233
16216783924
16216792103
16216800525
16216807789
16216816150
16216822925
16216831165
16216838245
16216848682
16216855274
16216864795
16216872058
16216880481
16216888416
16216896717
16216905139
16216912891
16216921436
16216929614
16216938526
16216946643
16216955310
16216962207
16216972095
16216979053
16216986133
16216996448
16217004443
16217013965
16217020007
16217029895
16217036609
16217044055
16217050952
16217059375
16217066455
16217074695
16217082995
16217089770
16217096606
16217105517
16217112475
16217120288
16217128222
16217135119
16217145800
16217153064
16217160327
16217166796
16217175891
16217182543
16217190478
16217198046
16217207873
16217215441
16217223498
16217231127
16217238329
16217244799
16217254626
16217261157
16217269274
16217277453
16217283862
16217293627
16217299364
16217307299
16217314867
16217324023
16217330981
16217340990
16217348192
16217356066
16217364123
16217371264
16217377611
16217386950
16217393725
16217400683
16217411120
16217417345
16217424791
16217431810
16217440660
16217447496
16217455431
16217463488
16217473436
16217479967
16217488756
16217496263
16217504564
16217511156
16217520922
16217528124
16217535509
16217545763
16217567430
16217571947
16217582506
16217589830
16217601732
16217609422
16217618394
16217624437
16217631273
16217641221
16217647630
16217656969
16217665330
16217673265
16217679551
16217687669
16217695115
16217703538
16217711595
16217720628
16217729112
16217737901
16217745408
16217754747
16217761888
16217772019
16217778794
16217788255
16217797349
16217802537
16217812791
16217820054
16217829576
16217835130
16217843430
16217851609
16217859788
16217867539
16217875779
16217884141
16217892686
16217899339
16217908311
16217915025
16217923753
16217933335
16217939316
16217949448
16217955918
16217963669
16217973679
16217981064
16217988633
16217997422
16218003830
16218009507
16218015549
16218021592
16218024826
16218033310
16218040146
16218046616
16218054306
16218060654
16218066452
16218071762
16218076950
16218082688
16218088486
16218093796
16218098252
16218106308
16218110581
16218116684
16218121689
16218128952
16218133347
16218140610
16218145004
16218151657
16218157028
16218163071
16218170395
16218176498
16218181870
16218187912
16218193344
16218199509
16218205124
16218210861
16218217636
16218222946
16218228683
16218234726
16218242660
16218249618
16218254013
16218261215
16218266464
16218273666
16218278000
16218284775
16218291122
16218296493
16218301254
16218307785
16218313400
16218318527
16218324264
16218329574
16218335067
16218341903
16218346359
16218353378
16218358444
16218363815
16218368820
16218375473
16218385360
16218391281
16218397750
16218406112
16218412948
16218418685
16218425887
16218432052
16218440841
16218446761
16218453841
16218458724
16218465377
16218471725
16218478805
16218483199
16218490462
16218494674
16218503402
16218510177
16218516097
16218521529
16218527328
16218532882
16218538680
16218544234
16218547652
16218553878
16218559493
16218562789
16218570052
16218575667
16218582869
16218587386
16218592757
16218599532
16218605636
16218611373
16218616500
16218623397
16218630172
16218633712
16218640120
16218644149
16218650801
16218655867
16218660201
16218666243
16218672713
16218677108
16218681502
16218688094
16218694319
16218699080
16218704695
16218711653
16218715621
16218722640
16218728194
16218733809
16218739180
16218745101
16218751326
16218757918
16218763045
16218768599
16218773177
16218780196
16218785078
16218791975
16218796919
16218805098
16218811323
16218816328
16218822127
16218827071
16218832381
16218837019
16218841719
16218848677
16218853926
16218860457
16218864119
16218870588
16218875715
16218881453
16218885664
16218892134
16218898665
16218904524
16218908796
16218914778
16218920637
16218926558
16218934126
16218937666
16218944746
16218949934
16218955915
16218961286
16218967024
16218974653
16218981001
16218987287
16218993513
16218999555
16219005659
16219012068
16219017866
16219020735
16219031233
16219034223
16219040754
16219044904
16219051130
16219057417
16219063215
16219067426
16219073225
16219077497
16219083662
16219088972
16219094038
16219099409
16219103437
16219109418
16219116376
16219120771
16219127912
16219131879
16219138227
16219142377
16219149152
16219154218
16219160566
16219167280
16219172773
16219178205
16219183637
16219190839
16219194867
16219200544
16219205915
16219212201
16219217817
16219223493
16219229535
16219234357
16219241132
16219245343
16219249860
16219257611
16219262433
16219269696
16219274030
16219279157
16219286237
16219292279
16219297284
16219303937
16219310101
16219316327
16219322858
16219328473
16219333844
16219338849
16219344769
16219350873
16219357282
16219362897
16219369000
16219375165
16219380841
16219383893
16219391156
16219395978
16219404462
16219410565
16219416852
16219421307
16219427533
16219431927
16219437726
16219444317
16219449444
16219457196
16219462201
16219469098
16219473553
16219479046
16219485455
16219491314
16219495465
16219503094
16219508526
16219513592
16219516522
16219524945
16219531109
16219535260
16219539715
16219548443
16219554852
16219561261
16219565167
16219573101
16219578167
16219585064
16219592388
16219598370
16219606548
16219615032
16219621319
16219628460
16219633831
16219639324
16219644207
16219652386
16219659283
16219665325
16219669720
16219675823
16219680523
16219685467
16219691997
16219698772
16219706646
16219711162
16219717510
16219722515
16219727520
16219734417
16219739910
16219745891
16219752056
16219757854
16219763286
16219769024
16219774883
16219779339
16219785808
16219791057
16219799358
16219805706
16219809246
16219815899
16219821209
16219826091
16219830791
16219838237
16219847209
16219853374
16219861736
16219867290
16219873149
16219879009
16219886211
16219892253
16219900005
16219906658
16219912334
16219918804
16219925395
16219931133
16219937297
16219943584
16219950237
16219956462
16219962627
16219968486
16219975017
16219980449
16219986858
16219993327
16219999797
16220007426
16220012492
16220019389
16220024699
16220031474
16220036845
16220042216
16220049602
16220057170
16220061503
16220068217
16220073466
16220079081
16220085307
16220089946
16220095988
16220101542
16220106425
16220112773
16220117717
16220124430
16220129618
16220134135
16220140239
16220145610
16220151469
16220158244
16220163493
16220170146
16220175090
16220182963
16220189250
16220195292
16220202555
16220207865
16220215251
16220221781
16220226786
16220233439
16220241129
16220245951
16220251139
16220256510
16220261759
16220264567
16220271037
16220276957
16220283121
16220288309
16220293742
16220299723
16220305521
16220310953
16220316141
16220322550
16220330607
16220335856
16220341410
16220347941
16220352274
16220356852
16220363627
16220368082
16220373453
16220380594
16220386881
16220392618
16220396952
16220404886
16220410135
16220415201
16220420938
16220427408
16220433939
16220439554
16220444925
16220450479
16220455606
16220461710
16220467020
16220475626
16220480814
16220486734
16220492472
16220497293
16220504190
16220507791
16220514505
16220521036
16220525675
16220532022
16220537027
16220542764
16220548258
16220553445
16220560770
16220566751
16220572855
16220578165
16220583658
16220589395
16220595926
16220601114
16220606790
16220613321
16220618265
16220624979
16220630411
16220634927
16220641580
16220646402
16220653177
16220657693
16220664041
16220672281
16220677408
16220684060
16220687845
16220695779
16220702127
16220707437
16220715493
16220720620
16220726113
16220731973
16220737588
16220743203
16220748574
16220755471
16220760354
16220766824
16220769998
16220778909
16220784768
16220792520
16220797891
16220803018
16220812722
16220820474
16220832803
16220839028
16220844705
16220850015
16220855874
16220861367
16220868508
16220873879
16220878640
16220884682
16220889687
16220894082
16220901284
16220907571
16220913735
16220919106
16220924111
16220928628
16220935158
16220938576
16220943947
16220946572
16220956338
16220960915
16220967202
16220973427
16220978005
16220982583
16220990395
16220996132
16221002785
16221007485
16221012612
16221018410
16221024453
16221030983
16221036965
16221042336
16221043862
16221054604
16221059670
16221066017
16221070595
16221076515
16221082070
16221087074
16221092690
16221103127
16221108315
16221115578
16221121254
16221128700
16221134132
16221140663
16221146278
16221152138
16221159279
16221165260
16221170937
16221178200
16221184547
16221189064
16221195290
16221201881
16221208961
16221213966
16221221046
16221224159
16221232033
16221237587
16221243080
16221248390
16221252907
16221259620
16221264320
16221270912
16221275551
16221282264
16221287452
16221292396
16221297279
16221305214
16221310890
16221315834
16221322059
16221327125
16221332313
16221338050
16221343727
16221351173
16221356178
16221361793
16221366737
16221374000
16221378395
16221384498
16221393958
16221401161
16221408790
16221415138
16221421668
16221428199
16221434730
16221441627
16221445472
16221454932
16221462928
16221468726
16221474586
16221478614
16221482581
16221488807
16221494666
16221501075
16221507728
16221511512
16221518714
16221523597
16221530128
16221534339
16221541358
16221546241
16221553931
16221559241
16221564002
16221568763
16221575721
16221580054
16221586585
16221591834
16221598670
16221603553
16221608191
16221613684
16221618689
16221623999
16221630164
16221635657
16221642432
16221647803
16221653357
16221656104
16221664527
16221671729
16221675635
16221682105
16221689856
16221694495
16221701941
16221706397
16221711646
16221718604
16221722632
16221729163
16221734534
16221740637
16221746863
16221752295
16221757361
16221763037
16221769263
16221773962
16221778235
16221787024
16221792517
16221798498
16221802832
16221809180
16221814123
16221821509
16221826208
16221832129
16221837439
16221843115
16221849585
16221854223
16221859839
16221864172
16221871130
16221875525
16221883154
16221889074
16221894873
16221900488
16221908606
16221914160
16221920446
16221925756
16221935217
16221940405
16221946447
16221952307
16221957983
16221965673
16221971472
16221977453
16221984350
16221992468
16221995825
16222003820
16222008581
16222016760
16222020788
16222029028
16222033727
16222042089
16222049474
16222058263
16222064062
16222069921
16222075048
16222082189
16222086950
16222093114
16222096410
16222104955
16222109716
16222115636
16222121007
16222126195
16222131139
16222138708
16222144079
16222150121
16222155248
16222160802
16222166662
16222170751
16222178075
16222182653
16222189367
16222194921
16222199926
16222206395
16222211522
16222216039
16222221471
16222227269
16222236608
16222241063
16222248387
16222252843
16222258397
16222262792
16222268346
16222272924
16222281102
16222286412
16222292638
16222298497
16222302525
16222308995
16222315160
16222320287
16222324193
16222332372
16222338170
16222343907
16222350865
16222356847
16222360753
16222366368
16222373204
16222379124
16222385106
16222392613
16222397313
16222402745
16222407872
16222413670
16222418431
16222425877
16222430943
16222437596
16222442051
16222448094
16222452916
16222458836
16222464024
16222470494
16222479588
16222485936
16222493870
16222499974
16222504857
16222510777
16222518223
16222522679
16222529332
16222534397
16222539646
16222545628
16222551487
16222556675
16222563267
16222568760
16222577976
16222582005
16222589573
16222594944
16222600742
16222605991
16222612400
16222617893
16222626011
16222632725
16222639500
16222645969
16222652683
16222658848
16222666294
16222672153
16222679722
16222684849
16222691013
16222696506
16222703709
16222708347
16222714878
16222719456
16222725071
16222732151
16222735813
16222742466
16222747165
16222753818
16222757725
16222765049
16222771518
16222778660
16222782932
16222791233
16222796909
16222802951
16222808689
16222814243
16222819858
16222826084
16222831333
16222838535
16222844089
16222851230
16222854770
16222862338
16222867893
16222873691
16222877597
16222883396
16222889682
16222895969
16222902316
16222906833
16222911472
16222918979
16222924655
16222930270
16222935825
16222941745
16222947177
16222952853
16222957553
16222964572
16222970859
16222975986
16222982089
16222988071
16222994174
16223000461
16223003879
16223011996
16223017184
16223025607
16223031283
16223039645
16223046237
16223053134
16223056552
16223065829
16223070773
16223076754
16223082675
16223088473
16223093478
16223099032
16223106173
16223111850
16223117465
16223124301
16223129061
16223135226
16223142001
16223147433
16223155245
16223158358
16223165560
16223170443
16223178561
16223184664
16223189913
16223195590
16223204684
16223210787
16223218966
16223228915
16223237277
16223242281
16223256075
16223266390
16223275606
16223282320
16223290133
16223300814
16223308565
16223319674
16223325045
16223333407
16223341463
16223349947
16223357760
16223363070
16223371920
16223376375
16223385347
16223393099
16223401522
16223408907
16223416597
16223423922
16223432222
16223437715
16223445894
16223451631
16223460970
16223467623
16223475252
16223482515
16223490999
16223497652
16223502413
16223511507
16223515718
16223523714
16223534151
16223541109
16223546236
16223554781
16223562288
16223569795
16223575594
16223585847
16223590791
16223599519
16223608308
16223615083
16223621980
16223628328
16223639253
16223644685
16223654634
16223659578
16223668733
16223680635
16223685395
16223696077
16223701326
16223714509
16223722322
16223728364
16223738435
16223747834
16223755830
16223762300
16223768098
16223778474
16223785920
16223792634
16223800996
16223807771
16223814362
16223823396
16223831086
16223837800
16223846284
16223851411
16223861848
16223869721
16223877839
16223884064
16223893464
16223900117
16223907319
16223915009
16223924286
16223931672
16223942597
16223948090
16223956879
16223967316
16223975251
16223985505
16223990509
16224001679
16224009369
16224016449
16224025971
16224032807
16224040375
16224049469
16224056671
16224067047
16224076142
16224083466
16224091889
16224100739
16224110870
16224119476
16224126679
16224134125
16224141632
16224150482
16224158844
16224168426
16224173309
16224186615
16224200531
16224208710
16224213287
16224224396
16224231598
16224238800
16224249420
16224256683
16224270294
16224275787
16224286163
16224292999
16224301483
16224309722
16224315582
16224323944
16224327667
16224338958
16224344329
16224352874
16224361907
16224369171
16224373992
16224381866
16224386932
16224395904
16224400848
16224407867
16224413177
16224419952
16224425445
16224432098
16224438140
16224442535
16224450530
16224456145
16224462615
16224468719
16224474883
16224478606
16224486663
16224491607
16224500213
16224506743
16224512176
16224518157
16224522857
16224528045
16224534820
16224540923
16224545928
16224553435
16224559234
16224565886
16224569182
16224577849
16224582732
16224589995
16224595488
16224602874
16224607878
16224613860
16224620024
16224627349
16224637541
16224646025
16224656829
16224665679
16224675322
16224682341
16224693327
16224702055
16224710661
16224721281
16224729460
16224738615
16224746062
16224754179
16224761076
16224769560
16224777129
16224785185
16224794523
16224801726
16224809416
16224817045
16224825529
16224833098
16224841398
16224849760
16224858610
16224865812
16224874235
16224882719
16224890593
16224898405
16224906523
16224915556
16224923368
16224930937
16224938993
16224947721
16224956205
16224964323
16224972318
16224982694
16224989408
16224999601
16225007108
16225016813
16225026151
16225042020
16225061979
16225079801
16225097928
16225117216
16225135404
16225154569
16225174527
16225190274
16225206937
16225215604
16225222257
16225231595
16225244535
16225257230
16225271024
16225289823
16225302274
16225313870
16225322842
16225331204
16225340421
16225348416
16225356595
16225365872
16225373318
16225383206
16225390591
16225399319
16225407071
16225415005
16225422879
16225431546
16225439053
16225447598
16225454678
16225462674
16225469510
16225477993
16225486905
16225495755
16225506436
16225512661
16225522427
16225530545
16225537747
16225545803
16225555264
16225561672
16225571011
16225579922
16225586208
16225595730
16225601650
16225611233
16225618008
16225626370
16225634914
16225642544
16225651638
16225660793
16225668301
16225674038
16225681789
16225690151
16225697719
16225705837
16225715114
16225723354
16225730739
16225740688
16225747280
16225755336
16225762355
16225771022
16225779262
16225787136
16225796352
16225805141
16225812465
16225820888
16225827724
16225836330
16225844264
16225852870
16225859584
16225868617
16225876613
16225882655
16225892116
16225898280
16225905910
16225915187
16225925868
16225934352
16225941737
16225949550
16225957179
16225964137
16225971767
16225978480
16225988246
16225995204
16226003016
16226010646
16226020473
16226027369
16226035548
16226043849
16226053981
16226060267
16226070521
16226078517
16226086085
16226095607
16226102687
16226111293
16226118312
16226126429
16226134669
16226142176
16226149195
16226157252
16226165614
16226170497
16226176356
16226182459
16226187830
16226192835
16226196742
16226202357
16226206995
16226211695
16226216334
16226221766
16226225977
16226230189
16226235316
16226239222
16226244532
16226249720
16226254603
16226259241
16226264002
16226269312
16226274561
16226278895
16226285425
16226289820
16226295191
16226300562
16226305750
16226310877
16226316797
16226321985
16226328028
16226332789
16226337488
16226342798
16226347132
16226350855
16226356531
16226362391
16226368921
16226373011
16226378748
16226382471
16226387781
16226391748
16226397486
16226403040
16226410730
16226416223
16226419397
16226427027
16226434595
16226441553
16226448633
16226455774
16226460230
16226464868
16226470728
16226475183
16226480676
16226484766
16226489038
16226494165
