16261872004
16261878535
16261884089
16261888240
16261894892
16261901606
16261906489
16261913325
16261920344
16261925288
16261932246
16261938593
16261943842
16261950068
16261956110
16261960871
16261968256
16261972895
16261980280
16261986994
16261992854
16261999873
16262007075
16262014216
16262021479
16262028254
16262035273
16262043330
16262049189
16262054926
16262062372
16262069758
16262077143
16262083857
16262089472
16262097529
16262103144
16262111567
16262116022
16262125666
16262129877
16262140192
16262148188
16262155268
16262164118
16262171137
16262179438
16262186212
16262193048
16262198175
16262203241
16262210687
16262215692
16262222345
16262226068
16262233881
16262240289
16262247125
16262253229
16262258173
16262265253
16262269159
16262276971
16262284418
16262290948
16262297418
16262302362
16262310113
16262314020
16262322748
16262329523
16262336114
16262341791
16262347650
16262354669
16262361017
16262367547
16262374811
16262379815
16262385919
16262392267
16262398126
16262404107
16262408990
16262416436
16262421197
16262427606
16262433465
16262440789
16262446649
16262454950
16262459161
16262467096
16262470880
16262479241
16262486749
16262493524
16262499932
16262505670
16262513299
16262517205
16262526849
16262532525
16262541741
16262548821
16262554681
16262562249
16262568597
16262575921
16262581536
16262588067
16262594598
16262602227
16262609002
16262615227
16262623345
16262629327
16262634637
16262643426
16262649773
16262656853
16262662957
16262670464
16262676201
16262681511
16262690667
16262696831
16262703301
16262710015
16262714776
16262721978
16262728508
16262736382
16262741570
16262749688
16262755913
16262761040
16262771782
16262777153
16262787041
16262793511
16262800652
16262807671
16262813347
16262820244
16262826775
16262835747
16262842644
16262848869
16262857842
16262864494
16262871208
16262878593
16262886406
16262893608
16262901054
16262908318
16262913750
16262921684
16262928764
16262936760
16262943291
16262950920
16262957573
16262966728
16262973137
16262982170
16262989372
16262996574
16263003471
16263009330
16263018730
16263026054
16263031242
16263040702
16263047172
16263055107
16263061271
16263069267
16263073967
16263083305
16263091423
16263097648
16263106681
16263112602
16263120963
16263126945
16263134574
16263143058
16263149528
16263157462
16263165580
16263170524
16263179801
16263185111
16263193961
16263203239
16263211784
16263218070
16263224540
16263231803
16263238883
16263248588
16263253104
16263262321
16263269706
16263276847
16263282645
16263289603
16263298697
16263305167
16263313712
16263320060
16263328360
16263335257
16263342704
16263348929
16263355948
16263361197
16263367484
16263373831
16263378897
16263383353
16263389640
16263396048
16263402518
16263407096
16263412589
16263417716
16263424613
16263430533
16263436087
16263441641
16263446158
16263453055
16263458548
16263463431
16263468070
16263476309
16263480338
16263488028
16263494070
16263500967
16263504813
16263512564
16263516165
16263523245
16263529654
16263535452
16263541067
16263546561
16263551260
16263557059
16263561087
16263569143
16263575003
16263579947
16263585257
16263590384
16263595633
16263599478
16263605826
16263611746
16263616568
16263622427
16263627188
16263632925
16263637564
16263643423
16263649649
16263654104
16263659780
16263666738
16263672171
16263676809
16263682546
16263688528
16263693777
16263699514
16263705068
16263710928
16263715261
16263720876
16263727102
16263731619
16263737539
16263744436
16263747915
16263754995
16263760549
16263766470
16263775991
16263781667
16263785024
16263792226
16263797659
16263804006
16263807485
16263814626
16263819448
16263824758
16263830617
16263835805
16263840627
16263847158
16263853444
16263857900
16263863576
16263869924
16263874380
16263877797
16263886525
16263890127
16263897268
16263901967
16263908803
16263913564
16263919606
16263924855
16263930593
16263935048
16263941152
16263945546
16263951284
16263957631
16263962514
16263968251
16263972341
16263980153
16263983876
16263991384
16263996877
16264001637
16264007497
16264013844
16264018605
16264026662
16264031300
16264038258
16264043263
16264048756
16264055714
16264063039
16264069875
16264075368
16264082021
16264087758
16264094350
16264099538
16264105702
16264110219
16264117543
16264123280
16264128773
16264133717
16264139088
16264145314
16264149403
16264155018
16264160267
16264166066
16264170033
16264175770
16264181630
16264186146
16264191517
16264196949
16264201161
16264207509
16264213124
16264218434
16264223622
16264229359
16264233754
16264239857
16264245900
16264252369
16264258473
16264263111
16264269825
16264276051
16264280445
16264287159
16264291615
16264298939
16264303211
16264309620
16264314137
16264318165
16264326588
16264332203
16264338062
16264343128
16264349476
16264355702
16264361561
16264367237
16264373096
16264378529
16264383167
16264390797
16264397144
16264402393
16264408070
16264413624
16264419483
16264424122
16264430347
16264433704
16264442127
16264445850
16264454334
16264460254
16264466053
16264470081
16264476795
16264485096
16264494678
16264502124
16264510059
16264515735
16264525379
16264529956
16264540515
16264550281
16264560047
16264563343
16264575366
16264580493
16264591968
16264597217
16264608142
16264616382
16264625598
16264631275
16264641162
16264645862
16264654407
16264663928
16264669788
16264677173
16264688220
16264696887
16264705005
16264713245
16264721789
16264729663
16264737964
16264745837
16264754443
16264759997
16264769336
16264776294
16264784472
16264788806
16264798633
16264803332
16264814624
16264819629
16264830859
16264835620
16264845935
16264850695
16264860888
16264868396
16264877185
16264882739
16264894274
16264899462
16264910693
16264915698
16264926501
16264935839
16264944994
16264953539
16264960131
16264967394
16264975268
16264982531
16264989001
16264997790
16265005480
16265013171
16265020006
16265027697
16265034411
16265042773
16265049853
16265058092
16265063280
16265072313
16265078722
16265087572
16265093920
16265101305
16265107470
16265117174
16265124376
16265132677
16265139330
16265148241
16265154894
16265164049
16265171800
16265179552
16265187792
16265196642
16265201341
16265210680
16265218309
16265225572
16265232408
16265244127
16265252062
16265258165
16265264940
16265274767
16265282396
16265289049
16265296007
16265306016
16265313219
16265322923
16265330736
16265336900
16265343614
16265352220
16265358873
16265370103
16265378343
16265385789
16265392747
16265400987
16265408006
16265417222
16265424119
16265433946
16265442857
16265450730
16265458482
16265464952
16265473374
16265482652
16265487718
16265499009
16265508225
16265517014
16265521958
16265532212
16265537217
16265548325
16265553025
16265565049
16265573167
16265582078
16265588853
16265596909
16265605210
16265611314
16265621140
16265629929
16265636460
16265644517
16265652817
16265661057
16265667527
16265675828
16265684922
16265693650
16265700974
16265709275
16265717087
16265725083
16265731858
16265739731
16265744370
16265757065
16265764267
16265772751
16265779526
16265787644
16265795639
16265804062
16265809677
16265819931
16265829147
16265837265
16265843735
16265851730
16265856430
16265867538
16265872238
16265883041
16265892380
16265897812
16265900742
16265908737
16265912704
16265919479
16265925217
16265931320
16265937790
16265943893
16265949081
16265953781
16265959152
16265966293
16265971420
16265977524
16265983139
16265989181
16265993332
16265999252
16266005050
16266011581
16266016830
16266023544
16266029892
16266034652
16266040329
16266045639
16266051437
16266057479
16266063095
16266069198
16266075118
16266079940
16266085800
16266090743
16266099288
16266106063
16266112289
16266117477
16266123763
16266130050
16266134322
16266140243
16266148849
16266156478
16266161605
16266168929
16266176070
16266182540
16266187850
16266196029
16266203414
16266208907
16266214400
16266220382
16266224959
16266230453
16266236495
16266242660
16266247909
16266252974
16266258040
16266263167
16266268538
16266273543
16266278121
16266283675
16266290938
16266295394
16266301009
16266306929
16266312667
16266317244
16266325179
16266331649
16266337081
16266341597
16266347945
16266354354
16266358870
16266364730
16266371871
16266378585
16266385237
16266390669
16266395491
16266401961
16266406844
16266412520
16266418746
16266425337
16266430892
16266435286
16266441939
16266446333
16266453474
16266457808
16266464461
16266470869
16266477461
16266481917
16266487837
16266493819
16266499983
16266504622
16266511275
16266517622
16266524153
16266528609
16266536421
16266541060
16266547835
16266552412
16266559370
16266566145
16266571760
16266576338
16266582258
16266587202
16266593733
16266599653
16266605635
16266612410
16266618574
16266625044
16266630354
16266636763
16266642744
16266649275
16266653974
16266663984
16266670942
16266675947
16266679731
16266687727
16266691572
16266699323
16266703047
16266711775
16266718794
16266723493
16266730634
16266737775
16266744367
16266752180
16266759565
16266764997
16266772260
16266779279
16266785810
16266792402
16266799238
16266804121
16266809614
16266816572
16266823224
16266827314
16266834028
16266837995
16266843488
16266849164
16266854352
16266860822
16266867231
16266871991
16266877668
16266882428
16266888654
16266893171
16266900922
16266906965
16266911359
16266915998
16266923200
16266926679
16266934186
16266937726
16266945294
16266950605
16266957685
16266961164
16266968427
16266973798
16266980817
16266986554
16266993634
16266997357
16267005414
16267011273
16267016034
16267021039
16267028180
16267033734
16267040082
16267046063
16267051678
16267058453
16267067670
16267074261
16267082135
16267088727
16267099591
16267107831
16267114850
16267121442
16267130719
16267138348
16267145428
16267152386
16267162152
16267170270
16267178631
16267183514
16267193646
16267200909
16267209027
16267215802
16267226849
16267232281
16267242596
16267250408
16267256390
16267263409
16267273419
16267281353
16267290447
16267295757
16267305401
16267313336
16267322125
16267326824
16267336895
16267343792
16267354534
16267359844
16267368267
16267374920
16267385113
16267389996
16267399700
16267406414
16267416851
16267424480
16267433636
16267440777
16267450481
16267455486
16267465557
16267472881
16267482280
16267489666
16267499248
16267506084
16267512981
16267519634
16267529583
16267536541
16267545391
16267552410
16267560832
16267567790
16267576030
16267584758
16267592449
16267599101
16267608684
16267616008
16267623699
16267632365
16267639323
16267646098
16267655254
16267661967
16267669902
16267678874
16267686931
16267693767
16267701213
16267709819
16267717814
16267724956
16267733012
16267742045
16267750041
16267756755
16267765056
16267774028
16267781596
16267787577
16267796367
16267805278
16267814311
16267820903
16267828410
16267834513
16267844950
16267852030
16267861064
16267870280
16267876933
16267885600
16267892741
16267898844
16267907511
16267916178
16267923258
16267932658
16267941203
16267947611
16267955851
16267964396
16267971964
16267977824
16267987467
16267996561
16268003092
16268011576
16268017802
16268027140
16268033854
16268041849
16268051188
16268060160
16268067118
16268075785
16268082132
16268090738
16268097818
16268106485
16268112528
16268121378
16268130716
16268137247
16268146646
16268154337
16268162088
16268169229
16268177957
16268182779
16268192545
16268200052
16268208841
16268217142
16268223795
16268232034
16268243387
16268248636
16268259317
16268264383
16268275552
16268280618
16268290872
16268298685
16268308755
16268317972
16268324441
16268333413
16268339578
16268347391
16268355752
16268363321
16268372842
16268381692
16268389627
16268395852
16268403726
16268412271
16268418252
16268426004
16268435525
16268440774
16268451211
16268460183
16268466470
16268473062
16268478494
16268483376
16268489480
16268495645
16268500588
16268507852
16268511331
16268518716
16268522744
16268531106
16268537331
16268542092
16268547524
16268553323
16268557961
16268562600
16268571206
16268574685
16268582131
16268587624
16268593301
16268599404
16268603615
16268610390
16268617104
16268623940
16268629128
16268634682
16268638039
16268645852
16268652016
16268658608
16268664223
16268670388
16268676247
16268681435
16268686074
16268690834
16268696999
16268701638
16268709084
16268714760
16268720620
16268726113
16268732216
16268737465
16268743019
16268747841
16268753945
16268760536
16268765724
16268770607
16268774636
16268783852
16268787636
16268793556
16268799233
16268806618
16268810524
16268816200
16268821205
16268829384
16268834206
16268839150
16268847572
16268859779
16268876137
16268887367
16268897743
16268907631
16268916664
16268925941
16268935829
16268943458
16268951149
16268958656
16268966285
16268972511
16268977699
16268982460
16268988441
16268993080
16268998268
16269003028
16269009437
16269014625
16269019630
16269024635
16269029823
16269035011
16269040992
16269046180
16269052162
16269055458
16269062782
16269068031
16269073097
16269076637
16269083045
16269088844
16269092567
16269098792
16269103492
16269110999
16269115150
16269121131
16269126868
16269133216
16269138953
16269144080
16269149329
16269154273
16269158912
16269164405
16269170692
16269174842
16269181007
16269185096
16269189918
16269194251
16269201087
16269204200
16269212989
16269218909
16269223975
16269229651
16269233314
16269238379
16269243934
16269249793
16269256141
16269260108
16269264686
16269270972
16269276282
16269281531
16269287024
16269292945
16269297828
16269303321
16269309973
16269314185
16269320533
16269324683
16269330786
16269336829
16269342200
16269346778
16269352698
16269357337
16269363135
16269370215
16269374549
16269379859
16269385230
16269390418
16269395789
16269399878
16269406775
16269413977
16269419653
16269423987
16269430212
16269437293
16269442480
16269448950
16269454871
16269467200
16269472998
16269480688
16269488013
16269493017
16269498938
16269503943
16269509680
16269514197
16269518591
16269523718
16269528174
16269533301
16269538305
16269545141
16269549780
16269555151
16269559790
16269563879
16269570959
16269576025
16269584814
16269593054
16269600378
16269606726
16269613867
16269618200
16269628210
16269636084
16269644201
16269652807
16269658666
16269666296
16269673742
16269682287
16269687963
16269695532
16269703039
16269710058
16269715673
16269723486
16269728979
16269736669
16269742223
16269751623
16269759924
16269765905
16269773962
16269781469
16269786108
16269796056
16269804601
16269813451
16269821569
16269829625
16269836339
16269843725
16269851720
16269857274
16269865392
16269873266
16269881932
16269889928
16269896947
16269902562
16269911840
16269917333
16269925878
16269934301
16269941503
16269947789
16269955663
16269961888
16269969640
16269977452
16269985326
16269992467
16270000951
16270008153
16270017491
16270022435
16270032628
16270039098
16270046300
16270052830
16270062108
16270067174
16270078038
16270083653
16270095006
16270102147
16270109959
16270116978
16270125035
16270132054
16270140660
16270148289
16270157444
16270165074
16270175267
16270182225
16270190525
16270197606
16270206456
16270214695
16270221836
16270229100
16270239537
16270244786
16270254673
16270262364
16270268162
16270275913
16270283421
16270291233
16270297276
16270305332
16270312901
16270320286
16270326023
16270333958
16270342747
16270349705
16270358433
16270366428
16270372715
16270381260
16270387730
16270393650
16270405186
16270410679
16270420322
16270427585
16270437351
16270442295
16270451633
16270459568
16270466037
16270473423
16270484409
16270489597
16270500583
16270505771
16270514865
16270522129
16270530735
16270538486
16270547580
16270555087
16270563144
16270570102
16270578891
16270586032
16270594516
16270601962
16270610690
16270617343
16270626254
16270632541
16270641635
16270647983
16270657809
16270667880
16270675937
16270682162
16270691318
16270697543
16270705905
16270712131
16270720798
16270729342
16270737338
16270746432
16270754489
16270761081
16270769076
16270775912
16270784579
16270791598
16270800631
16270808505
16270815402
16270822299
16270830416
16270841586
16270850131
16270858737
16270866915
16270874545
16270883944
16270891879
16270898898
16270908785
16270917880
16270928072
16270935275
16270943636
16270951083
16270956881
16270962191
16270965853
16270974520
16270979342
16270984103
16270990328
16270993563
16271001925
16271007723
16271014498
16271023104
16271027682
16271034762
16271038485
16271045992
16271053560
16271057283
16271062838
16271069429
16271073824
16271078463
16271084139
16271088594
16271096590
16271100862
16271106966
16271111299
16271116671
16271122957
16271128816
16271133272
16271139376
16271146089
16271152498
16271157076
16271162447
16271168611
16271172701
16271180025
16271186311
16271190767
16271196626
16271202181
16271207674
16271212557
16271221468
16271226228
16271231355
16271236421
16271241975
16271246736
16271253633
16271257234
16271264436
16271270540
16271275362
16271279207
16271287080
16271292940
16271298555
16271306367
16271313142
16271318086
16271325288
16271332185
16271337678
16271342439
16271348359
16271355317
16271359224
16271366243
16271372468
16271377229
16271381074
16271389009
16271395784
16271404023
16271410798
16271419831
16271425447
16271431428
16271438447
16271442231
16271450715
16271455232
16271465486
16271472383
16271478608
16271485261
16271495759
16271503144
16271509614
16271516755
16271523347
16271528474
16271534821
16271540192
16271546540
16271552888
16271557709
16271563630
16271568452
16271574311
16271579255
16271584992
16271589753
16271596711
16271602265
16271607880
16271614106
16271618500
16271624299
16271629914
16271636200
16271640839
16271647431
16271652131
16271658905
16271663727
16271669159
16271676361
16271683564
16271688385
16271694428
16271699799
16271706147
16271710663
16271716523
16271723725
16271728546
16271735016
16271740387
16271746613
16271750153
16271758698
16271765167
16271769806
16271776520
16271781037
16271787750
16271792816
16271798065
16271802765
16271811127
16271816803
16271821991
16271828156
16271834686
16271840301
16271844696
16271850922
16271858185
16271865509
16271868805
16271877167
16271882660
16271888641
16271894745
16271902130
16271908050
16271915314
16271918854
16271926544
16271930145
16271937896
16271943756
16271951324
16271957733
16271963348
16271968719
16271974945
16271980987
16271985565
16271993927
16271999298
16272006439
16272011688
16272016937
16272023590
16272029327
16272033782
16272040863
16272049774
16272057769
16272065399
16272101470
16272108489
16272116790
16272123992
16272132781
16272140044
16272146819
16272154021
16272161834
16272167937
16272177154
16272184722
16272192046
16272198760
16272207976
16272214629
16272223723
16272230254
16272237456
16272244109
16272252105
16272260833
16272269011
16272275786
16272284453
16272291106
16272299590
16272306182
16272314055
16272322539
16272331389
16272338164
16272345000
16272353606
16272360198
16272368376
16272376677
16272384612
16272391814
16272399687
16272405791
16272413664
16272421294
16272429472
16272435210
16272444365
16272449065
16272460722
16272468840
16272476713
16272481474
16272491362
16272499357
16272507170
16272511870
16272522307
16272530607
16272538908
16272543791
16272554167
16272562162
16272568205
16272575773
16272585295
16272590239
16272601103
16272605680
16272617704
16272625883
16272632048
16272638761
16272650053
16272657865
16272665861
16272670561
16272681120
16272688688
16272695280
16272701994
16272712370
16272720426
16272727689
16272734281
16272743986
16272748624
16272758390
16272765958
16272775907
16272781156
16272790311
16272797880
16272806363
16272814481
16272820890
16272828153
16272840238
16272845548
16272856351
16272864530
16272872403
16272877103
16272886258
16272893766
16272904081
16272910184
16272918546
16272926908
16272933560
16272940763
16272948270
16272955838
16272964078
16272971890
16272980313
16272985135
16272995023
16273001737
16273010281
16273016995
16273027127
16273035245
16273042874
16273048184
16273057217
16273064419
16273073331
16273082608
16273088711
16273095852
16273105191
16273111661
16273120266
16273129666
16273137356
16273144009
16273153531
16273160550
16273169522
16273176175
16273185025
16273193264
16273201443
16273208950
16273218289
16273227749
16273234890
16273241238
16273250149
16273257290
16273265896
16273274441
16273281826
16273290249
16273298367
16273305019
16273313564
16273322536
16273330532
16273337307
16273347073
16273356411
16273362820
16273371609
16273380276
16273386867
16273392299
16273402248
16273411403
16273418056
16273427395
16273436062
16273441555
16273450954
16273454799
16273461574
16273465480
16273476284
16273481960
16273486599
16273493373
16273499782
16273508144
16273513393
16273519863
16273523464
16273531154
16273534938
16273543056
16273546901
16273557399
16273562648
16273570766
16273576076
16273586940
16273591029
16273599147
16273605678
16273613002
16273618617
16273626369
16273630336
16273637172
16273640651
16273647609
16273652064
16273658412
16273664088
16273670375
16273674098
16273680018
16273684657
16273691798
16273697291
16273703639
16273708095
16273714625
16273719752
16273725856
16273730311
16273735682
16273740260
16273747279
16273752833
16273759547
16273765162
16273771144
16273778163
16273783961
16273788478
16273794215
16273799952
16273807948
16273813075
16273819606
16273824916
16273832606
16273837062
16273843104
16273847437
16273854762
16273861292
16273866725
16273872767
16273876307
16273882533
16273887598
16273894068
16273899256
16273906641
16273912928
16273918116
16273923670
16273929346
16273935572
16273941187
16273946253
16273952296
16273958887
16273964808
16273971094
16273977198
16273981959
16273987879
16273992640
16274001978
16274005823
16274014185
16274019739
16274025293
16274031031
16274037134
16274043604
16274050379
16274054956
16274061853
16274067957
16274072596
16274078821
16274085169
16274092005
16274095911
16274102198
16274107141
16274113245
16274119165
16274124719
16274128870
16274137354
16274144190
16274148767
16274154260
16274160669
16274168482
16274174219
16274182214
16274188501
16274197351
16274201685
16274208398
16274212854
16274219568
16274224512
16274231042
16274237085
16274242151
16274246423
16274251916
16274257776
16274262842
16274267175
16274273218
16274279138
16274284021
16274288782
16274294275
16274298974
16274306421
16274312463
16274318567
16274325647
16274331079
16274335779
16274343164
16274348718
16274355188
16274359948
16274367761
16274374231
16274381066
16274386377
16274391503
16274396752
16274403649
16274409814
16274417260
16274423608
16274428124
16274434167
16274440576
16274446740
16274452050
16274459680
16274463159
16274470239
16274475427
16274481225
16274487206
16274492333
16274499169
16274503686
16274510766
16274515343
16274520470
16274525414
16274533227
16274537255
16274545617
16274551110
16274557091
16274560815
16274568932
16274575402
16274580895
16274584435
16274595238
16274597741
16274606896
16274612267
16274620202
16274628563
16274635643
16274645836
16274653466
16274663231
16274670189
16274675621
16274687218
16274696801
16274705529
16274711693
16274721703
16274729088
16274739037
16274744103
16274752342
16274759422
16274767662
16274777001
16274786522
16274795311
16274805748
16274813744
16274823265
16274831200
16274841087
16274848411
16274856956
16274863975
16274872825
16274879967
16274889549
16274894554
16274903831
16274910972
16274919395
16274926414
16274934898
16274942161
16274951194
16274958702
16274968650
16274976097
16274986167
16274993492
16275003990
16275012229
16275018943
16275026145
16275036033
16275043296
16275053184
16275060569
16275069236
16275076133
16275084129
16275090720
16275099754
16275106590
16275118369
16275123618
16275132529
16275139243
16275148948
16275155906
16275165061
16275171836
16275180503
16275187766
16275195762
16275202414
16275210715
16275219504
16275227683
16275234458
16275243857
16275250937
16275257834
16275266501
16275274070
16275280600
16275290122
16275296286
16275304282
16275313437
16275321677
16275327780
16275336264
16275344748
16275352744
16275359030
16275367941
16275377463
16275385153
16275391318
16275400168
16275406516
16275414694
16275422812
16275431967
16275438559
16275448080
16275454123
16275462485
16275470419
16275479025
16275485312
16275493796
16275502463
16275512045
16275518393
16275526510
16275534384
16275541891
16275550192
16275558615
16275567770
16275576315
16275582479
16275591146
16275599447
16275606588
16275615499
16275623617
16275632650
16275643148
16275649252
16275657858
16275665975
16275674764
16275681112
16275691183
16275697713
16275707418
16275713705
16275723653
16275729818
16275738058
16275745992
16275754293
16275760519
16275769735
16275777852
16275785787
16275791829
16275800313
16275808553
16275815145
16275823446
16275832174
16275840230
16275848165
16275857320
16275865743
16275872335
16275883199
16275891622
16275900594
16275909505
16275917562
16275923970
16275932332
16275941060
16275949422
16275958516
16275967854
16275974690
16275982442
16275989034
16275998128
16276005025
16276014729
16276021931
16276031148
16276038167
16276045613
16276054280
16276061421
16276066365
16276075154
16276081441
16276085591
16276091755
16276097432
16276103413
16276107991
16276115559
16276122517
16276127888
16276132710
16276139729
16276144917
16276149922
16276155110
16276161396
16276168904
16276175495
16276181904
16276187214
16276195332
16276199909
16276207783
16276214131
16276218403
16276225056
16276229450
16276235737
16276241352
16276249714
16276255634
16276261311
16276267109
16276273151
16276279377
16276284687
16276288593
16276297382
16276304157
16276312580
16276318562
16276330097
16276336994
16276341633
16276350605
16276355610
16276361591
16276365803
16276372333
16276379352
16276385151
16276391132
16276397907
16276403827
16276409992
16276415302
16276421344
16276426349
16276430805
16276440937
16276445942
16276452533
16276457111
16276463214
16276468769
16276475727
16276486347
16276491901
16276498432
16276503925
16276510578
16276514911
16276521076
16276527301
16276534625
16276539386
16276545368
16276551288
16276557147
16276561786
16276567584
16276572223
16276580768
16276586383
16276591388
16276596149
16276603656
16276606952
16276614154
16276619586
16276627093
16276633441
16276638690
16276642718
16276648028
16276653949
16276659381
16276664264
16276669757
16276675189
16276681476
16276687579
16276693866
16276699115
16276705157
16276710956
16276717242
16276723346
16276727984
16276735003
16276739459
16276745379
16276751300
16276758868
16276763263
16276770465
16276775042
16276780474
16276785357
16276792254
16276797381
16276803790
16276809588
16276815875
16276821368
16276825335
16276832171
16276836627
16276845416
16276850359
16276857745
16276863421
16276867999
16276873675
16276880633
16276887896
16276897356
16276904436
16276910540
16276916399
16276922015
16276927325
16276932757
16276937517
16276943560
16276950518
16276954973
16276961626
16276965960
16276972124
16276977740
16276983538
16276989641
16276995073
16277000078
16277005205
16277011065
16277016008
16277020159
16277027361
16277032427
16277038103
16277042803
16277048845
16277053423
16277059771
16277064409
16277072161
16277075518
16277083208
16277086626
16277094866
16277100664
16277105486
16277113054
16277118791
16277125017
16277129106
16277136064
16277140154
16277145464
16277151689
16277158830
16277164751
16277170976
16277176714
16277181535
16277186906
16277192094
16277197832
16277208452
16277213640
16277224077
16277229021
16277238908
16277245622
16277254838
16277262712
16277273027
16277283830
16277289995
16277296830
16277306291
16277313798
16277322038
16277329850
16277338334
16277346696
16277354814
16277359636
16277369218
16277376847
16277384721
16277393327
16277401628
16277410234
16277416520
16277424943
16277433061
16277441178
16277447343
16277455216
16277465409
16277471635
16277479630
16277487199
16277495255
16277503434
16277511674
16277520158
16277529618
16277537736
16277546830
16277553116
16277563370
16277572037
16277579362
16277584672
16277596512
16277603287
16277610795
16277617753
16277625199
16277631852
16277639908
16277649186
16277658524
16277665665
16277671768
16277681534
16277687638
16277697281
16277703385
16277712906
16277723770
16277731033
16277737198
16277746048
16277754288
16277761490
16277769608
16277775772
16277784073
16277792740
16277800919
16277808670
16277816788
16277823624
16277831924
16277840958
16277851883
16277860184
16277869156
16277875564
16277883621
16277891861
16277898025
16277906570
16277915054
16277922683
16277930679
16277938430
16277946548
16277953506
16277961868
16277969009
16277979019
16277988235
16277996475
16278004836
16278011123
16278019119
16278027358
16278035659
16278044631
16278052932
16278061233
16278069167
16278077285
16278083877
16278091872
16278099929
16278108291
16278117751
16278123977
16278131606
16278139602
16278147292
16278155532
16278158217
16278170913
16278180800
16278188918
16278195632
16278207656
16278215712
16278222670
16278230971
16278239577
16278248488
16278255568
16278263320
16278272170
16278279494
16278288222
16278298110
16278305739
16278314833
16278323866
16278332411
16278339003
16278347975
16278355727
16278360976
16278375868
16278384291
16278393752
16278401625
16278410292
16278418043
16278426955
16278435316
16278443129
16278451918
16278461500
16278468947
16278476759
16278484755
16278491957
16278501234
16278508864
16278516615
16278523573
16278531691
16278536757
16278545851
16278553724
16278562147
16278570082
16278578871
16278586805
16278594557
16278600355
16278611341
16278619581
16278626112
16278633131
16278638441
16278644788
16278651136
16278656812
16278662489
16278668043
16278672987
16278677869
16278683363
16278688367
16278693861
16278698865
16278703321
16278711317
16278715833
16278722242
16278726881
16278732984
16278738477
16278742872
16278751050
16278757947
16278763379
16278770154
16278775892
16278782178
16278787732
16278793409
16278799085
16278805677
16278810682
16278816663
16278821546
16278827405
16278830945
16278837842
16278841382
16278847974
16278851392
16278859510
16278863782
16278872144
16278876050
16278883191
16278887586
16278896436
16278902356
16278908765
16278915112
16278920789
16278926099
16278931287
16278936353
16278944898
16278950025
16278956860
16278961499
16278967297
16278974622
16278980359
16278986096
16278993298
16278998242
16279002270
16279011792
16279017407
16279028149
16279033154
16279040600
16279045788
16279053418
16279058301
16279064404
16279067761
16279073559
16279078747
16279086133
16279092236
16279098706
16279103589
16279109631
16279114758
16279122326
16279127270
16279131848
16279136181
16279143200
16279151074
16279156628
16279162976
16279169506
16279174328
16279179943
16279185009
16279191601
16279196911
16279202587
16279208447
16279213879
16279219494
16279221569
16279230053
16279236035
16279241039
16279247509
16279252026
16279258007
16279262341
16279265759
16279273815
16279281200
16279286449
16279292858
16279297314
16279303356
16279307629
16279310863
16279318737
16279326061
16279331676
16279335155
16279342296
16279346081
16279353710
16279359875
16279364330
16279369274
16279376110
16279381115
16279386547
16279391735
16279398754
16279403637
16279410473
16279416271
16279423290
16279428783
16279434581
16279440624
16279445568
16279451732
16279455699
16279463817
16279467845
16279475475
16279480968
16279486339
16279492748
16279498729
16279505138
16279511363
16279516551
16279521434
16279527721
16279533214
16279538951
16279544872
16279549815
16279554393
16279562328
16279567210
16279573253
16279579051
16279584727
16279588878
16279596996
16279600658
16279607677
16279615062
16279623668
16279636790
16279642345
16279647960
16279653270
16279656688
16279662669
16279669139
16279674632
16279680736
16279686900
16279693492
16279698741
16279705577
16279710032
16279717173
16279722544
16279726023
16279733958
16279738475
16279743113
16279746653
16279755442
16279759165
16279765879
16279769297
16279776499
16279779795
16279785960
16279791392
16279797862
16279803416
16279810984
16279816905
16279824412
16279832285
16279840952
16279849009
16279858469
16279866038
16279873423
16279880381
16279888865
16279896311
16279905039
16279911387
16279918101
16279927500
16279934702
16279944163
16279950449
16279958994
16279964182
16279974131
16279979990
16279990366
16279997690
16280005014
16280011911
16280019236
16280026133
16280036203
16280042978
16280050669
16280060007
16280067026
16280075693
16280082529
16280089182
16280098764
16280105356
16280113535
16280120615
16280127634
16280136606
16280143869
16280151254
16280160349
16280166330
16280172800
16280182443
16280191110
16280198617
16280207468
16280214365
16280220712
16280229318
16280236581
16280245370
16280251779
16280259042
16280267648
16280274728
16280284250
16280292367
16280298715
16280304940
16280319101
16280326608
16280335641
16280342965
16280352792
16280358529
16280370370
16280378121
16280387399
16280394906
16280407723
16280412728
16280424325
16280432565
16280439767
16280447213
16280456185
16280463448
16280473275
16280480233
16280489449
16280496102
16280503915
16280510628
16280520089
16280527230
16280537301
16280544320
16280552193
16280560799
16280567269
16280575814
16280583077
16280589119
16280597603
16280606331
16280613289
16280621956
16280628975
16280635079
16280644112
16280650460
16280661080
16280667794
16280677742
16280683724
16280693550
16280699654
16280707222
16280715279
16280723946
16280730171
16280739143
16280747322
16280753120
16280761971
16280770271
16280776436
16280783272
16280792671
16280800301
16280807320
16280814155
16280822456
16280829292
16280839607
16280846321
16280855537
16280862129
16280869636
16280875618
16280884590
16280893562
16280901497
16280908271
16280918830
16280926094
16280934944
16280941474
16280949104
16280957893
16280964485
16280973274
16280980842
16280990547
16280998298
16281004585
16281013618
16281020088
16281028205
16281035224
16281044196
16281053230
16281061530
16281067878
16281076850
16281084052
16281092292
16281100593
16281108283
16281114814
16281122993
16281131599
16281136970
16281148139
16281153327
16281163703
16281169013
16281180976
16281186469
16281197638
16281202948
16281212104
16281219550
16281229987
16281237983
16281245124
16281252265
16281260199
16281267462
16281274848
16281278510
16281285590
16281289191
16281297309
16281302191
16281308905
16281314337
16281320502
16281326911
16281331610
16281338324
16281342780
16281348761
16281355109
16281359686
16281365973
16281370795
16281375800
16281383429
16281388373
16281394781
16281401251
16281407599
16281410834
16281418768
16281422186
16281430426
16281436346
16281440558
16281446722
16281451239
16281457220
16281461676
16281469793
16281474859
16281480780
16281486151
16281491217
16281496832
16281502752
16281507635
16281514898
16281519720
16281525457
16281530523
16281536505
16281542242
16281546514
16281555303
16281560430
16281567755
16281571539
16281579168
16281582891
16281589910
16281593389
16281601690
16281606695
16281613226
16281618841
16281625066
16281630438
16281637029
16281643011
16281647344
16281654363
16281659124
16281665166
16281670782
16281676580
16281680852
16281690557
16281696966
16281703130
16281708807
16281715215
16281720403
16281726385
16281732488
16281738470
16281745977
16281752385
16281761602
16281767400
16281778264
16281785466
16281791814
16281797429
16281802739
16281807195
16281812627
16281818120
16281823430
16281829229
16281835271
16281840215
16281846379
16281851873
16281857915
16281863347
16281867925
16281878179
16281883367
16281889409
16281894231
16281900823
16281905950
16281912663
16281917485
16281925237
16281931157
16281935979
16281940862
16281946538
16281952947
16281958989
16281964299
16281971684
16281976811
16281982671
16281987675
16281994817
16282000004
16282006047
16282011052
16282017827
16282023076
16282029301
16282034489
16282041264
16282046391
16282052922
16282057866
16282063969
16282068974
16282075993
16282081852
16282087651
16282091313
16282097905
16282104496
16282110295
16282117192
16282121891
16282126957
16282133244
16282140019
16282146061
16282152897
16282156681
16282163761
16282169255
16282175114
16282180729
16282186039
16282192265
16282199345
16282205021
16282209782
16282215702
16282220524
16282226444
16282231144
16282239079
16282245121
16282250675
16282256718
16282262089
16282268436
16282274662
16282280216
16282286442
16282291813
16282296635
16282303226
16282308842
16282314945
16282319523
16282330570
16282338932
16282346256
16282351932
16282357670
16282362735
16282368595
16282373966
16282379703
16282384769
16282390079
16282396244
16282403995
16282410831
16282418216
16282423404
16282433597
16282441043
16282448795
16282454410
16282461856
16282466068
16282476749
16282484256
16282492008
16282498599
16282506473
16282511356
16282522403
16282528201
16282538944
16282544315
16282557193
16282562320
16282570987
16282577823
16282585879
16282593631
16282602725
16282611880
16282619632
16282626773
16282636477
16282643924
16282650393
16282656802
16282666873
16282674075
16282682925
16282689273
16282694461
16282705203
16282713626
16282720156
16282727114
16282736453
16282744570
16282752810
16282761233
16282769412
16282776492
16282784060
16282791140
16282800173
16282806643
16282816165
16282823367
16282831484
16282837405
16282845400
16282852847
16282859866
16282866885
16282877627
16282884646
16282892275
16282901064
16282907168
16282916201
16282921572
16282930971
16282938051
16282946474
16282953676
16282960634
16282969240
16282978823
16282985292
16282992983
16283000063
16283009890
16283016970
16283025087
16283031862
16283037172
16283049074
16283054201
16283062441
16283070070
16283077761
16283087587
16283093691
16283099916
16283110170
16283118776
16283127382
16283134828
16283143678
16283150331
16283158754
16283167238
16283173585
16283181276
16283187624
16283196168
16283203920
16283213319
16283219850
16283228029
16283236452
16283243959
16283251771
16283261049
16283266176
16283277345
16283283265
16283292176
16283298463
16283307924
16283315553
16283322755
16283331056
16283338258
16283348451
16283355531
16283362123
16283370118
16283379151
16283384217
16283393434
16283400697
16283409974
16283417481
16283426087
16283435731
16283443848
16283450501
16283460694
16283467530
16283477113
16283486146
16283494446
16283501221
16283509583
16283515626
16283523987
16283530396
16283539612
16283548218
16283555176
16283563294
16283570374
16283578675
16283586426
16283594422
16283600769
16283610657
16283616028
16283626160
16283631348
16283640625
16283647644
16283656067
16283662842
16283671448
16283678467
16283687927
16283694580
16283701660
16283710571
16283716370
16283724304
16283733276
16283740540
16283749756
16283757385
16283764832
16283771484
16283779480
16283787414
16283792663
16283803284
16283811584
16283819824
16283824768
16283834533
16283841430
16283848510
16283854614
16283862488
16283869507
16283873596
16283877563
16283884521
16283889343
16283895446
16283904968
16283911560
16283920654
16283928039
16283935974
16283940856
16283947265
16283951049
16283957275
16283962951
16283968566
16283972900
16283978759
16283982787
16283989257
16283992980
16283999206
16284004821
16284010192
16284016052
16284020507
16284026366
16284030944
16284037353
16284043822
16284048461
16284055297
16284059753
16284066100
16284071105
16284078002
16284082336
16284085754
16284094970
16284098693
16284107238
16284110839
16284118346
16284124633
16284129760
16284134765
16284142150
16284148498
16284155272
16284160766
16284167479
16284172362
16284178161
16284182860
16284191649
16284196837
16284202391
16284208739
16284214354
16284219298
16284224852
16284230834
16284232726
16284241820
16284247863
16284253722
16284259642
16284264037
16284270934
16284275389
16284281005
16284288451
16284292235
16284300292
16284304015
16284311949
16284315306
16284322203
16284328001
16284335204
16284341124
16284350035
16284354491
16284361021
16284365904
16284371397
16284377928
16284384398
16284390013
16284396361
16284401121
16284408385
16284412901
16284418150
16284424620
16284430968
16284437803
16284444029
16284448424
16284454100
16284459776
16284463377
16284471739
16284475401
16284485899
16284493528
16284501463
16284507078
16284518980
16284526915
16284535154
16284547300
16284554991
16284563230
16284570494
16284580259
16284587888
16284597837
16284610044
16284618528
16284625669
16284632749
16284640257
16284647031
16284655393
16284661375
16284673093
16284679990
16284687070
16284694944
16284703184
16284711484
16284721616
16284730100
16284737485
16284745725
16284753660
16284761716
16284769590
16284777402
16284785032
16284793088
16284801267
16284808835
16284816220
16284824216
16284830686
16284840940
16284847898
16284856259
16284863767
16284871396
16284876340
16284885861
16284893491
16284901853
16284910092
16284918271
16284926633
16284932858
16284940549
16284948605
16284956601
16284963132
16284973263
16284979855
16284988644
16284997800
16285007016
16285014279
16285024838
16285033139
16285041867
16285048092
16285058468
16285067135
16285076657
16285086605
16285093808
16285103268
16285110592
16285121762
16285131344
16285140011
16285149227
16285156002
16285166805
16285174496
16285183834
16285191158
16285200619
16285210445
16285222347
16285229183
16285245419
16285254757
16285265804
16285275875
16285286251
16285295223
16285307613
16285317867
16285328548
16285338558
16285348446
16285358516
16285371822
16285381343
16285390255
16285397945
16285407650
16285417842
16285427242
16285437435
16285446895
16285455379
16285464473
16285475154
16285484248
16285494319
16285504390
16285513850
16285524471
16285534358
16285543452
16285553279
16285563411
16285572688
16285584529
16285592403
16285603816
16285614375
16285622249
16285632686
16285643001
16285651057
16285660396
16285668696
16285680415
16285688655
16285699580
16285709101
16285718989
16285728022
16285739131
16285749079
16285758540
16285768305
16285778193
16285788264
16285795344
16285807368
16285817622
16285825861
16285836359
16285846369
16285854670
16285866267
16285874506
16285885859
16285895746
16285905085
16285914545
16285924006
16285933893
16285943476
16285952753
16285961725
16285971979
16285979853
16285990107
16286002985
16286026239
16286046137
16286062677
16286081537
16286099970
16286119684
16286140558
16286161127
16286178277
16286189813
16286198663
16286207635
16286218744
16286233209
16286246881
16286260736
16286273980
16286285821
16286293267
16286301202
16286309442
16286316095
16286323236
16286330194
16286337335
16286344415
16286351556
16286357232
16286364739
16286371026
16286377313
16286383294
16286389764
16286396417
16286403008
16286410638
16286416863
16286423028
16286429375
16286436089
16286442864
16286448846
16286459100
16286465752
16286471429
16286478814
16286484246
16286490960
16286497063
16286503777
16286507744
16286515923
16286521843
16286528008
16286534539
16286539361
16286545342
16286551568
16286555413
16286564263
16286570427
16286577446
16286584343
16286590996
16286596489
16286603142
16286609978
16286617424
16286623894
16286631340
16286638420
16286647026
16286653496
16286661125
16286668022
16286674187
16286682427
16286689079
16286696037
16286705193
16286709831
16286719048
16286724175
16286734550
16286741081
16286748833
16286756218
16286763298
16286769157
16286776604
16286782829
16286791435
16286799858
16286807365
16286813286
16286818901
16286828789
16286835258
16286843803
16286848686
16286857658
16286861564
16286869072
16286874321
16286879570
16286884330
16286891899
16286897880
16286903251
16286909660
16286915031
16286919548
16286925590
16286931327
16286936088
16286942436
16286948783
16286955558
16286961112
16286968253
16286972892
16286978019
16286984184
16286989860
16286993766
16286999381
16287003227
16287008659
16287013725
16287018363
16287022514
16287029044
16287033561
16287040214
16287045219
16287051994
16287056693
16287062369
16287067680
16287072074
16287077872
16287082999
16287088553
16287093436
16287099113
16287103568
16287109183
16287115653
16287121695
16287126151
16287132743
16287134818
16287145560
16287149466
16287155326
16287161246
16287169425
16287175162
16287183707
16287187552
16287195609
16287202079
16287208121
16287214652
16287219718
16287226554
16287233206
16287239981
16287244864
16287252310
16287257132
16287265982
16287270804
16287277640
16287284110
16287290335
16287296988
16287302115
16287308646
16287313406
16287320548
16287327261
16287331839
16287338065
16287344290
16287349661
16287355643
16287360892
16287367300
16287371817
16287377737
16287383841
16287390066
16287394461
16287400931
16287406607
16287412649
16287418326
16287423880
16287429068
16287434927
16287441092
16287446890
16287453543
16287457998
16287464834
16287469168
16287475210
16287481741
16287486868
16287492849
16287499990
16287504324
16287510549
16287517507
16287522695
16287530447
16287536184
16287543875
16287551260
16287556387
16287563223
16287567617
16287573721
16287579946
16287585256
16287589529
16287598928
16287603994
16287609975
16287616384
16287621816
16287627126
16287633352
16287639700
16287644216
16287650381
16287657156
16287661672
16287667898
16287673818
16287680166
16287684743
16287691701
16287698720
16287705190
16287709707
16287715810
16287721792
16287727224
16287733144
16287738149
16287744375
16287750844
16287755971
16287762624
16287768544
16287772023
16287779226
16287782582
16287790639
16287796315
16287801808
16287806813
16287814015
16287817739
16287824575
16287829701
16287836293
16287841237
16287848073
16287853261
16287858815
16287863942
16287869801
16287876271
16287883351
16287887929
16287893910
16287900258
16287905995
16287910817
16287917958
16287922475
16287929860
16287935902
16287941945
16287946522
16287953725
16287958485
16287962575
16287970082
16287976308
16287980824
16287986745
16287992665
16287996754
16288004078
16288007374
16288015370
16288018849
16288029774
16288036305
16288040822
16288047352
16288053273
16288058033
16288063893
16288070118
16288076100
16288081288
16288087330
16288091603
16288098927
16288103077
16288108937
16288114552
16288123524
16288129139
16288137379
16288141773
16288151051
16288157215
16288163136
16288166737
16288175038
16288180958
16288186207
16288191212
16288198231
16288203236
16288209217
16288214161
16288220570
16288227222
16288232349
16288238880
16288244495
16288249439
16288254505
16288260975
16288267872
16288272449
16288279102
16288283741
16288290882
16288295399
16288301136
16288307117
16288312794
16288318897
16288324817
16288330555
16288335804
16288341663
16288345997
16288353748
16288358020
16288365406
16288371814
16288376148
16288382312
16288388355
16288391956
16288399463
16288403186
16288410877
16288416614
16288421741
16288426624
16288433826
16288439746
16288445789
16288451648
16288458057
16288463062
16288469653
16288474475
16288480335
16288485339
16288491687
16288496631
16288502490
16288507373
16288513599
16288518298
16288523914
16288528674
16288535754
16288541492
16288550647
16288557544
16288562244
16288569507
16288574756
16288583667
16288588855
16288596301
16288600207
16288607593
16288613269
16288619128
16288624743
16288630664
16288635913
16288643237
16288649951
16288656909
16288663012
16288668261
16288675097
16288680163
16288686084
16288692919
16288700488
16288705371
16288712084
16288718798
16288726123
16288731921
16288741931
16288747363
16288754870
16288759448
16288765612
16288772204
16288777514
16288781970
16288790148
16288794482
16288800463
16288806506
16288812975
16288817370
16288824206
16288828661
16288834826
16288841540
16288847338
16288861254
16288867480
16288873156
16288878649
16288883166
16288890429
16288897570
16288903795
16288909533
16288914843
16288921557
16288927843
16288933580
16288939562
16288944933
16288950731
16288955858
16288962694
16288967882
16288974840
16288979967
16288986559
16288993700
16288999193
16289006578
16289012194
16289017198
16289023363
16289028673
16289034960
16289041185
16289046984
16289051561
16289058092
16289062914
16289067613
16289073900
16289078172
16289084642
16289091051
16289095445
16289101610
16289108080
16289113451
16289119310
16289123521
16289131212
16289137498
16289143907
16289149889
16289155931
16289160570
16289165636
16289172533
16289178087
16289183702
16289188341
16289195176
16289201341
16289208604
16289214769
16289221910
16289229600
16289235215
16289240526
16289246446
16289253831
16289261522
16289264146
16289277024
16289286729
16289294969
16289301194
16289310655
16289317735
16289324571
16289331162
16289341233
16289348924
16289359971
16289369004
16289379624
16289393235
16289400437
16289406968
16289413926
16289419419
16289427109
16289434190
16289440171
16289444504
16289450486
16289455735
16289459336
16289468186
16289471909
16289478989
16289483628
16289489182
16289492600
16289499314
16289506821
16289512253
16289518357
16289523667
16289528733
16289534653
16289541306
16289548874
16289556076
16289562546
16289568344
16289574326
16289579392
16289586960
16289591843
16289598435
16289602890
16289611740
16289616501
16289622360
16289628769
16289634567
16289639755
16289644821
16289650925
16289657150
16289663315
16289669357
16289673813
16289677963
16289686142
16289693893
16289700668
16289702560
16289713974
16289720871
16289725265
16289732162
16289737228
16289742783
16289748642
16289752365
16289760239
16289766403
16289771591
16289776779
16289782455
16289787277
16289795151
16289800277
16289806259
16289813156
16289818710
16289823044
16289830063
16289834274
16289838669
16289847946
16289856247
16289861679
16289865768
16289874618
16289879440
16289885360
16289890365
16289896774
16289901351
16289908676
16289916061
16289920761
16289927291
16289933212
16289940353
16289944869
16289951095
16289956161
16289963180
16289969589
16289974960
16289982223
16289989425
16289996261
16290003341
16290009689
16290014999
16290018417
16290025130
16290030440
16290036727
16290043380
16290050216
16290056624
16290060775
16290064498
16290071578
16290074813
16290083602
16290087813
16290094710
16290100081
16290106185
16290109908
16290116439
16290121627
16290125716
16290131270
16290139327
16290145308
16290149703
16290155501
16290161666
16290164779
16290172713
16290176375
16290184981
16290190535
16290195479
16290200606
16290206221
16290213240
16290219039
16290223494
16290230574
16290236067
16290243331
16290247786
16290253829
16290260115
16290265242
16290271101
16290277205
16290283736
16290289351
16290295638
16290302107
16290306929
16290314009
16290318770
16290326216
16290330977
16290336958
16290342207
16290348799
16290354964
16290359968
16290366377
16290369795
16290377913
16290384138
16290390425
16290396773
16290403608
16290407148
16290414351
16290420576
16290426680
16290433577
16290439558
16290445784
16290451460
16290455854
16290460981
16290465803
16290473005
16290480818
16290485273
16290491194
16290497541
16290504438
16290509443
16290517256
16290520490
16290528425
16290532270
16290539411
16290542646
16290549970
16290554060
16290561506
16290568403
16290576093
16290580671
16290588972
16290595319
16290601850
16290606977
16290613752
16290619672
16290624921
16290628278
16290635602
16290640424
16290645795
16290651288
16290657209
16290662824
16290668867
16290674970
16290679731
16290684614
16290696576
16290703168
16290710187
16290715619
16290721479
16290723615
16290731611
16290737897
16290742841
16290749921
16290755597
16290760297
16290767011
16290771100
16290776532
16290782514
16290787946
16290793561
16290801740
16290806623
16290812726
16290817914
16290824628
16290828595
16290836469
16290842267
16290847150
16290851666
16290858807
16290864484
16290870953
16290876202
16290883099
16290887921
16290893964
16290899274
16290906903
16290912762
16290916547
16290922894
16290928815
16290935467
16290940716
16290946698
16290952130
16290957257
16290965008
16290970685
16290975323
16290980694
16290987835
16290992962
16290998883
16291004681
16291010602
16291014264
16291023114
16291027142
16291034771
16291039044
16291047894
16291053082
16291058880
16291064984
16291069744
16291074688
16291080609
16291087689
16291092633
16291099041
16291103802
16291110699
16291115154
16291121807
16291126446
16291133160
16291138165
16291144451
16291149761
16291156414
16291163372
16291168865
16291173809
16291182537
16291188946
16291195782
16291203838
16291210613
16291215252
16291222088
16291227459
16291234234
16291239056
16291244976
16291251690
16291257671
16291262737
16291267925
16291274029
16291280071
16291285686
16291290264
16291296917
16291304607
16291310405
16291315410
16291322490
16291328411
16291333843
16291339153
16291346111
16291352581
16291357280
16291362102
16291367473
16291374736
16291380352
16291385967
16291391765
16291398723
16291403911
16291411113
16291415630
16291422405
16291428386
16291434856
16291439556
16291443279
16291451946
16291455852
16291463542
16291467204
16291474712
16291480876
16291486064
16291491435
16291499248
16291503703
16291509746
16291515666
16291522624
16291527263
16291531108
16291539653
16291543620
16291552714
16291556560
16291562663
16291567973
16291574443
16291579997
16291585551
16291590312
16291598979
16291603496
16291609782
16291616984
16291622661
16291627848
16291634135
16291640971
16291645060
16291653300
16291657878
16291665812
16291671305
16291677287
16291682475
16291688945
16291694743
16291702372
16291708110
16291712199
16291721293
16291725382
16291733622
16291740641
16291748759
16291752909
16291762003
16291768046
16291774882
16291779887
16291785563
16291791056
16291797404
16291802164
16291807902
16291815104
16291823527
16291829996
16291838297
16291844645
16291851969
16291857889
16291863627
16291872294
16291880411
16291886149
16291895609
16291903544
16291909586
16291914957
16291920878
16291925211
16291930521
16291935648
16291940592
16291945536
16291949869
16291954813
16291959940
16291964090
16291968607
16291972879
16291978250
16291983744
16291989115
16291994364
16291999674
16292004557
16292010172
16292015482
16292020426
16292026956
16292031778
16292038004
16292044229
16292048624
16292054422
16292058389
16292065897
16292072122
16292076517
16292081888
16292088052
16292092813
16292098978
16292102396
16292109354
16292114725
16292120523
16292125711
16292132791
16292137430
16292143716
16292148904
16292154336
16292160684
16292165994
16292172586
16292176309
16292184183
16292190713
16292199014
16292205545
16292210794
16292217630
16292222024
16292226846
16292235086
16292240640
16292246926
16292253518
16292258401
16292262124
16292269815
16292273843
16292283975
16292288430
16292294961
16292300393
16292306802
16292312417
16292318826
16292324441
16292330300
16292335549
16292342080
16292347085
16292351540
16292359963
16292365090
16292371255
16292374917
16292383462
16292387246
16292395181
16292402322
16292408791
16292414223
16292422097
16292428933
16292437661
16292445107
16292450783
16292457558
16292462319
16292468606
16292472695
16292479897
16292484658
16292491250
16292496926
16292502053
16292507729
16292512002
16292517800
16292522377
16292528786
16292534340
16292540993
16292547219
16292550576
16292557412
16292561074
16292568764
16292574501
16292578957
16292583962
16292591286
16292595253
16292602883
16292606789
16292613930
16292618691
16292624489
16292629555
16292635353
16292644203
16292649880
16292655983
16292661781
16292666542
16292673073
16292680031
16292685463
16292689919
16292695656
16292701393
16292707619
16292713661
16292715736
16292725136
16292729103
16292736793
16292740456
16292748817
16292752418
16292758644
16292764442
16292771156
16292776466
16292783241
16292788002
16292794410
16292799171
16292804420
16292809669
16292815834
16292822059
16292828346
16292834266
16292839576
16292845375
16292851295
16292855568
16292859413
16292871986
16292875465
16292883827
16292888160
16292895057
16292900978
16292907325
16292913062
16292921241
16292927406
16292933387
16292939674
16292944801
16292948280
16292955177
16292960548
16292966285
16292969764
16292978675
16293001319
16293007911
16293013831
16293020728
16293027198
16293033057
16293039771
16293047401
16293053382
16293060218
16293065528
16293072852
16293078589
16293084449
16293088965
16293094397
16293098182
16293104163
16293111182
16293117591
16293121863
16293128028
16293132239
16293137366
16293142371
16293148108
16293153235
16293158545
16293162940
16293168494
16293173133
16293180152
16293185584
16293191199
16293196875
16293201575
16293207434
16293212744
16293217993
16293221716
16293229895
16293236426
16293241309
16293247778
16293253943
16293257666
16293265601
16293273291
16293278357
16293284949
16293290198
16293298376
16293303870
16293307532
16293315161
16293319861
16293327246
16293333044
16293337744
16293343848
16293350378
16293355261
16293360998
16293366003
16293372778
16293379736
16293384619
16293390783
16293396216
16293401526
16293408789
16293414831
16293418982
16293427282
16293431189
16293437109
16293442846
16293450109
16293453894
16293463049
16293468725
16293475683
16293482153
16293487036
16293490698
16293501013
16293506323
16293512365
16293514868
16293524511
16293528295
16293536047
16293540502
16293546850
16293552831
16293557775
16293561315
16293568334
16293571996
16293579870
16293584081
16293593237
16293597021
16293603674
16293610693
16293616918
16293618932
16293628820
16293633703
16293644445
16293649938
16293658910
16293662755
16293668920
16293675023
16293681798
16293687169
16293691808
16293698583
16293704870
16293710485
16293717321
16293721898
16293728002
16293733739
16293737462
16293746495
16293750096
16293756200
16293761266
16293768102
16293774388
16293779943
16293784642
16293791783
16293796910
16293802831
16293808141
16293813817
16293819249
16293826085
16293830785
16293838231
16293844396
16293848119
16293855199
16293861485
16293867345
16293872960
16293879186
16293884984
16293890843
16293896031
16293907078
16293914098
16293918919
16293924229
16293929478
16293934849
16293942906
16293948643
16293955662
16293961766
16293967137
16293971898
16293978001
16293984715
16293990880
16293995701
16294003148
16294008397
16294012242
16294019749
16294023411
16294031834
16294036534
16294046116
16294052769
16294058018
16294061497
16294067540
16294073033
16294080174
16294084751
16294089695
16294095860
16294101841
16294107029
16294113072
16294119969
16294124302
16294130711
16294135349
16294141636
16294146885
16294152378
16294159031
16294164768
16294171543
16294179783
16294185825
16294190098
16294198215
16294205601
16294210789
16294217686
16294225498
16294231174
16294237217
16294243503
16294251072
16294260044
16294267795
16294274021
16294279819
16294288547
16294295017
16294300022
16294306125
16294310398
16294313755
16294321567
16294325290
16294332126
16294337070
16294343479
16294348911
16294353916
16294357517
16294363742
16294369052
16294375766
16294381198
16294388217
16294392795
16294400058
16294405979
16294411960
16294418308
16294423313
16294430271
16294432529
16294443454
16294447116
16294455295
16294459262
16294465976
16294471652
16294478732
16294483859
16294488376
16294492892
16294500339
16294506259
16294512668
16294517367
16294519687
16294529697
16294535495
16294542087
16294546420
16294552402
16294556430
16294564731
16294569919
16294574679
16294579867
16294588351
16294593112
16294598605
16294603732
16294610751
16294616427
16294623690
16294628573
16294635836
16294642855
16294647006
16294655795
16294660311
16294667636
16294673068
16294679904
16294686312
16294692477
16294699313
16294704501
16294709506
16294717623
16294722933
16294728549
16294735751
16294740695
16294747836
16294755160
16294760409
16294764681
16294773592
16294779574
16294784518
16294790804
16294797457
16294802523
16294809481
16294815401
16294819796
16294827303
16294833895
16294840182
16294845858
16294854220
16294859774
16294866121
16294872103
16294879122
16294885409
16294891878
16294898409
16294906588
16294914644
16294922457
16294928682
16294933382
16294941133
16294945528
16294951876
16294955904
16294964449
16294970064
16294976351
16294981478
16294987825
16294993257
16295001497
16295007112
16295013643
16295019441
16295026888
16295032991
16295038851
16295044344
16295050203
16295056368
16295064668
16295070650
16295077547
16295082002
16295089754
16295095979
16295100618
16295107149
16295112337
16295120088
16295125337
16295131013
16295137361
16295142549
16295147432
16295153657
16295160432
16295166597
16295173494
16295179231
16295182893
16295190522
16295196382
16295202363
16295207978
16295215364
16295220430
16295226472
16295235566
16295242891
16295247834
16295253205
16295258943
16295266267
16295271028
16295275300
16295283235
16295289643
16295294526
16295300630
16295305451
16295313142
16295319612
16295323945
16295332002
16295335786
16295341950
16295348054
16295355378
16295360749
16295366486
16295372773
16295378693
16295383454
16295388764
16295396638
16295401948
16295408539
