16296698087
16296703702
16296708646
16296713346
16296717618
16296722440
16296726529
16296731412
16296736417
16296741605
16296746427
16296751126
16296755582
16296760221
16296764981
16296769498
16296773160
16296778043
16296782987
16296787625
16296792447
16296796659
16296800809
16296805997
16296810880
16296816678
16296821683
16296827176
16296833218
16296840482
16296847195
16296854520
16296860318
16296866116
16296870877
16296878384
16296883755
16296890469
16296898038
16296903409
16296911282
16296918423
16296924710
16296932644
16296940518
16296951077
16296958890
16296964444
16296971768
16296978970
16296985318
16296991116
16296995999
16297003140
16297009549
16297014676
16297020962
16297029690
16297036953
16297043362
16297049832
16297055813
16297062588
16297068691
16297075039
16297081631
16297089199
16297096157
16297102932
16297109585
16297115139
16297123562
16297130032
16297136746
16297142544
16297150478
16297160854
16297165920
16297175869
16297181240
16297188991
16297198513
16297206447
16297213344
16297220058
16297229458
16297236294
16297241115
16297248989
16297256252
16297263942
16297269619
16297276333
16297285793
16297292202
16297298183
16297304836
16297312831
16297318813
16297327175
16297332607
16297339382
16297344814
16297352687
16297358852
16297364589
16297370265
16297379054
16297383083
16297390590
16297396083
16297403896
16297410915
16297417568
16297424281
16297430873
16297437709
16297442775
16297449916
16297456508
16297463344
16297469997
16297476588
16297482936
16297488795
16297495326
16297501857
16297508327
16297514064
16297520656
16297527492
16297534572
16297540309
16297547328
16297553187
16297560267
16297566371
16297571559
16297580714
16297586268
16297593409
16297598964
16297606715
16297612757
16297619715
16297626368
16297634486
16297640162
16297648036
16297655482
16297661708
16297668055
16297677638
16297684474
16297692286
16297703028
16297708705
16297717371
16297724635
16297733485
16297740076
16297747340
16297753748
16297763514
16297770594
16297776392
16297784510
16297792017
16297798487
16297810633
16297819971
16297833155
16297844080
16297852930
16297859705
16297868921
16297877527
16297883997
16297889368
16297895838
16297902796
16297909876
16297917078
16297922266
16297930017
16297935205
16297942163
16297949549
16297955713
16297962793
16297969446
16297975061
16297982874
16297988550
16297995386
16298001734
16298011072
16298014978
16298023157
16298030054
16298036707
16298040552
16298048486
16298055444
16298062036
16298068628
16298075159
16298081628
16298088403
16298095850
16298103479
16298110315
16298118555
16298123437
16298133386
16298138086
16298148340
16298156030
16298162927
16298169641
16298177881
16298184289
16298191858
16298197900
16298206018
16298210595
16298217370
16298222070
16298228906
16298233667
16298238732
16298243371
16298249658
16298253747
16298259912
16298265588
16298271386
16298277978
16298282556
16298288415
16298292443
16298301171
16298306176
16298312402
16298317346
16298324609
16298328210
16298335473
16298341088
16298346337
16298351220
16298357812
16298363183
16298370019
16298374657
16298378991
16298385277
16298390343
16298396996
16298401513
16298407494
16298412865
16298417504
16298420983
16298429650
16298433129
16298440209
16298444420
16298452294
16298458947
16298465905
16298471825
16298478051
16298483178
16298488488
16298493676
16298500328
16298505761
16298513512
16298518334
16298523888
16298528405
16298535057
16298541039
16298546105
16298550621
16298557640
16298562096
16298567040
16298571007
16298576012
16298580284
16298586144
16298592186
16298597923
16298602562
16298608238
16298611595
16298617638
16298623375
16298630089
16298635460
16298641136
16298645714
16298651085
16298656944
16298663231
16298667808
16298672813
16298680382
16298685265
16298692467
16298698997
16298703697
16298708946
16298715721
16298721397
16298725731
16298732261
16298737083
16298742332
16298749351
16298754051
16298760215
16298766441
16298772300
16298777122
16298781273
16298788780
16298792808
16298799888
16298805259
16298811241
16298816429
16298822471
16298828880
16298834983
16298839683
16298844932
16298850730
16298859031
16298864219
16298867881
16298874046
16298881187
16298885703
16298892234
16298898277
16298901817
16298908714
16298913657
16298919639
16298925193
16298933128
16298938438
16298943809
16298950217
16298955222
16298959617
16298965842
16298973167
16298979880
16298984458
16298990562
16298996238
16298998191
16299006675
16299009849
16299017844
16299022239
16299030417
16299034629
16299041221
16299049521
16299054343
16299060996
16299068381
16299076804
16299084311
16299091025
16299094321
16299102134
16299106894
16299112510
16299117270
16299124167
16299127280
16299133078
16299137595
16299143820
16299148703
16299153647
16299159018
16299165793
16299170676
16299175864
16299182089
16299186118
16299191855
16299196494
16299201254
16299209067
16299214072
16299219443
16299224081
16299230612
16299234457
16299240927
16299246848
16299253989
16299258261
16299265158
16299269369
16299275229
16299281149
16299286642
16299294760
16299300802
16299305380
16299311117
16299316916
16299322653
16299326620
16299332541
16299337118
16299344198
16299350546
16299355429
16299361715
16299366842
16299374716
16299377707
16299389608
16299398947
16299405661
16299415914
16299425131
16299433615
16299440206
16299450765
16299457479
16299469564
16299476827
16299483907
16299493307
16299500875
16299507345
16299516317
16299525228
16299532797
16299541891
16299549825
16299558431
16299563558
16299573080
16299580526
16299588888
16299596334
16299606161
16299613546
16299622335
16299629781
16299638936
16299646261
16299654989
16299661947
16299672445
16299680867
16299688375
16299694295
16299702352
16299708516
16299717610
16299726583
16299736837
16299743428
16299755635
16299762166
16299771626
16299777242
16299787923
16299797872
16299803487
16299807759
16299818135
16299825032
16299832784
16299837910
16299848470
16299855733
16299863850
16299866475
16299877949
16299886006
16299891987
16299898823
16299908650
16299913350
16299922505
16299930806
16299938923
16299943684
16299954243
16299958821
16299967854
16299976155
16299984333
16299992329
16299999958
16300004658
16300013386
16300019795
16300026387
16300034992
16300041706
16300047505
16300056111
16300061909
16300068928
16300077351
16300084797
16300090717
16300098469
16300104328
16300108723
16300119953
16300124531
16300135212
16300144733
16300152851
16300160541
16300168171
16300175800
16300184589
16300192951
16300200031
16300208027
16300214863
16300223774
16300230121
16300238056
16300246601
16300252948
16300261676
16300269672
16300276325
16300284382
16300290790
16300298297
16300306537
16300313678
16300321979
16300331378
16300338336
16300347614
16300355976
16300363117
16300369342
16300377826
16300387225
16300392108
16300403095
16300409320
16300418781
16300425983
16300434161
16300440753
16300450030
16300457599
16300466449
16300474078
16300482623
16300490008
16300498187
16300507220
16300516437
16300524188
16300531390
16300541217
16300548053
16300557757
16300564898
16300573932
16300580645
16300587420
16300594989
16300601702
16300610492
16300616778
16300625567
16300631610
16300640155
16300646380
16300654193
16300661334
16300668841
16300675189
16300683489
16300692034
16300700152
16300706683
16300713519
16300719500
16300728594
16300734820
16300743182
16300750811
16300757220
16300765337
16300773089
16300779070
16300783831
16300794390
16300798235
16300804888
16300809771
16300815508
16300821001
16300826006
16300830889
16300837420
16300843767
16300849016
16300853533
16300859819
16300864641
16300870501
16300875444
16300881243
16300886126
16300891314
16300898272
16300903093
16300908220
16300913042
16300919695
16300924395
16300930986
16300937212
16300941545
16300947527
16300952959
16300958391
16300963396
16300970537
16300976152
16300981340
16300986528
16300992082
16300998369
16301004045
16301008501
16301014543
16301019182
16301023149
16301036577
16301051958
16301064226
16301073747
16301083574
16301089555
16301096818
16301105607
16301113298
16301120866
16301125932
16301130571
16301136064
16301141191
16301146440
16301150956
16301156083
16301161027
16301165483
16301170305
16301175737
16301181718
16301187516
16301192094
16301197343
16301203202
16301209184
16301213456
16301220048
16301224565
16301230851
16301236039
16301240373
16301245744
16301250321
16301254167
16301259171
16301264665
16301269853
16301274064
16301280229
16301284867
16301290055
16301292802
16301299027
16301304154
16301308488
16301311051
16301317216
16301320145
16301326554
16301329606
16301335954
16301341630
16301345292
16301349870
16301355546
16301360429
16301364152
16301368790
16301375931
16301381058
16301386979
16301390458
16301397050
16301400284
16301408951
16301414750
16301420365
16301424149
16301429520
16301435196
16301440384
16301444840
16301451493
16301456559
16301461014
16301466446
16301473099
16301477982
16301483719
16301489518
16301493912
16301498001
16301503922
16301510941
16301517472
16301521988
16301528031
16301532608
16301538712
16301543717
16301550247
16301557755
16301564652
16301569718
16301574600
16301580582
16301586258
16301591080
16301597611
16301602249
16301610428
16301617264
16301621964
16301625809
16301634171
16301636307
16301645096
16301650284
16301657852
16301662369
16301669571
16301674698
16301680923
16301686661
16301690933
16301698257
16301704056
16301708816
16301715469
16301725418
16301730850
16301735122
16301743667
16301752945
16301759475
16301766372
16301772537
16301778518
16301783767
16301788833
16301795120
16301799697
16301804153
16301810623
16301815994
16301821182
16301826492
16301831314
16301838027
16301843093
16301847854
16301853042
16301857742
16301864211
16301868606
16301874526
16301879226
16301890212
16301894851
16301901809
16301906204
16301913467
16301919204
16301923843
16301929824
16301936782
16301944228
16301952163
16301956802
16301966384
16301970840
16301981277
16301990005
16301998000
16302006118
16302013442
16302022170
16302028579
16302037490
16302044204
16302054030
16302060683
16302069472
16302077285
16302083815
16302092726
16302097426
16302108474
16302115920
16302123610
16302130690
16302138198
16302145339
16302151137
16302159682
16302167616
16302175185
16302184767
16302192702
16302200636
16302206618
16302214430
16302220534
16302229689
16302239027
16302243849
16302253859
16302259962
16302268141
16302274550
16302280897
16302290053
16302297377
16302303541
16302311903
16302318312
16302325331
16302333204
16302339857
16302346571
16302355848
16302363173
16302370924
16302380323
16302388441
16302396070
16302405775
16302413526
16302427503
16302433912
16302442518
16302450208
16302457838
16302467970
16302473341
16302484266
16302491956
16302500196
16302507642
16302515638
16302520277
16302531080
16302539564
16302545423
16302552808
16302560621
16302567640
16302577039
16302583997
16302592298
16302600171
16302609083
16302615980
16302624585
16302631788
16302638562
16302647535
16302654004
16302660535
16302670728
16302677442
16302685498
16302691358
16302698987
16302704419
16302713086
16302719007
16302728406
16302734632
16302742505
16302747876
16302755139
16302762280
16302770581
16302777478
16302786633
16302795239
16302803479
16302809399
16302813977
16302823743
16302832471
16302840771
16302846143
16302856702
16302861401
16302871045
16302877942
16302885205
16302892102
16302899243
16302907910
16302915722
16302923962
16302930127
16302938000
16302945019
16302952771
16302960156
16302969250
16302978833
16302985241
16302989697
16303000622
16303005200
16303016064
16303023754
16303030163
16303037976
16303047253
16303054150
16303063000
16303069409
16303076672
16303082897
16303092480
16303098949
16303108349
16303114819
16303122448
16303130444
16303137157
16303145275
16303149975
16303159984
16303169567
16303175793
16303180309
16303191906
16303202892
16303211986
16303220958
16303227794
16303240612
16303249218
16303257640
16303264965
16303273571
16303278759
16303288219
16303296703
16303304637
16303312206
16303318492
16303325328
16303329906
16303335094
16303341258
16303346935
16303352428
16303358409
16303363475
16303369212
16303374156
16303379649
16303385997
16303391917
16303397167
16303402049
16303405528
16303412669
16303416331
16303423106
16303427257
16303435619
16303439769
16303446117
16303449901
16303455882
16303460765
16303465709
16303472545
16303479198
16303484569
16303489390
16303494823
16303500987
16303505626
16303511180
16303516551
16303522288
16303527659
16303534678
16303538035
16303544200
16303548411
16303553904
16303560191
16303565806
16303569590
16303576548
16303580333
16303586253
16303589976
16303596995
16303603282
16303608287
16303612925
16303618113
16303622996
16303627696
16303630808
16303639781
16303645884
16303654063
16303660227
16303667002
16303671946
16303677561
16303683177
16303688914
16303695628
16303700083
16303705088
16303711314
16303714793
16303722300
16303726145
16303733958
16303740610
16303745920
16303752573
16303757456
16303763865
16303770640
16303774851
16303782236
16303790781
16303797007
16303803171
16303808542
16303817026
16303821787
16303829538
16303835276
16303844187
16303849802
16303855661
16303860361
16303865427
16303869944
16303876535
16303881906
16303890757
16303894968
16303899546
16303905771
16303911142
16303915476
16303920969
16303927317
16303932138
16303937387
16303942209
16303947763
16303949777
16303958750
16303962351
16303968332
16303975412
16303980722
16303986032
16303990183
16303997018
16304002023
16304006296
16304012338
16304018442
16304024240
16304029733
16304031808
16304039804
16304046213
16304052621
16304054513
16304062692
16304067270
16304073434
16304076852
16304083505
16304088510
16304094491
16304099130
16304103952
16304108774
16304115671
16304120736
16304126596
16304130868
16304137033
16304142099
16304145395
16304152902
16304157052
16304162790
16304168893
16304174081
16304178781
16304184457
16304189706
16304195443
16304201425
16304207833
16304212472
16304218942
16304224069
16304230966
16304236032
16304241403
16304247689
16304253304
16304258187
16304264169
16304268807
16304276376
16304281320
16304284676
16304292794
16304297921
16304304208
16304309457
16304317086
16304323251
16304327889
16304332406
16304339181
16304344674
16304351388
16304355965
16304361336
16304369881
16304377328
16304383675
16304393929
16304399544
16304407235
16304413582
16304418465
16304425850
16304430245
16304435738
16304439888
16304446480
16304450631
16304456795
16304461434
16304469857
16304475777
16304483590
16304491280
16304496773
16304504402
16304511299
16304520882
16304525460
16304534859
16304541329
16304549690
16304557381
16304565193
16304571968
16304581184
16304587227
16304595161
16304601997
16304610237
16304616890
16304626717
16304633125
16304641853
16304650642
16304653633
16304665108
16304670418
16304682442
16304687935
16304698433
16304703865
16304713630
16304720710
16304730171
16304737434
16304745857
16304752876
16304761482
16304770027
16304777290
16304785713
16304793952
16304800483
16304808540
16304817146
16304826057
16304833137
16304840400
16304849006
16304856086
16304865363
16304872016
16304881355
16304887946
16304897163
16304903388
16304912605
16304919074
16304928168
16304934516
16304942878
16304951423
16304959052
16304967963
16304976264
16304982978
16304994208
16305000556
16305009345
16305019599
16305029120
16305035590
16305043097
16305052008
16305057135
16305067023
16305074652
16305083441
16305091559
16305100653
16305107855
16305118170
16305125434
16305134223
16305143378
16305150824
16305162055
16305169745
16305182501
16305190497
16305199042
16305205450
16305213080
16305222052
16305227423
16305239020
16305243964
16305254889
16305259527
16305269659
16305274420
16305284918
16305292975
16305300604
16305307440
16305314642
16305321173
16305329962
16305336554
16305344183
16305353094
16305362066
16305368658
16305375067
16305380499
16305388128
16305395391
16305403265
16305409002
16305417120
16305424871
16305432318
16305438177
16305446478
16305454290
16305460760
16305468572
16305476263
16305483831
16305489446
16305496709
16305502020
16305511358
16305515447
16305525274
16305535039
16305540899
16305545293
16305557012
16305561834
16305572576
16305580083
16305586431
16305595403
16305605230
16305612554
16305619573
16305628179
16305635015
16305643255
16305653325
16305660772
16305670659
16305677983
16305685979
16305691716
16305700383
16305706304
16305713933
16305722478
16305731389
16305740117
16305747930
16305755742
16305761357
16305769597
16305774419
16305785283
16305795781
16305805241
16305815617
16305829045
16305840031
16305852360
16305861760
16305873112
16305882878
16305890996
16305900090
16305907170
16305913701
16305922368
16305928410
16305931889
16305939335
16305945683
16305950749
16305955815
16305963871
16305971379
16305979191
16305985173
16305992314
16305998600
16306004154
16306012882
16306019169
16306024418
16306029240
16306035771
16306039921
16306045048
16306049748
16306053654
16306057865
16306063236
16306067448
16306073002
16306078434
16306083012
16306088261
16306093449
16306098270
16306102360
16306108097
16306114689
16306120487
16306125797
16306131107
16306135075
16306140263
16306144230
16306149357
16306155582
16306160892
16306166813
16306168522
16306177677
16306183353
16306187198
16306192325
16306196598
16306204105
16306209293
16306216190
16306220768
16306224247
16306233341
16306239383
16306244205
16306251102
16306255924
16306261295
16306268497
16306275028
16306279361
16306283939
16306289371
16306295902
16306301761
16306306644
16306311466
16306315738
16306321659
16306328128
16306333804
16306338687
16306346195
16306350833
16306354556
16306361820
16306365299
16306371707
16306377383
16306383365
16306388431
16306393497
16306399234
16306404666
16306411685
16306416324
16306420901
16306427005
16306431888
16306439700
16306444949
16306450625
16306454776
16306460940
16306465945
16306472110
16306479190
16306484622
16306489139
16306496768
16306501407
16306507266
16306511660
16306517947
16306525332
16306533450
16306539126
16306544986
16306552371
16306564822
16306572818
16306579715
16306583010
16306590640
16306594180
16306601443
16306606509
16306611575
16306616763
16306621096
16306626956
16306632083
16306636233
16306640444
16306646243
16306652407
16306658206
16306663760
16306670901
16306674868
16306682009
16306686892
16306691470
16306696658
16306702517
16306707278
16306711977
16306717287
16306721438
16306726199
16306730349
16306736391
16306740969
16306746340
16306751162
16306755678
16306759890
16306765627
16306770510
16306777468
16306781985
16306787661
16306791811
16306797548
16306801638
16306807436
16306813784
16306820742
16306824953
16306830019
16306834597
16306839418
16306844118
16306849550
16306853579
16306859926
16306864565
16306869997
16306875063
16306880983
16306885012
16306891725
16306899355
16306904238
16306909426
16306913881
16306919496
16306924013
16306930666
16306935549
16306941652
16306946657
16306951235
16306957033
16306960634
16306966921
16306970644
16306977968
16306985292
16306990053
16306993654
16307000856
16307004457
16307011293
16307018983
16307027101
16307035585
16307044252
16307051820
16307059511
16307069093
16307077821
16307090028
16307097596
16307108705
16307121095
16307130738
16307138063
16307143617
16307153871
16307163514
16307171510
16307179689
16307185548
16307194276
16307200379
16307207765
16307216432
16307225038
16307231751
16307239930
16307246095
16307254334
16307261842
16307269227
16307276185
16307286561
16307293824
16307300904
16307306824
16307315858
16307321656
16307330628
16307339417
16307346985
16307354188
16307360840
16307366883
16307375367
16307381043
16307389893
16307396729
16307405640
16307410950
16307419373
16307425782
16307434998
16307439759
16307448609
16307455628
16307463929
16307470642
16307478089
16307485047
16307493592
16307500672
16307508911
16307516297
16307525086
16307532288
16307538880
16307545715
16307553772
16307559692
16307567871
16307576904
16307585022
16307590149
16307599304
16307606079
16307614319
16307621460
16307629272
16307637268
16307645996
16307651550
16307663757
16307668640
16307677673
16307686462
16307692627
16307703003
16307711609
16307718383
16307724548
16307733459
16307741699
16307749328
16307757812
16307765991
16307772766
16307781616
16307787841
16307795349
16307804626
16307811584
16307820861
16307830444
16307837646
16307852233
16307861877
16307868163
16307880981
16307891967
16307901122
16307908813
16307915893
16307926330
16307931335
16307941894
16307946837
16307957030
16307964293
16307971496
16307977843
16307984679
16307994262
16308001403
16308008178
16308016967
16308023558
16308032592
16308040282
16308046080
16308054259
16308059874
16308075316
16308084288
16308090636
16308095030
16308107054
16308113097
16308121886
16308130065
16308135985
16308144713
16308154723
16308163573
16308170287
16308178282
16308186522
16308191771
16308203429
16308208617
16308218809
16308226927
16308234862
16308242186
16308250609
16308256346
16308267393
16308273070
16308282530
16308289549
16308297239
16308304564
16308312925
16308320494
16308330259
16308337767
16308346067
16308353575
16308362120
16308369078
16308377317
16308384092
16308389768
16308394773
16308402281
16308408628
16308412290
16308418150
16308423643
16308429563
16308436216
16308443296
16308448179
16308454099
16308458860
16308464414
16308470579
16308475401
16308481382
16308486631
16308493772
16308500669
16308505857
16308511777
16308516843
16308523191
16308527952
16308533933
16308541196
16308547422
16308551694
16308557554
16308561277
16308569639
16308575864
16308583310
16308592161
16308599485
16308606565
16308611570
16308618406
16308623349
16308629697
16308636045
16308642087
16308647214
16308652341
16308657651
16308663144
16308667417
16308673398
16308677793
16308684384
16308689145
16308695798
16308701596
16308703671
16308711850
16308715451
16308723325
16308728208
16308735532
16308741635
16308747189
16308751889
16308757626
16308762021
16308768002
16308779538
16308784787
16308790952
16308796078
16308800778
16308807309
16308811642
16308818295
16308822995
16308827817
16308835812
16308839902
16308845883
16308851803
16308857113
16308861935
16308868588
16308875302
16308881833
16308885373
16308892697
16308898861
16308904232
16308908810
16308913815
16308919491
16308926388
16308932553
16308938229
16308942501
16308947262
16308953366
16308959469
16308964474
16308972103
16308977169
16308984432
16308989926
16308995541
16309000180
16309006283
16309011044
16309017574
16309024410
16309028927
16309034725
16309039547
16309045467
16309049740
16309054195
16309062679
16309068417
16309074154
16309080441
16309086483
16309093197
16309100277
16309106991
16309115108
16309120785
16309129574
16309135982
16309142879
16309147945
16309155208
16309160641
16309170467
16309175594
16309185360
16309189571
16309198482
16309205745
16309211910
16309217098
16309225460
16309230037
16309236263
16309241939
16309249080
16309254634
16309260189
16309264949
16309270198
16309275020
16309280696
16309285579
16309292354
16309298152
16309302486
16309309505
16309314144
16309318294
16309324153
16309328426
16309333614
16309339229
16309343623
16309347713
16309354610
16309359248
16309362727
16309370601
16309374202
16309380794
16309384273
16309391048
16309398311
16309403804
16309409663
16309416926
16309422847
16309430049
16309434199
16309442683
16309445125
16309452998
16309457210
16309463374
16309468684
16309474482
16309479182
16309483760
16309489375
16309497615
16309502620
16309509028
16309514705
16309519099
16309525447
16309527400
16309534236
16309540828
16309545466
16309549067
16309557795
16309561213
16309568110
16309574397
16309581782
16309589472
16309597285
16309604182
16309614314
16309621272
16309627802
16309635554
16309640925
16309652094
16309658137
16309669978
16309675166
16309684321
16309689631
16309700678
16309705134
16309715998
16309722407
16309731440
16309736506
16309745478
16309752619
16309761347
16309766718
16309776056
16309783198
16309791132
16309798029
16309806086
16309814264
16309823603
16309832758
16309846186
16309859064
16309867670
16309875788
16309884210
16309893610
16309898676
16309907465
16309914240
16309922418
16309930170
16309935785
16309943292
16309950739
16309955377
16309964960
16309973444
16309981744
16309989008
16309997064
16310005243
16310011407
16310019769
16310027093
16310034662
16310040460
16310049798
16310056512
16310065301
16310072442
16310079828
16310089166
16310097223
16310104852
16310112725
16310120355
16310127252
16310133233
16310139642
16310150140
16310156060
16310164361
16310173150
16310180657
16310189141
16310195855
16310205743
16310212396
16310220635
16310228570
16310237420
16310246270
16310253106
16310263848
16310271478
16310278741
16310285577
16310297601
16310302605
16310313531
16310321587
16310328728
16310337334
16310343865
16310353631
16310360833
16310369317
16310378167
16310385918
16310394463
16310401360
16310411370
16310419548
16310425164
16310433342
16310441948
16310449456
16310457024
16310465264
16310473198
16310482109
16310491570
16310500542
16310508293
16310516655
16310523491
16310530083
16310539604
16310547295
16310556938
16310567314
16310576714
16310583611
16310590630
16310601067
16310612480
16310618889
16310627922
16310635734
16310644462
16310650505
16310657341
16310668693
16310676506
16310686149
16310693779
16310702324
16310708915
16310715568
16310724662
16310732719
16310740470
16310748466
16310753654
16310763114
16310771965
16310779777
16310787712
16310795463
16310803764
16310810539
16310822135
16310830863
16310839103
16310846244
16310855705
16310861808
16310870902
16310877982
16310886588
16310895377
16310903983
16310910758
16310916495
16310922843
16310928031
16310935233
16310939994
16310945304
16310946891
16310956046
16310961600
16310966422
16310973441
16310978629
16310984794
16310989188
16310994864
16311000174
16311007682
16311014090
16311019584
16311024955
16311030570
16311035514
16311041495
16311046988
16311052298
16311057913
16311065482
16311071524
16311076346
16311081412
16311087393
16311091605
16311099173
16311105887
16311110892
16311116812
16311123160
16311125662
16311132498
16311136038
16311143607
16311150626
16311155264
16311160391
16311165701
16311171194
16311177969
16311185355
16311192374
16311198477
16311205130
16311211600
16311217764
16311221548
16311229849
16311234366
16311239554
16311245840
16311251211
16311257254
16311262320
16311268301
16311272024
16311279348
16311285025
16311289663
16311295034
16311299978
16311305716
16311310171
16311314138
16311320913
16311325979
16311330191
16311335440
16311341055
16311348318
16311353323
16311359487
16311364248
16311369314
16311375784
16311381155
16311386770
16311393179
16311398245
16311403982
16311409048
16311414480
16311418691
16311424368
16311428335
16311433767
16311441457
16311447866
16311452627
16311458730
16311463552
16311469839
16311474050
16311478750
16311485464
16311491018
16311497365
16311501821
16311507009
16311511526
16311518362
16311523916
16311530141
16311534780
16311542837
16311546987
16311553335
16311558645
16311565542
16311571767
16311576772
16311582265
16311589589
16311594472
16311600393
16311607473
16311612539
16311616933
16311622976
16311627553
16311635183
16311640126
16311646352
16311651784
16311656728
16311661855
16311668996
16311673329
16311678395
16311685353
16311692555
16311700673
16311705190
16311712392
16311717763
16311724904
16311729543
16311738698
16311744069
16311749745
16311758473
16311766469
16311772511
16311778920
16311785695
16311793751
16311798695
16311805592
16311809621
16311817738
16311823720
16311827748
16311835316
16311841176
16311845143
16311850331
16311855641
16311860585
16311864796
16311870167
16311876393
16311882069
16311887013
16311892201
16311897572
16311903065
16311907216
16311913258
16311919423
16311925404
16311930287
16311936512
16311940541
16311946095
16311950184
16311956288
16311962208
16311966603
16311973561
16311979298
16311983814
16311989369
16311994801
16311998097
16312004872
16312011158
16312017079
16312022328
16312028187
16312031605
16312039356
16312046192
16312054737
16312063648
16312070362
16312077503
16312085743
16312093250
16312102711
16312109974
16312116382
16312126026
16312133472
16312140369
16312149524
16312156543
16312164905
16312176441
16312184681
16312191578
16312201343
16312208606
16312215625
16312223987
16312230152
16312239246
16312246387
16312253223
16312264942
16312271900
16312278797
16312287219
16312294971
16312301563
16312309802
16312319019
16312326160
16312336231
16312344165
16312351550
16312359302
16312364062
16312374194
16312381824
16312390063
16312396716
16312405933
16312412524
16312421252
16312427905
16312440234
16312447192
16312457263
16312465503
16312475207
16312483569
16312492358
16312500110
16312509265
16312517504
16312527331
16312534228
16312541796
16312547961
16312557482
16312565051
16312571581
16312578478
16312588244
16312595202
16312602953
16312609667
16312618578
16312625231
16312632555
16312642199
16312650683
16312657702
16312665514
16312671496
16312679797
16312689074
16312696825
16312706957
16312714220
16312721300
16312729845
16312739977
16312747484
16312754137
16312762438
16312770067
16312778795
16312786058
16312794176
16312801806
16312809618
16312818956
16312827196
16312836046
16312843859
16312851732
16312859789
16312866381
16312875170
16312882982
16312891832
16312899584
16312906542
16312914110
16312923876
16312931017
16312938646
16312945970
16312955309
16312960435
16312969896
16312977220
16312984972
16312991746
16313001390
16313006822
16313016588
16313021470
16313032579
16313042100
16313048387
16313057237
16313064866
16313072252
16313082383
16313089708
16313096910
16313103807
16313113267
16313119859
16313129136
16313138047
16313145310
16313154100
16313162461
16313169053
16313179185
16313185960
16313194261
16313201646
16313209397
16313217332
16313225205
16313234116
16313241380
16313253831
16313260850
16313269944
16313278733
16313287156
16313297044
16313304795
16313311631
16313320115
16313328660
16313335801
16313342759
16313351243
16313357468
16313365159
16313373520
16313379380
16313387497
16313394394
16313402207
16313410202
16313416611
16313425583
16313432053
16313440415
16313446396
16313453720
16313462326
16313467148
16313477036
16313483689
16313487839
16313492478
16313499008
16313504196
16313509689
16313513657
16313521225
16313526840
16313531601
16313536118
16313543320
16313548325
16313551620
16313559372
16313565720
16313570785
16313574936
16313583054
16313586655
16313593918
16313599289
16313605392
16313610214
16313616562
16313621261
16313626938
16313632980
16313638534
16313643051
16313646774
16313655075
16313658737
16313665939
16313673935
16313679916
16313684921
16313690170
16313694625
16313702316
16313707260
16313713424
16313718185
16313724594
16313729293
16313736129
16313740707
16313746871
16313752304
16313757980
16313764327
16313771041
16313777145
16313782150
16313788253
16313793807
16313799972
16313804550
16313810958
16313816085
16313820785
16313826888
16313830734
16313839339
16313842757
16313849471
16313854781
16313861617
16313868087
16313875655
16313880660
16313887130
16313892318
16313897872
16313903487
16313912704
16313918380
16313926620
16313933394
16313939315
16313949264
16313954757
16313960982
16313967757
16313973739
16313978194
16313985335
16313989913
16313997054
16314001387
16314006758
16314011824
16314020003
16314024581
16314031478
16314035506
16314041426
16314045088
16314050032
16314055220
16314061080
16314065169
16314070174
16314073897
16314079939
16314085799
16314090682
16314094527
16314098494
16314106856
16314112227
16314117781
16314122359
16314127669
16314131026
16314138289
16314142012
16314149336
16314152388
16314159407
16314164290
16314169173
16314173933
16314179182
16314185103
16314190840
16314197127
16314201277
16314207503
16314211104
16314216841
16314222700
16314227278
16314233259
16314238936
16314240767
16314248396
16314252607
16314259443
16314263289
16314275435
16314284651
16314294416
16314305220
16314312056
16314321333
16314328474
16314336042
16314345075
16314353376
16314363325
16314372541
16314379865
16314386884
16314394819
16314401411
16314410139
16314417341
16314425703
16314434614
16314442121
16314450544
16314458540
16314466596
16314475690
16314483381
16314490217
16314500043
16314507917
16314515912
16314524213
16314532270
16314543256
16314551984
16314561933
16314570600
16314580243
16314590619
16314598920
16314609601
16314617414
16314624128
16314632184
16314639386
16314648847
16314653729
16314664044
16314671796
16314679791
16314688336
16314696149
16314705609
16314711896
16314720807
16314729535
16314737103
16314744000
16314752789
16314759991
16314771832
16314782513
16314792096
16314801556
16314808697
16314821271
16314829449
16314841473
16314851422
16314862042
16314868268
16314881756
16314888104
16314902081
16314912396
16314922589
16314930584
16314940228
16314949871
16314957012
16314969158
16314976360
16314986309
16314996868
16315007305
16315016583
16315027935
16315036663
16315046856
16315055096
16315066082
16315074688
16315083538
16315093304
16315100506
16315110149
16315120952
16315134258
16315143291
16315152141
16315159465
16315170208
16315179485
16315190105
16315199565
16315209087
16315218853
16315228313
16315237834
16315246685
16315256023
16315265605
16315275127
16315283855
16315294292
16315302043
16315314433
16315322917
16315333110
16315341167
16315353069
16315361552
16315374675
16315380473
16315393169
16315405925
16315417338
16315427653
16315446879
16315455241
16315467265
16315477153
16315491435
16315501384
16315510966
16315521586
16315532084
16315541972
16315550028
16315560099
16315568949
16315581767
16315589823
16315602030
16315611430
16315621012
16315626749
16315638163
16315648417
16315659159
16315676005
16315691569
16315714274
16315735087
16315747782
16315758158
16315768534
16315780375
16315789042
16315795511
16315802530
16315810404
16315817728
16315824015
16315831705
16315839029
16315845011
16315851847
16315859842
16315866129
16315872537
16315878946
16315883280
16315892252
16315898599
16315905557
16315912882
16315919595
16315923441
16315932413
16315936136
16315946390
16315953287
16315961465
16315969034
16315977273
16315984170
16315991067
16315998514
16316002847
16316010599
16316015603
16316024148
16316031228
16316036050
16316043985
16316050332
16316058023
16316064798
16316071328
16316076516
16316084207
16316091348
16316097696
16316105142
16316114175
16316120523
16316128945
16316137124
16316144815
16316151223
16316158242
16316163980
16316171548
16316177285
16316185647
16316194192
16316201821
16316210671
16316218789
16316226479
16316236245
16316244546
16316254189
16316262185
16316269265
16316275918
16316282693
16316290200
16316296059
16316303628
16316311623
16316318703
16316324380
16316332985
16316339272
16316346962
16316352700
16316358742
16316363625
16316368874
16316373452
16316377968
16316383767
16316388466
16316393288
16316398842
16316403481
16316409096
16316413613
16316419960
16316425026
16316431313
16316435280
16316441994
16316447914
16316453774
16316459694
16316464394
16316469093
16316475746
16316479897
16316486122
16316490212
16316496742
16316503273
16316509621
16316514626
16316521645
16316525856
16316533791
16316537758
16316544777
16316548134
16316554420
16316560707
16316565407
16316573097
16316578224
16316584877
16316589455
16316595131
16316599525
16316605568
16316609535
16316616554
16316621132
16316625892
16316631996
16316635719
16316645607
16316650123
16316657020
16316662758
16316670326
16316674049
16316681495
16316686195
16316690590
16316695045
16316701088
16316707679
16316713111
16316717811
16316723487
16316728553
16316733924
16316739356
16316744239
16316749244
16316756874
16316762672
16316767677
16316773231
16316776893
16316783912
16316790138
16316797157
16316801734
16316810951
16316818763
16316825050
16316831092
16316837074
16316842200
16316847999
16316853980
16316859717
16316864295
16316869422
16316874976
16316880164
16316885840
16316892249
16316899268
16316902686
16316910254
16316913611
16316921058
16316928016
16316932715
16316940467
16316945533
16316950232
16316956092
16316961646
16316966224
16316971961
16316976844
16316985083
16316991248
16316996253
16317000769
16317007056
16317012305
16317015540
16317023658
16317030493
16317035620
16317041663
16317047278
16317052039
16317058508
16317063330
16317068579
16317074927
16317079993
16317084754
16317090308
16317095129
16317100989
16317105017
16317111853
16317117590
16317122656
16317127722
16317132483
16317138708
16317143347
16317148657
16317154822
16317162085
16317168616
16317173682
16317178625
16317182593
16317190954
16317194678
16317201941
16317209753
16317214697
16317219946
16317226904
16317230505
16317237951
16317242651
16317249426
16317254919
16317263098
16317269079
16317273352
16317278906
16317284399
16317290136
16317296606
16317302710
16317309545
16317316992
16317322241
16317328588
16317333471
16317339880
16317344518
16317350622
16317355505
16317362463
16317369177
16317376501
16317382360
16317390417
16317395788
16317401952
16317408788
16317416540
16317425512
16317430761
16317436864
16317442846
16317448278
16317453649
16317461339
16317467260
16317474523
16317482274
16317487707
16317490941
16317501439
16317509679
16317517492
16317526098
16317533910
16317540075
16317547704
16317554784
16317562658
16317571202
16317577733
16317586766
16317593846
16317600682
16317604589
16317613134
16317622106
16317629552
16317636144
16317644139
16317652135
16317659703
16317667150
16317675939
16317686192
16317692113
16317701390
16317707860
16317715367
16317723668
16317730382
16317737157
16317747411
16317754613
16317761021
16317769200
16317774266
16317782262
16317790684
16317797398
16317805150
16317813695
16317820591
16317827916
16317833958
16317843297
16317851353
16317858738
16317865635
16317872837
16317879612
16317886937
16317894078
16317904087
16317912632
16317919468
16317926731
16317933689
16317941990
16317950413
16317959385
16317969456
16317977085
16317984104
16317991428
16318000218
16318006260
16318016026
16318023350
16318032444
16318037083
16318046360
16318056309
16318062900
16318073582
16318083347
16318092991
16318100315
16318108921
16318119968
16318126316
16318136142
16318143955
16318151340
16318157627
16318165866
16318172092
16318180637
16318189182
16318197483
16318201816
16318211032
16318218479
16318225742
16318230075
16318242343
16318248813
16318256565
16318263400
16318269077
16318277927
16318285068
16318290378
16318300937
16318309116
16318318088
16318324924
16318332858
16318340427
16318348910
16318355319
16318364413
16318373141
16318378696
16318387240
16318394198
16318401523
16318410251
16318417575
16318425570
16318433200
16318440097
16318446444
16318456637
16318466891
16318474704
16318482577
16318488314
16318496310
16318504672
16318510531
16318519442
16318527682
16318537509
16318545504
16318552401
16318559298
16318566866
16318573397
16318582308
16318592135
16318599520
16318609713
16318617220
16318623385
16318631503
16318639193
16318648043
16318654879
16318661349
16318669283
16318675570
16318685457
16318695955
16318704745
16318712374
16318718294
16318726656
16318732943
16318741915
16318751314
16318759188
16318769320
16318778780
16318786287
16318791597
16318798983
16318804476
16318813570
16318819490
16318827303
16318835420
16318841036
16318846407
16318852083
16318860262
16318865083
16318870577
16318876863
16318881868
16318886690
16318892244
16318897188
16318904207
16318909090
16318914217
16318919160
16318924287
16318931428
16318938631
16318944795
16318952669
16318961397
16318970918
16318980440
16318989290
16319000947
16319008699
16319019319
16319026948
16319036714
16319043855
16319052217
16319059358
16319067842
16319074189
16319079133
16319083589
16319089509
16319094575
16319099519
16319105317
16319110566
16319115144
16319121919
16319126191
16319132539
16319136689
16319142365
16319146882
16319154389
16319158906
16319164460
16319169953
16319174897
16319180818
16319186921
16319191377
16319194917
16319202424
16319208955
16319213776
16319218720
16319225312
16319230744
16319236848
16319241791
16319246369
16319251191
16319262849
16319270112
16319277497
16319282990
16319290253
16319296967
16319302765
16319309174
16319313935
16319318696
16319323945
16319329499
16319333893
16319339203
16319344147
16319349091
16319353852
16319359101
16319363373
16319368805
16319373139
16319380463
16319386628
16319391999
16319396698
16319403107
16319411042
16319415619
16319421417
16319426666
16319431366
16319435639
16319440399
16319445038
16319448883
16319453827
16319458405
16319464752
16319469696
16319473847
16319477692
16319481781
16319484589
16319490082
16319495331
16319500519
16319504913
16319508392
16319513824
16319517975
16319522247
16319529083
16319533050
16319538300
16319543243
16319547455
16319553253
16319557526
16319562958
16319568207
16319574432
16319579620
16319583465
16319587921
16319593719
16319601471
16319605621
16319611969
16319618561
16319623565
16319628631
16319633636
16319638702
16319643707
16319647979
16319655243
16319659210
16319664459
16319669281
16319673492
16319678802
16319682464
16319688934
16319694976
16319699615
16319705657
16319709625
16319715118
16319720489
16319726348
16319732757
16319738922
16319742767
16319749297
16319753143
16319758880
16319764129
16319768707
16319772857
16319779022
16319784698
16319789459
16319793487
16319798919
16319803069
16319808135
16319813995
16319820769
16319826263
16319834075
16319837127
16319843475
16319847625
16319853301
16319859771
16319865874
16319870147
16319877532
16319884246
16319890105
16319899810
16319909209
16319917388
16319926604
16319933684
16319941863
16319949370
16319958892
16319963652
16319971465
16319976287
16319984221
16319992461
16319997893
16320006804
16320012664
16320022368
16320028838
16320035918
16320044280
16320049529
16320055449
16320064177
16320072234
16320079253
16320085173
16320094206
16320098601
16320108000
16320115935
16320123503
16320131132
16320137846
16320145476
16320152739
16320161284
16320166777
16320175017
16320185881
16320195097
16320202543
16320209685
16320216093
16320224760
16320231413
16320239775
16320247099
16320256132
16320263029
16320272062
16320276518
16320286039
16320293852
16320301542
16320311003
16320319242
16320326322
16320334013
16320340299
16320348051
16320356291
16320362211
16320371244
16320379545
16320386442
16320394010
16320401701
16320409757
16320417448
16320423978
16320432889
16320442228
16320449857
16320455900
16320465299
16320470914
16320478849
16320485258
16320495511
16320504728
16320510770
16320519681
16320526944
16320535001
16320542875
16320549894
16320557828
16320566495
16320572416
16320580716
16320588468
16320595548
16320604703
16320613797
16320623624
16320631680
16320642056
16320652188
16320660245
16320667813
16320677640
16320686551
16320693631
16320701382
16320709927
16320717191
16320722806
16320731900
16320739285
16320749722
16320757046
16320765225
16320771939
16320780179
16320786831
16320795376
16320802578
16320810269
16320816189
16320825589
16320830288
16320841153
16320850308
16320855557
16320865445
16320873745
16320881436
16320887905
16320896694
16320904202
16320911709
16320921231
16320928127
16320934658
16320942105
16320949673
16320957424
16320964687
16320971890
16320980984
16320989101
16320996792
16321003933
16321011257
16321016933
16321026821
16321036037
16321044277
16321050686
16321058987
16321064846
16321074611
16321079555
16321089321
16321098781
16321104213
16321112392
16321120754
16321128811
16321136135
16321145290
16321154079
16321161525
16321171291
16321177516
16321187648
16321194911
16321202175
16321212062
16321219448
16321224819
16321231105
16321234767
16321242824
16321248134
16321254482
16321260158
16321266139
16321273708
16321279323
16321289027
16321295436
16321310634
16321318263
16321326991
16321331996
16321338405
16321344325
16321350368
16321357448
16321364406
16321371730
16321376857
16321383815
16321388576
16321394313
16321399318
16321406459
16321411403
16321417262
16321421901
16321426844
16321433863
16321438075
16321444606
16321450709
16321455470
16321462184
16321467128
16321473780
16321479579
16321481593
16321490382
16321496974
16321503138
16321507350
16321512660
16321518153
16321524073
16321529078
16321535914
16321541834
16321549220
16321554713
16321560267
16321564967
16321571803
16321576380
16321582484
16321590662
16321596033
16321602015
16321607996
16321613184
16321618372
16321624293
16321630030
16321636683
16321643641
16321648707
16321655726
16321660181
16321667017
16321671900
16321677393
16321684412
16321690333
16321697168
16321702356
16321707544
16321712793
16321718653
16321722864
16321728602
16321735498
16321741358
16321746363
16321752649
16321757349
16321763575
16321769190
16321775171
16321783228
16321788538
16321795984
16321801477
16321807703
16321812342
16321817896
16321823816
16321832422
16321838953
16321844080
16321850061
16321856714
16321861841
16321868189
16321874475
16321881372
16321885522
16321893945
16321897485
16321903345
16321909326
16321915796
16321924707
16321935083
16321942468
16321947473
16321955163
16321960229
16321966882
16321971216
16321979883
16321984338
16321989709
16321995141
16322000024
16322006128
16322009301
16322016321
16322023523
16322027856
16322031030
16322038720
16322042321
16322049035
16322052697
16322062341
16322068505
16322075524
16322078759
16322085107
16322090600
16322096276
16322101159
16322106835
16322112023
16322118371
16322123010
16322127770
16322132775
16322143029
16322148583
16322154321
16322159203
16322165673
16322172448
16322177087
16322183129
16322188012
16322194299
16322200524
16322206567
16322213219
16322218529
16322224572
16322228966
16322234948
16322239953
16322246667
16322252892
16322257775
16322265282
16322270226
16322277489
16322280968
16322287682
16322292199
16322298058
16322303673
16322311181
16322316185
16322323021
16322328453
16322334374
16322340355
16322346398
16322353112
16322359520
16322365807
16322371300
16322377892
16322382897
16322388268
16322395165
16322401695
16322406456
16322414330
16322417931
16322425133
16322428734
16322436974
16322442589
16322448143
16322453270
16322460167
16322465660
16322471825
16322476830
16322482994
16322487694
16322495018
16322500511
16322507591
16322512962
16322518028
16322522667
16322529564
16322536156
16322542381
16322550011
16322557945
16322563194
16322570457
16322575279
16322581871
16322588279
16322593162
16322599998
16322607200
16322611839
16322617271
16322622825
16322628502
16322633995
16322638939
16322646385
16322651756
16322657249
16322663841
16322669090
16322673545
16322680564
16322685264
16322690635
16322696922
16322704551
16322709495
16322716087
16322720970
16322724571
16322731956
16322735557
16322742454
16322748130
16322755393
16322760276
16322766563
16322771507
16322777183
16322782371
16322788169
16322792869
16322799766
16322804710
16322811179
16322816306
16322822593
16322828330
16322833518
16322840110
16322846641
16322851401
16322857749
16322862510
16322868918
16322874839
16322878379
16322884665
16322890159
16322897666
16322901267
16322909079
16322913169
16322919089
16322925986
16322931723
16322938010
16322944053
16322949363
16322955161
16322959616
16322965720
16322971884
16322977011
16322983176
16322990012
16322995139
16323000693
16323006430
16323011435
16323017783
16323022727
16323030234
16323035971
16323043112
16323048728
16323054953
16323061423
16323066367
16323071372
16323077902
16323083884
16323090720
16323096518
16323101584
16323105978
16323114157
16323119345
16323125143
16323130636
16323139365
16323144552
16323151510
16323159811
16323165426
16323171530
16323178122
16323183798
16323192892
16323198324
16323203634
16323208639
16323213583
16323220053
16323225241
16323230978
16323238424
16323245138
16323250936
16323255453
16323261740
16323267050
16323273275
16323277792
16323283834
16323290304
16323295736
16323302450
16323307333
16323312033
16323318563
16323324362
16323329000
16323337423
16323343160
16323347921
16323352560
16323359579
16323364156
16323368368
16323375692
16323383566
16323390401
16323395467
16323400045
16323404928
16323412313
16323418355
16323423116
16323428365
16323435873
16323439535
16323446432
16323451986
16323458211
16323463155
16323468343
16323475423
16323481283
16323486471
16323492940
16323497457
16323503438
16323511007
16323516011
16323523458
16323528951
16323533712
16323540059
16323545858
16323549398
16323556050
16323562459
16323568318
16323573506
16323580770
16323586202
16323593404
16323600484
16323606893
16323612447
16323618245
16323623799
16323628804
16323637837
16323642354
16323651021
16323655110
16323665486
16323671529
16323677998
16323683797
16323689351
16323696614
16323701558
16323707234
16323711934
16323718770
16323724141
16323732075
16323737569
16323743794
16323748921
16323756978
16323762044
16323769490
16323776082
16323782734
16323789082
16323791340
16323800068
16323804219
16323811848
16323815571
16323823506
16323827900
16323835530
16323840229
16323845784
16323849018
16323857441
16323861225
16323869160
16323873555
16323879292
16323884663
16323891316
16323894612
16323901814
16323904988
16323911579
16323917744
16323924091
16323929463
16323935261
16323940144
16323945759
16323950886
16323957234
16323963215
16323968464
16323974567
16323979450
16323983540
16323989094
16323995380
16324000324
16324006672
16324012531
16324017292
16324022480
16324028278
16324033161
16324039570
16324044758
16324049152
16324056049
16324062641
16324066669
16324072956
16324076740
16324084491
16324089374
16324094440
16324100116
16324107319
16324112812
16324118976
16324123554
16324130451
16324134845
16324141193
16324145710
16324152118
16324158466
16324163349
16324169147
16324173358
16324181293
16324187641
16324192584
16324201007
16324207172
16324212116
16324219501
16324225360
16324230609
16324237506
16324242938
16324248004
16324255145
16324260272
16324266498
16324272235
16324278094
16324283038
16324289752
16324295428
16324302753
16324307880
16324314532
16324319842
16324325641
16324331988
16324337665
16324343097
16324348468
16324355792
16324364825
16324372272
16324378680
16324384540
16324390826
16324397845
16324404193
16324410235
16324415606
16324420428
16324425799
16324430987
16324435138
16324440631
16324445697
16324450701
16324455889
16324460345
16324466326
16324472735
16324478289
16324482989
16324489642
16324493975
16324497454
16324505267
16324511248
16324516070
16324519915
16324527728
16324531817
16324540118
16324543841
16324550860
16324556170
16324560809
16324566241
16324572222
16324577471
16324583819
16324588519
16324593340
16324597857
16324604082
16324610430
16324616106
16324621050
16324627642
16324632464
16324639300
16324646380
16324650286
16324657366
16324662920
16324670427
16324676470
16324682024
16324689043
16324694841
16324700152
16324706682
16324711565
16324719011
16324724566
16324728899
16324736711
16324741594
16324749163
16324753008
16324760637
16324766069
16324772905
16324778948
16324786150
16324791033
16324796770
16324803545
16324809892
16324816606
16324821855
16324828325
16324833330
16324841753
16324845659
16324853105
16324859331
16324865556
16324870988
16324877153
16324884355
16324889970
16324894975
16324902116
16324906938
16324910844
16324919511
16324923540
16324931474
16324938554
16324943742
16324949785
16324955827
16324961564
16324968461
16324974138
16324982622
16324987809
16324996232
16325001481
16325010148
16325016069
16325023942
16325029802
16325035844
16325041398
16325045182
16325053666
16325058183
16325066178
16325070146
16325077226
16325083329
16325090104
16325095109
16325101640
16325106767
16325113664
16325120744
16325126115
16325132523
16325137467
16325144120
16325150590
16325156144
16325161820
16325167558
16325173051
16325180619
16325185563
16325191972
16325199601
16325202042
16325211625
16325217362
16325223893
16325229081
16325236100
16325239823
16325246964
16325253373
16325258072
16325263260
16325270402
16325276505
16325282792
16325287919
16325293229
16325299210
16325306412
16325311295
16325317276
16325324418
16325328812
16325336441
16325341080
16325347733
16325353653
16325360550
16325366226
16325373307
16325377884
16325383805
16325390213
16325395462
16325403397
16325408707
16325415543
16325421524
16325427689
16325431473
16325437515
16325442459
16325448868
16325453690
16325460892
16325466629
16325471817
16325476212
16325482254
16325488113
16325493729
16325498245
16325506729
16325511368
16325516983
16325521683
16325527725
16325534500
16325537979
16325545669
16325551956
16325558121
16325561661
16325568069
16325573257
16325579361
16325583816
16325590896
16325595657
16325605789
16325613784
16325619400
16325625869
16325633499
16325638626
16325645706
16325651504
16325660476
16325665725
16325670669
16325676467
16325678298
16325687454
16325690933
16325699294
16325701492
16325708938
16325712539
16325719680
16325724807
16325731765
16325735122
16325741653
16325746963
16325752822
16325757766
16325763442
16325768447
16325774917
16325782058
16325787551
16325793716
16325799636
16325804275
16325810805
16325818801
16325825027
16325831130
16325837112
16325845107
16325851150
16325857985
16325862868
16325869582
16325873916
16325879836
16325883498
16325890578
16325897536
16325902114
16325907180
16325913588
16325917006
16325923842
16325929213
16325936232
16325943984
16325950698
16325954482
16325962294
16325967482
16325973097
16325979567
16325984206
16325989150
16325996779
16326002211
16326007948
16326014784
16326020522
16326026564
16326031386
16326036513
16326042494
16326047011
16326052992
16326057997
16326064894
16326069899
16326075453
16326079848
16326086378
16326090956
16326097243
16326102309
16326107802
16326112013
16326118178
16326123244
16326130934
16326136427
16326143202
16326147719
16326153090
16326157179
16326163649
16326168837
16326176466
16326181349
16326186903
16326194777
16326201124
16326205580
16326214125
16326223402
16326228529
16326236525
16326241590
16326247755
16326252760
16326259352
16326265150
16326270643
16326275892
16326280592
16326284559
16326290052
16326294325
16326299696
16326305738
16326310560
16326316175
16326321058
16326325880
16326329237
16326338148
16326344068
16326348097
16326354078
16326358656
16326364027
16326371595
16326377821
16326383009
16326386610
16326391981
16326399671
16326406141
16326409986
16326416822
16326422681
16326427747
16326433057
16326439100
16326444227
16326450635
16326455274
16326460706
16326465406
16326471631
16326477857
16326479871
16326488477
16326490857
16326499036
16326504651
16326510572
16326512586
16326521558
16326525037
16326532178
16326540052
16326546277
16326550061
16326556531
16326560132
16326567456
16326573560
16326579053
16326584424
16326590405
16326595410
16326602796
16326607617
16326613172
16326619702
16326621900
16326630261
16326634290
16326641980
16326646008
16326653333
16326659314
16326665051
16326671948
16326676892
16326684644
16326690259
16326695019
16326702405
16326707654
16326714123
16326720776
16326725476
16326733227
16326738232
16326744824
16326750134
16326756238
16326762097
16326769177
16326773938
16326781994
16326787610
16326794873
16326800244
16326807812
16326813305
16326817639
16326827099
16326833447
16326840954
16326846508
16326854443
16326858044
16326865246
16326870739
16326875683
16326881054
16326886914
16326894970
16326900036
16326905590
16326912121
16326917309
16326923779
16326928661
16326933727
16326940868
16326946911
16326951916
16326958691
16326963207
16326968822
16326975231
16326980907
16326986889
16326991161
16326999035
16327004223
16327010754
16327014782
16327021618
16327027599
16327034923
16327040355
16327046764
16327052929
16327059520
16327064953
16327071483
16327076061
16327082164
16327088146
16327095897
16327100841
16327106090
16327112621
16327118236
16327124340
16327128124
16327135387
16327139782
16327146312
16327153759
16327160350
16327166027
16327170970
16327175853
16327182445
16327189403
16327197582
16327202587
16327209422
16327215282
16327220165
16327226268
16327232433
16327236827
16327243602
16327248485
16327253978
16327260875
16327264415
16327272105
16327277904
16327285289
16327291148
16327298350
16327303294
16327309520
16327314403
16327320628
16327325755
16327333323
16327337962
16327344493
16327351695
16327357066
16327361644
16327367686
16327374156
16327380015
16327384471
16327390574
16327396983
16327402537
16327406993
16327413218
16327420298
16327424449
16327432322
16327441539
16327446665
16327454051
16327460520
16327466197
16327472056
16327478282
16327484568
16327492198
16327496653
16327501475
16327506663
16327511912
16327517283
16327521494
16327528269
16327533091
16327540965
16327546824
16327552378
16327555552
16327562144
16327565318
16327572703
16327579111
16327583567
16327588023
16327594309
16327599619
16327606577
16327611582
16327617441
16327624460
16327629709
16327634531
16327641123
16327646006
16327651987
16327656931
16327663401
16327668162
16327674204
16327679209
16327687388
16327692698
16327700083
16327704660
16327710764
16327716990
16327723276
16327730722
16327735910
16327741648
16327748423
16327754648
16327759348
16327765512
16327769846
16327778330
16327782053
16327787973
16327792917
16327799753
16327805856
16327811533
16327817148
16327825510
16327831247
16327835214
16327841684
16327847360
16327852243
16327857736
16327867136
16327873788
16327879221
16327886362
16327891489
16327897653
16327903573
16327908578
16327913644
16327920785
16327927377
16327932443
16327936960
16327943551
16327949838
16327954904
16327961191
16327968271
16327974069
16327980356
16327987008
16327992257
16327998605
16328003732
16328009530
16328016793
16328023690
16328029977
16328035653
16328043100
16328048226
16328055307
16328061837
16328067880
16328072824
16328079843
16328084481
16328089730
16328094247
16328100106
16328106820
16328113046
16328117745
16328124825
16328130013
16328135690
16328141061
16328145699
16328151376
16328158639
16328163155
16328168404
16328174386
16328179391
16328185677
16328191109
16328197518
16328204537
16328209725
16328216317
16328222115
16328225777
16328232552
16328238717
16328243966
16328249703
16328256173
16328261605
16328266671
16328271554
16328278634
16328283089
16328288887
16328296578
16328302742
16328307930
16328313851
16328319527
16328325631
16328332161
16328337410
16328341927
16328348458
16328354622
16328358650
16328365914
16328370735
16328376412
16328381233
16328387825
16328393868
16328400154
16328407662
16328412850
16328419685
16328424690
16328429390
16328435982
16328440987
16328448616
16328453865
16328460091
16328465828
16328470772
16328477547
16328483528
16328488472
16328496712
16328503425
16328506843
16328513740
16328519295
16328524788
16328530159
16328537056
16328540962
16328547493
16328553596
16328559883
16328564888
16328570137
16328577217
16328582832
16328587593
16328593696
16328600044
16328604622
16328611152
16328617195
16328622200
16328629524
16328635383
16328642890
16328651435
16328657356
16328663398
16328671699
16328676948
16328683357
16328688300
16328695075
16328699531
16328705940
16328710578
16328717353
16328723213
16328728217
16328732795
16328739936
16328745490
16328750678
16328756477
16328761726
16328766792
16328770209
16328778632
16328785163
16328790168
16328795783
16328801337
16328806403
16328812873
16328818000
16328823981
16328830390
16328836799
16328841865
16328849067
16328853644
16328859809
16328865729
16328870368
16328877143
16328883124
16328889350
16328894233
16328900092
16328906012
16328912116
16328916510
16328924262
16328930854
16328936225
16328941596
16328948554
16328953437
16328958502
16328965460
16328970770
16328975470
16328982367
16328987311
16328993903
16328998541
16329005744
16329011908
16329016852
16329023077
16329031195
16329038336
16329043097
16329047736
16329053290
16329059454
16329065741
16329071173
16329077826
16329084845
16329090643
16329096442
16329103583
16329109076
16329114386
16329119940
16329129217
16329135016
16329139532
16329143072
16329151251
16329155829
16329163763
16329171759
16329178961
16329181280
16329190374
16329196173
16329202826
16329208624
16329214849
16329221991
16329232977
16329237127
16329242742
16329249700
16329257391
16329263128
16329269720
16329279608
16329283880
16329291265
16329296392
16329304022
16329307806
16329314947
16329320928
16329325628
16329331121
16329338201
16329343694
16329348577
16329352911
16329358831
16329363775
16329371587
16329377874
16329382452
16329387334
16329390996
16329400091
16329404668
16329410650
16329416753
16329422735
16329428533
16329433965
16329440801
16329446294
16329451970
16329454290
16329463445
16329468389
16329474798
16329480962
16329485906
16329489812
16329498357
16329501836
16329508306
16329515264
