16505198041
16505204877
16505210371
16505215986
16505222089
16505227888
16505233442
16505239484
16505245038
16505251508
16505257673
16505263227
16505269575
16505276349
16505281904
16505288678
16505294904
16505301008
16505307172
16505312848
16505318097
16505325788
16505332196
16505339704
16505343732
16505351422
16505356732
16505366071
16505372174
16505377912
16505383832
16505389752
16505395490
16505402020
16505408917
16505415143
16505419538
16505427106
16505433942
16505439618
16505447186
16505452496
16505459699
16505464887
16505470013
16505476788
16505482098
16505487103
16505491742
16505497906
16505504193
16505509625
16505515362
16505521222
16505525860
16505532025
16505536359
16505544537
16505548810
16505555035
16505561932
16505567425
16505576947
16505583355
16505590741
16505596844
16505602093
16505608868
16505615338
16505622967
16505629742
16505636517
16505641827
16505648297
16505655560
16505661480
16505668011
16505673687
16505682293
16505686383
16505694927
16505701214
16505708599
16505714642
16505721172
16505727581
16505735149
16505742413
16505748089
16505755108
16505761395
16505768475
16505774883
16505782879
16505790264
16505796429
16505805767
16505810162
16505820354
16505824200
16505831829
16505839153
16505845684
16505851787
16505858196
16505864239
16505871929
16505876568
16505884441
16505889873
16505896221
16505905376
16505912883
16505920269
16505927288
16505934185
16505941753
16505948406
16505953899
16505960369
16505967815
16505974224
16505980449
16505987895
16505995586
16506002788
16506009990
16506017192
16506023662
16506030193
16506037700
16506045940
16506053325
16506062785
16506075725
16506082988
16506090800
16506096294
16506104838
16506110393
16506118327
16506125529
16506131267
16506140239
16506146159
16506154155
16506161418
16506166301
16506174724
16506180217
16506187419
16506193278
16506201152
16506204936
16506213359
16506217448
16506225566
16506232951
16506238566
16506245646
16506252543
16506258952
16506265361
16506273478
16506280131
16506285380
16506291911
16506299479
16506306315
16506314738
16506322001
16506330363
16506338297
16506344767
16506353678
16506360026
16506367716
16506375468
16506382243
16506389689
16506396464
16506404154
16506413187
16506420267
16506427836
16506434305
16506442118
16506449564
16506456827
16506461954
16506470438
16506477213
16506486979
16506495035
16506502054
16506508341
16506516703
16506524454
16506530252
16506538797
16506545145
16506552713
16506559732
16506568277
16506576029
16506585611
16506592630
16506602091
16506609232
16506618997
16506627908
16506634500
16506645731
16506652750
16506659525
16506665750
16506672647
16506676004
16506682718
16506685464
16506695352
16506702188
16506708231
16506714822
16506720438
16506728799
16506732706
16506743204
16506750039
16506754251
16506760476
16506764566
16506769510
16506774392
16506781350
16506786722
16506791360
16506795938
16506800760
16506805398
16506809182
16506816873
16506822793
16506827676
16506831948
16506836343
16506842202
16506847390
16506851846
16506857034
16506862710
16506867105
16506872842
16506878091
16506882119
16506888589
16506893228
16506900308
16506904885
16506910195
16506914712
16506921731
16506926614
16506935464
16506939248
16506946633
16506952676
16506957253
16506962807
16506969460
16506974526
16506981118
16506986550
16506993508
16506999062
16507005166
16507008645
16507015725
16507020669
16507028603
16507032387
16507040261
16507045998
16507050210
16507055703
16507061440
16507067971
16507074868
16507081582
16507087197
16507093239
16507100808
16507106057
16507114052
16507120705
16507126625
16507131203
16507137429
16507143593
16507149575
16507156472
16507161598
16507168556
16507172951
16507180702
16507185646
16507191750
16507196633
16507204323
16507207985
16507215126
16507220863
16507226601
16507232765
16507239845
16507244362
16507254860
16507262184
16507267494
16507275063
16507281654
16507285622
16507294228
16507298622
16507307289
16507312172
16507317787
16507323768
16507329262
16507333778
16507339271
16507345680
16507352028
16507357033
16507362831
16507367347
16507373329
16507378700
16507385536
16507391151
16507395851
16507403175
16507406410
16507413795
16507418373
16507424965
16507430091
16507436561
16507443397
16507447914
16507453895
16507460060
16507464027
16507471046
16507477821
16507484352
16507490638
16507494972
16507502052
16507506812
16507512733
16507518653
16507524696
16507531776
16507538368
16507542823
16507549232
16507555213
16507560340
16507566505
16507574134
16507579627
16507586219
16507592384
16507597694
16507603675
16507608924
16507614722
16507621009
16507627784
16507633704
16507638282
16507644324
16507650062
16507656104
16507660743
16507666846
16507673621
16507679786
16507685828
16507691138
16507696998
16507701575
16507707496
16507714331
16507719214
16507725745
16507731787
16507737830
16507743933
16507749915
16507754554
16507762122
16507767371
16507774756
16507780066
16507788672
16507796546
16507803809
16507812110
16507819983
16507828589
16507836218
16507845129
16507852454
16507860754
16507869543
16507884680
16507894263
16507901953
16507911291
16507918127
16507927771
16507934729
16507943823
16507950781
16507960425
16507968420
16507977392
16507984594
16507991980
16507998571
16508005285
16508013525
16508020239
16508028601
16508034948
16508042150
16508051428
16508058447
16508066076
16508073156
16508082250
16508088842
16508095861
16508102575
16508110449
16508117101
16508125402
16508133093
16508142553
16508149633
16508157629
16508165197
16508174291
16508181127
16508188818
16508197912
16508204992
16508211400
16508219884
16508226293
16508235509
16508244726
16508252233
16508260778
16508272008
16508278417
16508286107
16508294530
16508301549
16508310765
16508318578
16508326879
16508334752
16508341100
16508349645
16508356114
16508364232
16508373204
16508380345
16508389012
16508394139
16508404088
16508409093
16508419835
16508428136
16508434972
16508442174
16508451817
16508459019
16508469090
16508474278
16508485081
16508493321
16508501622
16508509129
16508517918
16508525120
16508537022
16508545323
16508553502
16508558262
16508568089
16508575840
16508582921
16508589512
16508600132
16508608555
16508616673
16508624546
16508631016
16508637730
16508647557
16508656468
16508666905
16508675022
16508683506
16508689610
16508698765
16508704014
16508714695
16508723179
16508732334
16508737339
16508748081
16508752903
16508764317
16508769199
16508778416
16508786106
16508798801
16508806431
16508815159
16508821750
16508830295
16508836094
16508846897
16508852207
16508862034
16508870884
16508877292
16508886326
16508893406
16508902927
16508909824
16508918186
16508927585
16508933261
16508943698
16508949069
16508959506
16508964939
16508977024
16508985507
16508993198
16509002292
16509009311
16509018955
16509026096
16509035129
16509041843
16509050143
16509059055
16509067722
16509074680
16509082065
16509092197
16509097385
16509108554
16509113864
16509125888
16509131137
16509141574
16509147494
16509158053
16509163485
16509173007
16509180819
16509191256
16509200534
16509207309
16509212374
16509224948
16509231173
16509236788
16509243991
16509249606
16509255404
16509261325
16509267977
16509273165
16509279086
16509283785
16509289706
16509294406
16509304904
16509310641
16509317233
16509323031
16509328585
16509335787
16509341586
16509347445
16509358309
16509365023
16509372469
16509380953
16509389010
16509394137
16509401705
16509407625
16509412935
16509419222
16509424532
16509430758
16509437166
16509442232
16509448458
16509454195
16509460299
16509465853
16509470614
16509474947
16509481112
16509486177
16509490877
16509495760
16509500338
16509504671
16509509432
16509514315
16509519991
16509526339
16509530672
16509536470
16509541048
16509545442
16509550447
16509555818
16509561800
16509565279
16509571321
16509575044
16509580782
16509585115
16509590425
16509595308
16509599764
16509604952
16509610140
16509616304
16509620210
16509627901
16509634248
16509639986
16509644685
16509650789
16509655305
16509660493
16509666292
16509671480
16509676424
16509682893
16509687349
16509693758
16509698396
16509703828
16509708467
16509716096
16509719514
16509725130
16509730012
16509734956
16509740327
16509745881
16509751802
16509758394
16509765046
16509770112
16509776338
16509780854
16509786592
16509790742
16509797822
16509803498
16509809358
16509814546
16509820039
16509825715
16509831086
16509836763
16509843537
16509849458
16509853669
16509859895
16509865632
16509872041
16509876374
16509883271
16509890779
16509896333
16509900910
16509907258
16509913422
16509918427
16509923432
16509933015
16509940705
16509948273
16509953889
16509961091
16509967194
16509973786
16509978852
16509986664
16509992524
16509997529
16510001984
16510007783
16510012787
16510017914
16510022858
16510029755
16510033661
16510040436
16510046723
16510052216
16510057831
16510064179
16510068268
16510073517
16510078888
16510084443
16510089142
16510094880
16510099335
16510107636
16510110871
16510118744
16510123932
16510129364
16510134980
16510140595
16510146149
16510152863
16510157807
16510163422
16510168488
16510172943
16510177582
16510183197
16510189362
16510194489
16510199738
16510206329
16510210846
16510217011
16510222992
16510232819
16510237213
16510242706
16510248566
16510253693
16510258270
16510263763
16510268524
16510275543
16510279144
16510285980
16510289276
16510296539
16510299652
16510310333
16510316803
16510326385
16510334625
16510342193
16510350860
16510358185
16510365326
16510370941
16510379303
16510387298
16510396148
16510402313
16510410064
16510418975
16510426727
16510433013
16510442596
16510451812
16510460845
16510466827
16510475189
16510481597
16510491363
16510501251
16510510162
16510517303
16510524566
16510533294
16510541290
16510549224
16510558135
16510565032
16510573943
16510583709
16510592376
16510599151
16510608428
16510614776
16510622344
16510629851
16510636748
16510643767
16510654509
16510660613
16510668670
16510675994
16510681426
16510688872
16510693206
16510705230
16510711760
16510719329
16510725188
16510732939
16510737334
16510748686
16510756926
16510766081
16510774077
16510779692
16510787749
16510795561
16510802825
16510810698
16510818266
16510826506
16510833525
16510840971
16510847014
16510854765
16510859282
16510869719
16510874052
16510888396
16510891325
16510902067
16510908659
16510916533
16510920805
16510932036
16510936674
16510946867
16510956450
16510962492
16510971037
16510977202
16510983976
16510993620
16510998686
16511010405
16511015837
16511026091
16511032743
16511040800
16511047697
16511057463
16511064970
16511072904
16511081754
16511089994
16511097257
16511107694
16511115263
16511125394
16511135282
16511141935
16511149625
16511161405
16511169462
16511178312
16511186552
16511193387
16511198392
16511211759
16511216825
16511228544
16511233793
16511244047
16511251737
16511259855
16511269315
16511276090
16511285611
16511292997
16511303006
16511309293
16511318387
16511326261
16511334745
16511343106
16511352567
16511360501
16511367887
16511377835
16511384610
16511394498
16511401883
16511407681
16511420377
16511429715
16511436063
16511444180
16511452359
16511459744
16511467862
16511474759
16511485196
16511490262
16511500088
16511506741
16511515042
16511522244
16511528897
16511538113
16511545681
16511554898
16511568020
16511575467
16511583279
16511590054
16511597683
16511603848
16511614041
16511624478
16511631253
16511639675
16511646694
16511655117
16511662564
16511668667
16511676480
16511685513
16511693691
16511701443
16511709683
16511718105
16511724331
16511732388
16511737026
16511748318
16511753689
16511760525
16511763821
16511771145
16511774380
16511781826
16511787563
16511794094
16511800014
16511806484
16511811916
16511816616
16511823513
16511827419
16511833339
16511839382
16511845669
16511848964
16511855922
16511861171
16511865505
16511870388
16511879543
16511886440
16511890773
16511895961
16511902004
16511907314
16511913539
16511920375
16511927577
16511932888
16511938625
16511943874
16511948329
16511953334
16511957729
16511963771
16511969020
16511976100
16511979518
16511986537
16511992091
16511998012
16512003810
16512008998
16512015590
16512019801
16512026881
16512033656
16512038844
16512046168
16512051784
16512058742
16512067470
16512074611
16512081081
16512086391
16512093410
16512097682
16512101039
16512109706
16512115687
16512122462
16512126796
16512131923
16512136744
16512142177
16512148585
16512155299
16512160914
16512165248
16512171351
16512177699
16512182582
16512188502
16512194911
16512202113
16512208461
16512214198
16512218348
16512224452
16512229945
16512235987
16512242396
16512248622
16512253687
16512260096
16512263575
16512271510
16512274989
16512281397
16512286891
16512294764
16512298670
16512306300
16512311671
16512317652
16512323206
16512329737
16512335169
16512341212
16512347681
16512353602
16512358057
16512364100
16512370020
16512378138
16512382654
16512391382
16512395899
16512403773
16512408289
16512414454
16512418909
16512426111
16512430994
16512437769
16512445154
16512451014
16512456873
16512462244
16512468164
16512472986
16512479090
16512485071
16512491419
16512495386
16512503626
16512507410
16512514368
16512520105
16512525965
16512530115
16512538172
16512543909
16512550745
16512554956
16512563013
16512568079
16512573755
16512579126
16512584741
16512591028
16512596521
16512601709
16512606958
16512613977
16512620325
16512626917
16512635278
16512641565
16512646020
16512653772
16512660425
16512667017
16512672693
16512677392
16512685754
16512691125
16512698144
16512702539
16512708032
16512713891
16512718347
16512722986
16512731531
16512736596
16512742090
16512747583
16512753808
16512759057
16512766076
16512770654
16512778711
16512784448
16512789880
16512794519
16512800561
16512805627
16512811181
16512816430
16512824426
16512829370
16512835778
16512844201
16512851342
16512857873
16512864953
16512868859
16512876916
16512880578
16512888757
16512894677
16512901818
16512906701
16512911340
16512916650
16512923730
16512929650
16512937646
16512944726
16512952538
16512960595
16512968468
16512975121
16512983605
16512993859
16513002038
16513008568
16513015832
16513024315
16513032067
16513038659
16513043664
16513055138
16513060326
16513071190
16513076683
16513086632
16513091820
16513101891
16513110009
16513116478
16513125878
16513132042
16513140221
16513145897
16513152611
16513162438
16513168602
16513177941
16513184349
16513193443
16513202538
16513208641
16513216759
16513224449
16513231529
16513236656
16513247459
16513252647
16513262535
16513269798
16513278343
16513285545
16513293236
16513300072
16513310325
16513316673
16513324791
16513332054
16513341026
16513348167
16513357689
16513365135
16513375206
16513382042
16513387657
16513398765
16513403953
16513413902
16513421226
16513429771
16513436058
16513446678
16513455345
16513463157
16513467918
16513478172
16513483421
16513493491
16513500510
16513507835
16513516624
16513525230
16513532005
16513540183
16513549277
16513556296
16513562461
16513573264
16513580222
16513589988
16513596580
16513605918
16513611899
16513619895
16513628013
16513630576
16513644309
16513651877
16513659934
16513667014
16513675498
16513680198
16513690635
16513698935
16513707480
16513710654
16513721457
16513726340
16513737387
16513744101
16513751242
16513760153
16513767478
16513776389
16513784567
16513791159
16513799216
16513805563
16513812521
16513820517
16513828390
16513837302
16513844687
16513853171
16513860251
16513868246
16513875021
16513883261
16513888144
16513900107
16513909079
16513914999
16513921713
16513929525
16513936606
16513946127
16513952719
16513961508
16513969015
16513977011
16513985617
16513991537
16514000448
16514006979
16514015036
16514022421
16514031759
16514039022
16514046896
16514053915
16514062460
16514067281
16514077413
16514085958
16514095174
16514102438
16514109029
16514115865
16514125509
16514132650
16514139181
16514147848
16514156454
16514163900
16514172079
16514179525
16514187887
16514195272
16514204305
16514213155
16514223226
16514231221
16514238179
16514246480
16514254720
16514261861
16514269674
16514278035
16514285360
16514294454
16514301778
16514308919
16514317220
16514325521
16514332723
16514340535
16514348287
16514358479
16514366719
16514375569
16514382222
16514390889
16514397359
16514402242
16514407124
16514412251
16514417134
16514423177
16514428059
16514433736
16514438679
16514445332
16514452107
16514457600
16514461323
16514467427
16514471089
16514478474
16514484395
16514488728
16514495503
16514500874
16514507832
16514512837
16514519063
16514525471
16514530171
16514536335
16514543538
16514549092
16514555500
16514559834
16514564900
16514570515
16514577351
16514581929
16514588642
16514595234
16514600666
16514605427
16514611653
16514618061
16514623066
16514629536
16514636067
16514641010
16514647114
16514652363
16514659077
16514664204
16514671406
16514677082
16514683918
16514689594
16514696552
16514702412
16514710041
16514714314
16514723164
16514727314
16514735126
16514742329
16514749226
16514753193
16514761066
16514768268
16514773029
16514779194
16514786274
16514790180
16514801349
16514805988
16514814777
16514822468
16514827961
16514833942
16514841022
16514848102
16514855304
16514861042
16514870502
16514876239
16514883319
16514889911
16514895954
16514905536
16514911640
16514918048
16514924457
16514929401
16514935138
16514941425
16514947101
16514952106
16514958637
16514963641
16514970416
16514975360
16514982257
16514987750
16514993488
16514998370
16515004779
16515010211
16515016620
16515022601
16515027362
16515032733
16515040790
16515044757
16515052814
16515058795
16515064899
16515068622
16515076007
16515079547
16515087726
16515092364
16515100726
16515106341
16515112140
16515115680
16515123248
16515126727
16515136310
16515143023
16515148944
16515153216
16515159320
16515165423
16515171222
16515174884
16515182269
16515186297
16515194293
16515199908
16515205706
16515211688
16515217730
16515222125
16515231036
16515236224
16515242083
16515247881
16515254046
16515260333
16515264910
16515272418
16515278094
16515284747
16515289385
16515295489
16515299944
16515307146
16515311663
16515317706
16515324236
16515330828
16515336016
16515341448
16515347002
16515353350
16515359270
16515366289
16515372637
16515377276
16515384661
16515389300
16515400225
16515405230
16515411944
16515420305
16515426958
16515431902
16515437639
16515443987
16515449602
16515455217
16515466082
16515472551
16515478106
16515482927
16515487993
16515493242
16515498247
16515504228
16515508074
16515514910
16515519670
16515525774
16515530046
16515535478
16515540178
16515548784
16515552263
16515559038
16515564165
16515569292
16515575273
16515582903
16515589006
16515599687
16515604265
16515615129
16515623064
16515630144
16515637468
16515644731
16515652299
16515659990
16515667924
16515673662
16515682634
16515688310
16515698137
16515704240
16515712053
16515720353
16515729509
16515735612
16515744706
16515750749
16515759721
16515765702
16515775346
16515785539
16515792314
16515801103
16515809587
16515815751
16515823075
16515830338
16515838944
16515847062
16515854752
16515861100
16515869706
16515876176
16515883866
16515892289
16515900224
16515906754
16515915299
16515921525
16515929276
16515935746
16515944596
16515955826
16515961808
16515970292
16515979081
16515987626
16515993363
16516002579
16516008256
16516017777
16516026322
16516033707
16516039872
16516047318
16516055252
16516062333
16516068558
16516077713
16516085099
16516104569
16516112442
16516120926
16516129227
16516135575
16516140701
16516150833
16516155777
16516165421
16516173294
16516181900
16516188126
16516200027
16516206497
16516215042
16516219803
16516230362
16516233353
16516244522
16516254837
16516261185
16516269363
16516275223
16516279800
16516290664
16516295791
16516306228
16516310989
16516321060
16516325576
16516336807
16516345413
16516351638
16516359512
16516365554
16516370559
16516382156
16516387283
16516395767
16516403030
16516413040
16516418533
16516427688
16516434646
16516441848
16516448806
16516458450
16516464797
16516472366
16516481216
16516490066
16516496841
16516501968
16516514602
16516522536
16516528823
16516533828
16516542922
16516551772
16516559280
16516567275
16516576858
16516582839
16516591323
16516598342
16516607680
16516615859
16516623183
16516629775
16516638625
16516645705
16516656203
16516663039
16516669753
16516677993
16516685317
16516694899
16516700087
16516709914
16516717665
16516726699
16516734633
16516741591
16516749953
16516758559
16516765822
16516772780
16516781874
16516789259
16516796767
16516805800
16516814589
16516821486
16516830458
16516838209
16516845106
16516854628
16516860976
16516866102
16516876295
16516881727
16516893141
16516899183
16516909376
16516917433
16516926832
16516934340
16516941664
16516951307
16516959730
16516968336
16516975782
16516985731
16516991041
16516996168
16517002333
16517009779
16517014479
16517020399
16517026991
16517031935
16517038587
16517043287
16517048475
16517055738
16517062269
16517067152
16517074659
16517078321
16517086012
16517092054
16517097425
16517102186
16517107740
16517114393
16517119459
16517126600
16517132886
16517139234
16517145582
16517152296
16517161512
16517168592
16517177503
16517182447
16517188856
16517193250
16517200818
16517206067
16517212293
16517219312
16517223829
16517230665
16517235181
16517242139
16517246717
16517252454
16517258435
16517265271
16517269971
16517275769
16517279676
16517286512
16517291883
16517298413
16517304944
16517311292
16517315503
16517325147
16517331799
16517336255
16517343274
16517348279
16517354932
16517361218
16517366956
16517371655
16517377576
16517382459
16517388989
16517393872
16517400891
16517405713
16517412122
16517418469
16517422925
16517428174
16517435010
16517441907
16517448132
16517454541
16517459424
16517465710
16517471936
16517477673
16517483899
16517490246
16517496899
16517502331
16517509350
16517515515
16517520092
16517526928
16517534802
16517541882
16517547802
16517555676
16517561169
16517569470
16517575024
16517580029
16517586560
16517591931
16517597363
16517602429
16517607739
16517612805
16517618237
16517623181
16517630017
16517635876
16517641247
16517646008
16517651928
16517658154
16517663220
16517670055
16517677136
16517683117
16517687511
16517694042
16517699902
16517703503
16517711681
16517715038
16517723949
16517728039
16517735302
16517740734
16517746044
16517752575
16517757763
16517764843
16517769665
16517776256
16517781627
16517786144
16517792248
16517798290
16517804210
16517810009
16517816723
16517822277
16517828930
16517833446
16517839916
16517844555
16517848034
16517855907
16517859874
16517869457
16517873668
16517881786
16517887401
16517891857
16517897045
16517903881
16517908946
16517916332
16517921703
16517926708
16517933055
16517938243
16517943126
16517949413
16517955455
16517962962
16517968334
16517975108
16517981639
16517986339
16517992320
16517998241
16518004588
16518011424
16518018626
16518024058
16518028697
16518036265
16518040904
16518046947
16518052989
16518059520
16518064708
16518071788
16518076488
16518083751
16518089244
16518096507
16518102000
16518109630
16518118541
16518124766
16518130565
16518136424
16518141307
16518148448
16518155894
16518165232
16518169444
16518178721
16518185496
16518193492
16518200022
16518208018
16518214060
16518224253
16518231028
16518238658
16518245371
16518253428
16518260203
16518269358
16518275950
16518286448
16518291697
16518301157
16518307688
16518316599
16518323191
16518332102
16518338633
16518347178
16518354197
16518361826
16518368662
16518376291
16518384836
16518392588
16518399424
16518411081
16518418222
16518426951
16518433664
16518442087
16518448435
16518457346
16518463327
16518472666
16518478525
16518487314
16518492868
16518500437
16518508127
16518515268
16518523081
16518531564
16518539926
16518545725
16518553842
16518559824
16518567026
16518574899
16518581003
16518590646
16518596689
16518605966
16518612009
16518621469
16518626840
16518634286
16518641672
16518650339
16518656564
16518666025
16518671884
16518681161
16518689401
16518696969
16518705026
16518707834
16518721017
16518730294
16518736947
16518745065
16518753122
16518757821
16518767343
16518774728
16518785165
16518793466
16518799996
16518806893
16518815988
16518822701
16518831368
16518838693
16518846932
16518854073
16518863046
16518871713
16518879220
16518885445
16518894906
16518901315
16518909676
16518918832
16518927560
16518936654
16518944161
16518952401
16518955208
16518966561
16518971322
16518983529
16518993294
16518999703
16519008309
16519015023
16519021615
16519031624
16519036446
16519047310
16519054695
16519062996
16519070443
16519080025
16519086739
16519093575
16519102547
16519109993
16519118965
16519127083
16519133248
16519141487
16519147591
16519155586
16519164253
16519171516
16519180855
16519189339
16519196053
16519205330
16519211494
16519216255
16519226997
16519235359
16519244575
16519249885
16519260383
16519268013
16519275642
16519282600
16519289619
16519298652
16519306221
16519315681
16519323066
16519331855
16519339180
16519345344
16519355171
16519364143
16519372688
16519383003
16519389900
16519398689
16519406013
16519412666
16519422737
16519428718
16519438850
16519445258
16519455451
16519461494
16519470466
16519476569
16519485542
16519492316
16519500739
16519511115
16519518378
16519527106
16519531867
16519542792
16519547553
16519557136
16519564399
16519574225
16519582587
16519590217
16519597236
16519606086
16519611396
16519618293
16519624152
16519633063
16519636847
16519644965
16519648322
16519655951
16519661933
16519668158
16519674750
16519681708
16519688422
16519693000
16519699408
16519703803
16519710333
16519717536
16519723151
16519730658
16519736823
16519741095
16519746588
16519751837
16519756659
16519760931
16519768134
16519772833
16519779120
16519783514
16519789374
16519793585
16519799139
16519803839
16519810187
16519816168
16519821539
16519824286
16519831061
16519836493
16519840277
16519846503
16519852179
16519860663
16519866278
16519871344
16519876532
16519881415
16519886969
16519891729
16519897406
16519904303
16519908758
16519914557
16519920294
16519925848
16519932196
16519938116
16519944891
16519949591
16519955633
16519961615
16519966375
16519972967
16519978765
16519982855
16519990606
16519997808
16520002447
16520007391
16520013433
16520018560
16520025457
16520030828
16520038580
16520045477
16520049810
16520056097
16520061224
16520066106
16520072820
16520079534
16520085638
16520090398
16520096014
16520101995
16520107976
16520112554
16520116033
16520124273
16520128362
16520137029
16520143194
16520147100
16520154546
16520159002
16520165471
16520170843
16520177495
16520182988
16520189336
16520194280
16520200750
16520206609
16520214605
16520220647
16520228460
16520234075
16520241338
16520245244
16520252996
16520262151
16520267827
16520275518
16520283818
16520289861
16520296453
16520302251
16520308293
16520315373
16520319524
16520326665
16520335088
16520340520
16520344792
16520351262
16520355901
16520361699
16520365788
16520373540
16520380254
16520385686
16520390324
16520395695
16520400456
16520407841
16520412297
16520418950
16520424626
16520430485
16520436528
16520441899
16520448125
16520453618
16520457402
16520463505
16520469548
16520475468
16520480412
16520486088
16520490300
16520495671
16520502079
16520507634
16520512211
16520519658
16520524968
16520530888
16520535405
16520541142
16520545231
16520550785
16520557988
16520564457
16520570683
16520575444
16520579411
16520585087
16520589176
16520596073
16520602604
16520609196
16520613651
16520619511
16520624272
16520630802
16520634709
16520639958
16520645817
16520652103
16520656132
16520661930
16520667912
16520672916
16520678226
16520681644
16520691227
16520698368
16520702763
16520709354
16520713810
16520716984
16520724735
16520727970
16520735477
16520741825
16520746281
16520752018
16520756351
16520764347
16520772709
16520779850
16520792179
16520802005
16520808536
16520816593
16520825321
16520832584
16520840091
16520849979
16520858707
16520866764
16520877811
16520884830
16520895145
16520900821
16520912845
16520922672
16520930240
16520942752
16520950076
16520959110
16520967654
16520974735
16520983707
16520992801
16521002200
16521010257
16521019107
16521021854
16521034671
16521043582
16521050418
16521055362
16521067813
16521075320
16521083743
16521092959
16521099978
16521107974
16521116885
16521125430
16521133364
16521140628
16521147952
16521154361
16521162844
16521171511
16521178408
16521187136
16521193362
16521202761
16521209109
16521217349
16521226321
16521233828
16521240725
16521248721
16521257266
16521264468
16521271304
16521279726
16521286562
16521296084
16521303408
16521311343
16521318728
16521326906
16521334536
16521344118
16521351626
16521361574
16521369387
16521378603
16521386110
16521394045
16521401125
16521409670
16521417299
16521426088
16521433229
16521442751
16521449831
16521459108
16521467165
16521474733
16521482057
16521491335
16521499025
16521507082
16521514528
16521524111
16521531191
16521539064
16521546816
16521555971
16521565981
16521575746
16521584108
16521591920
16521596498
16521606264
16521613466
16521621889
16521630922
16521639100
16521646364
16521654237
16521659364
16521669557
16521678895
16521687745
16521696656
16521703431
16521712342
16521720582
16521729982
16521736756
16521747010
16521754090
16521761476
16521771363
16521778443
16521785584
16521792909
16521799134
16521806397
16521815492
16521823914
16521830201
16521838136
16521845399
16521850709
16521861085
16521867066
16521875489
16521885438
16521892457
16521898255
16521905335
16521913636
16521918824
16521927735
16521933838
16521944886
16521951478
16521959107
16521968995
16521975525
16521984925
16521993226
16522000611
16522007386
16522013428
16522021546
16522029114
16522038941
16522047730
16522055786
16522062928
16522071167
16522078247
16522084595
16522095154
16522105591
16522111023
16522120728
16522126221
16522134216
16522142212
16522150940
16522157166
16522162598
16522167114
16522172119
16522179016
16522183289
16522189514
16522194336
16522201904
16522205261
16522212280
16522218323
16522221924
16522228760
16522236450
16522242004
16522246094
16522253601
16522256958
16522264831
16522268921
16522278442
16522284851
16522291137
16522296081
16522300903
16522307312
16522310302
16522317932
16522324340
16522329589
16522334106
16522342407
16522348693
16522355590
16522367187
16522376403
16522385559
16522394103
16522402648
16522411132
16522420165
16522428954
16522438110
16522449035
16522457031
16522463622
16522470397
16522477294
16522485778
16522494262
16522501891
16522512633
16522520568
16522528380
16522537475
16522545348
16522552123
16522561400
16522569335
16522577086
16522584716
16522593932
16522601378
16522610839
16522619017
16522626220
16522634215
16522641722
16522650450
16522658629
16522668273
16522676695
16522682982
16522693114
16522699767
16522709044
16522715453
16522724974
16522734313
16522742918
16522749815
16522758360
16522766722
16522775023
16522779967
16522790160
16522798582
16522807310
16522814513
16522822874
16522830931
16522839964
16522848570
16522855284
16522864073
16522873106
16522880186
16522889280
16522898314
16522905394
16522917051
16522924925
16522937254
16522944883
16522955137
16522964537
16522973020
16522980955
16522989744
16523000303
16523006773
16523015623
16523022581
16523032774
16523041746
16523050474
16523061338
16523069822
16523077451
16523086057
16523094968
16523101682
16523111204
16523120542
16523129331
16523142881
16523154294
16523163999
16523173459
16523180784
16523191892
16523199277
16523207578
16523216001
16523224851
16523233579
16523241391
16523249448
16523257077
16523266355
16523274411
16523282285
16523292111
16523299497
16523308347
16523316953
16523324094
16523330319
16523339963
16523346616
16523357358
16523365353
16523373410
16523381467
16523389645
16523398678
16523404538
16523414364
16523420590
16523431027
16523437985
16523448056
16523453732
16523463437
16523473385
16523481625
16523490536
16523499386
16523506955
16523514218
16523522702
16523530392
16523540524
16523549862
16523556271
16523565365
16523571591
16523580563
16523589047
16523597775
16523610409
16523623776
16523635983
16523641171
16523652950
16523663204
16523674252
16523683773
16523689449
16523698421
16523702328
16523711239
16523717220
16523725155
16523730648
16523735470
16523748714
16523755611
16523762569
16523770931
16523777095
16523785335
16523792415
16523797908
16523804988
16523810176
16523819088
16523823238
16523834102
16523841976
16523848079
16523855648
16523864131
16523872371
16523883174
16523890193
16523896846
16523904109
16523911495
16523919856
16523928767
16523935420
16523943843
16523950252
16523957210
16523964717
16523971858
16523979488
16523983150
16523992976
16523999568
16524006099
16524012141
16524020503
16524026485
16524031306
16524040034
16524055598
16524065974
16524071589
16524077632
16524084895
16524089961
16524097163
16524101985
16524113765
16524120784
16524127192
16524134394
16524138240
16524148738
16524155940
16524160823
16524169367
16524176509
16524182002
16524192072
16524198420
16524204157
16524213496
16524220820
16524227839
16524235285
16524243464
16524251643
16524260615
16524268793
16524275568
16524282893
16524290217
16524298579
16524303583
16524316157
16524324030
16524333307
16524339838
16524352778
16524361750
16524369379
16524378473
16524385553
16524392084
16524400385
16524408258
16524417414
16524425470
16524433100
16524441034
16524453913
16524463739
16524474603
16524482355
16524491815
16524500116
16524508051
16524515192
16524523126
16524532098
16524538934
16524545648
16524553217
16524559625
16524568475
16524576227
16524584222
16524591608
16524597772
16524608697
16524617120
16524625177
16524632074
16524640863
16524648675
16524655450
16524661126
16524669671
16524677789
16524686273
16524693536
16524701410
16524708123
16524714349
16524725152
16524732659
16524738397
16524747918
16524755792
16524763421
16524770135
16524778985
16524786859
16524795587
16524801080
16524808587
16524815606
16524822259
16524827508
16524835015
16524842156
16524846795
16524852288
16524858147
16524863702
16524868523
16524875237
16524880181
16524885064
16524890191
16524895867
16524901299
16524906731
16524912774
16524918999
16524924553
16524928704
16524934075
16524938897
16524944695
16524951348
16524957634
16524961052
16524968438
16524974541
16524981011
16524988030
16524992608
16525000054
16525006401
16525011528
16525018425
16525023735
16525030876
16525035820
16525042595
16525051689
16525058281
16525064751
16525069390
16525078728
16525086662
16525092278
16525099968
16525105278
16525110405
16525115654
16525125176
16525130364
16525134758
16525139824
16525145134
16525150200
16525155144
16525157341
16525167290
16525172783
16525178093
16525183952
16525190117
16525194267
16525199394
16525206047
16525211723
16525216850
16525222099
16525228264
16525233207
16525239128
16525243950
16525249626
16525256401
16525261284
16525266655
16525272514
16525279289
16525284050
16525288383
16525296013
16525303703
16525310051
16525314994
16525319023
16525325126
16525329338
16525334770
16525341911
16525348625
16525353752
16525358573
16525364982
16525369743
16525374381
16525379814
16525381584
16525393424
16525398551
16525403373
16525409416
16525413932
16525420341
16525424613
16525429740
16525436637
16525440604
16525448539
16525452018
16525458366
16525464164
16525469779
16525475211
16525481742
16525488212
16525494193
16525499503
16525505546
16525510856
16525516715
16525521476
16525529044
16525534781
16525541984
16525547233
16525554313
16525559562
16525566031
16525570792
16525574576
16525583365
16525587638
16525594535
16525600638
16525606925
16525612113
16525618582
16525625174
16525633353
16525641043
16525648551
16525655203
16525661307
16525668570
16525672659
16525681449
16525686759
16525692008
16525696890
16525700858
16525706046
16525711356
16525713004
16525723441
16525727591
16525732596
16525738089
16525742484
16525745474
16525755179
16525760367
16525765921
16525771902
16525775748
16525781973
16525786368
16525791739
16525797598
16525802603
16525808829
16525814993
16525819937
16525826224
16525830618
16525836050
16525840445
16525845633
16525853628
16525857473
16525864126
16525869070
16525874868
16525879934
16525886160
16525891653
16525897268
16525902212
16525907705
16525912588
16525919546
16525924246
16525928640
16525936087
16525945913
16525953054
16525966604
16525974233
16525982717
16525991628
16525998159
16526007803
16526014517
16526021902
16526030691
16526038015
16526044302
16526052480
16526061147
16526069204
16526076101
16526086111
16526093496
16526103445
16526108144
16526117727
16526122487
16526132131
16526137014
16526147634
16526152273
16526162343
16526169545
16526175954
16526180776
16526192739
16526200673
16526206472
16526214711
16526220632
16526229299
16526237111
16526245412
16526254201
16526262563
16526270375
16526280873
16526290151
16526299184
16526307546
16526318288
16526330739
16526339406
16526348317
16526356679
16526365834
16526373585
16526379262
16526386891
16526395192
16526401845
16526408070
16526415516
16526421559
16526431813
16526438710
16526444752
16526453358
16526459218
16526466908
16526474354
16526482594
16526490895
16526496632
16526504261
16526510365
16526517567
16526524586
16526530445
16526539662
16526544056
16526552784
16526560230
16526567616
16526574146
16526581410
16526590443
16526598927
16526605396
16526614918
16526621082
16526627125
16526635975
16526642078
16526650867
16526659412
16526667469
16526672047
16526682667
16526687183
16526697681
16526702564
16526713917
16526721790
16526729419
16526735706
16526743274
16526751087
16526757068
16526766651
16526775318
16526782032
16526787708
16526795642
16526803760
16526810230
16526816455
16526825611
16526832508
16526840503
16526847339
16526855640
16526862171
16526871143
16526875720
16526886951
16526895862
16526902210
16526910266
16526918262
16526924304
16526932117
16526940784
16526949329
16526957202
16526964648
16526974902
16526980029
16526991687
16527001880
16527008899
16527022510
16527031115
16527040088
16527050952
16527056384
16527068225
16527077441
16527083667
16527093005
16527104296
16527111499
16527120593
16527129077
16527136401
16527142871
16527151538
16527159289
16527164599
16527173449
16527180407
16527187731
16527195849
16527203906
16527211718
16527219164
16527228075
16527232287
16527240649
16527249010
16527255663
16527262011
16527265246
16527274706
16527279467
16527285570
16527291796
16527297838
16527302477
16527306872
16527315844
16527323107
16527328295
16527334032
16527337999
16527343981
16527349596
16527356615
16527362108
16527367724
16527371203
16527378099
16527382067
16527390429
16527397448
16527402452
16527409532
16527414720
16527421678
16527426805
16527432054
16527436876
16527442980
16527448900
16527456957
16527461473
16527470079
16527474840
16527481615
16527487779
16527495165
16527502428
16527507433
16527514391
16527520067
16527530992
16527537340
16527539537
16527550157
16527554124
16527561876
16527568162
16527573289
16527577867
16527584886
16527588548
16527598680
16527604539
16527611131
16527619493
16527625779
16527630357
16527637559
16527642442
16527658311
16527663438
16527671983
16527677720
16527682481
16527686448
16527692064
16527698106
16527706834
16527713975
16527719956
16527723497
16527728990
16527733262
16527738755
16527743455
16527749009
16527754136
16527761216
16527765061
16527772752
16527780503
16527786485
16527792100
16527797044
16527802842
16527807298
16527812791
16527820298
16527824326
16527832200
16527837571
16527842393
16527847153
16527853196
16527859055
16527864976
16527870347
16527875962
16527882493
16527886948
16527892197
16527899277
16527905869
16527910874
16527916245
16527920395
16527930649
16527936265
16527942795
16527946579
16527953537
16527957932
16527966477
16527971726
16527977036
16527982834
16527988633
16527993454
16527999741
16528006089
16528011887
16528018967
16528021164
16528030808
16528037033
16528041794
16528049545
16528054367
16528060471
16528065048
16528068649
16528077072
16528083603
16528088852
16528095871
16528100876
16528106247
16528112228
16528118942
16528125534
16528132187
16528139511
16528145920
16528150864
16528158493
16528163986
16528171738
16528178757
16528187668
16528194565
16528201950
16528208969
16528218429
16528226364
16528233200
16528246383
16528252548
16528263778
16528272995
16528277023
16528292770
16528299179
16528309005
16528318527
16528326461
16528334701
16528344345
16528349960
16528354598
16528363265
16528370284
16528377181
16528381515
16528389633
16528393722
16528400863
16528404525
16528412704
16528416244
16528422836
16528428207
16528437118
16528443343
16528449264
16528452499
16528458663
16528463546
16528469771
16528474288
16528481307
16528484969
16528493453
16528497054
16528503524
16528512557
16528520003
16528527572
16528537154
16528546370
16528554488
16528559127
16528568953
16528577437
16528585311
16528591475
16528600142
16528609175
16528616927
16528623946
16528631758
16528640120
16528647933
16528650557
16528661727
16528670394
16528678267
16528686018
16528693953
16528702864
16528708907
16528718367
16528727034
16528735457
16528742049
16528751082
16528757979
16528766035
16528774885
16528785017
16528790327
16528800886
16528809981
16528815413
16528829634
16528836958
16528847883
16528857100
16528865156
16528873457
16528879927
16528887434
16528894575
16528904768
16528914534
16528924055
16528930769
16528939924
16528946821
16528954572
16528962568
16528972639
16528979475
16528986982
16528997236
16529004865
16529015363
16529023054
16529033369
16529040632
16529050458
16529058759
16529066267
16529073408
16529080488
16529085737
16529096174
16529101728
16529108869
16529116010
16529123456
16529131208
16529139631
16529146589
16529154706
16529162153
16529167096
16529174726
16529180646
16529188459
16529194379
16529205976
16529212140
16529220563
16529226483
16529233441
16529240521
16529247296
16529254682
16529263654
16529271832
16529276715
16529286176
16529293561
16529300458
16529310407
16529318646
16529324017
16529332867
16529339703
16529349225
16529353986
16529364239
16529373273
16529380231
16529389813
16529394330
16529404095
16529409039
16529419476
16529429486
16529435956
16529444500
16529453412
16529461285
16529469159
16529478375
16529486370
16529493267
16529501507
16529506390
16529517315
16529525189
16529531414
16529541668
16529548626
16529556927
16529561871
16529572186
16529576946
16529588604
16529597393
16529603619
16529612286
16529619732
16529628399
16529634930
16529646343
16529653240
16529662151
16529669170
16529676494
16529685222
16529693157
16529703777
16529716533
16529722820
16529733257
16529742778
16529751873
16529760296
16529770794
16529779094
16529786052
16529791729
16529798198
16529808208
16529812786
16529822856
16529831218
16529835308
16529842204
16529847698
16529853435
16529859783
16529865764
16529870464
16529877483
16529882793
16529887737
16529894450
16529898784
16529904399
16529910564
16529916057
16529922221
16529927531
16529933208
16529937907
16529943278
16529949687
16529958476
16529964519
16529969401
16529975627
16529980510
16529986064
16529990581
16529997844
16530002910
16530006938
16530014689
16530018351
16530025615
16530030009
16530035563
16530042582
16530050456
16530055766
16530063151
16530068156
16530073161
16530079692
16530084574
16530092509
16530097514
16530104899
16530110881
16530116435
16530122721
16530127726
16530135172
16530139140
16530146830
16530150492
16530158244
16530162394
16530169901
16530176066
16530182902
16530187724
16530194376
16530199809
16530207133
16530215250
16530224284
16530231364
16530236430
16530241801
16530249186
16530256144
16530261637
16530268412
16530272318
16530279337
16530283549
16530291727
16530297037
16530303629
16530309000
16530314371
16530319437
16530327067
16530333658
16530341044
16530346659
16530355753
16530362894
16530369669
16530373697
16530380350
16530385782
16530392435
16530397318
16530406412
16530411844
16530417276
16530422342
16530428324
16530434122
16530439554
16530443949
16530450784
16530456522
16530462137
16530466470
16530471109
16530475321
16530482340
16530487283
16530492716
16530498819
16530504434
16530510965
16530517435
16530522684
16530528787
16530533853
16530539163
16530543924
16530551004
16530556375
16530562723
16530567972
16530572916
16530578287
16530587442
16530593789
16530600076
16530605081
16530611856
16530616678
16530622842
16530630227
16530632486
16530641702
16530645364
16530653909
16530657876
16530665322
16530671487
16530676858
16530682046
16530687722
16530693093
16530701028
16530707681
16530714517
16530720925
16530727334
16530732583
16530738503
16530743814
16530750649
16530756021
16530762856
16530767983
16530775491
16530781472
16530785806
16530794167
16530798379
16530806130
16530812539
16530818703
16530824013
16530831094
16530837624
16530844033
16530850625
16530856240
16530864358
16530870034
16530877236
16530881508
16530890786
16530897011
16530903481
16530910012
16530917885
16530926796
16530934914
16530942482
16530948403
16530959511
16530968300
16530977700
16530986611
16530996193
16531003884
16531010231
16531021767
16531027260
16531037331
16531045326
16531051003
16531066994
16531072792
16531083046
16531087685
16531095680
16531101662
16531108559
16531115822
16531122292
16531127724
16531134254
16531140846
16531145851
16531152138
16531156227
16531162208
16531170021
16531175270
16531181068
16531187416
16531192482
16531199379
16531204872
16531209327
16531215736
16531222267
16531227150
16531233864
16531239540
16531245460
16531249000
16531256385
16531262367
16531268898
16531275245
16531279823
16531285499
16531291969
16531298194
16531302589
16531307594
16531314491
16531319984
16531326820
16531332435
16531338600
16531343604
16531348731
16531353309
16531362464
16531367896
16531374610
16531380897
16531386329
16531391090
16531398231
16531402747
16531407691
16531415382
16531421546
16531427344
16531433021
16531438087
16531444923
16531449439
16531454505
16531461768
16531465735
16531473609
16531479774
16531484717
16531490272
16531497107
16531502112
16531510657
16531517981
16531524756
16531530249
16531535926
16531541053
16531547339
16531552161
16531560645
16531565955
16531573279
16531576636
16531583350
16531588721
16531595435
16531599097
16531608557
16531612708
16531622046
16531626013
16531635535
16531641944
16531648840
16531654028
16531663550
16531668372
16531676611
16531682227
16531689246
16531695410
16531702002
16531708289
16531716406
16531722082
16531728064
16531733313
16531741370
16531745215
16531752966
16531759375
16531764258
16531770544
16531776648
16531782385
16531788672
16531795691
16531800573
16531807287
16531814184
16531820776
16531826330
16531832861
16531839514
16531843908
16531849951
16531856787
16531861303
16531867529
16531872107
16531878149
16531884558
16531890722
16531896032
16531903112
16531909521
16531915319
16531919409
16531924902
16531930761
16531936437
16531941381
16531944738
16531954565
16531961645
16531966039
16531971044
16531977514
16531983068
16531989538
16531994421
16532000829
16532006322
16532013097
16532019933
16532024877
16532029333
16532035985
16532040929
16532048620
16532055944
16532061742
16532066076
16532072545
16532080419
16532087987
16532092748
16532099035
16532105138
16532107274
16532117467
16532119664
16532129247
16532134313
16532140538
16532144384
16532151708
16532155675
16532163793
16532169347
16532173925
16532181005
16532186315
16532191136
16532198033
16532205052
16532210790
16532217687
16532219945
16532229833
16532235143
16532240392
16532247472
16532254003
16532261144
16532267125
16532272984
16532280492
16532286839
16532293187
16532299840
16532307286
16532314305
16532320775
16532326146
16532332188
16532337376
16532344212
16532349339
16532356053
16532360875
16532367589
16532372655
16532380833
16532387181
16532392552
16532398045
16532405064
16532410923
16532417943
16532422093
16532430699
16532435093
16532443455
16532449070
16532455479
16532459874
16532466648
16532471470
16532477696
16532481236
16532488194
16532493199
16532501683
16532505955
16532513401
16532517369
16532525486
16532529270
16532537266
16532540806
16532550266
16532552830
16532561436
16532565037
16532572605
16532577915
16532583042
16532590672
16532595493
16532603794
16532612644
16532618504
16532622654
16532629002
16532633945
16532642368
16532647068
16532654453
16532659153
16532665195
16532671177
16532676426
16532682773
16532686863
16532693882
16532700168
16532704685
16532711033
16532717136
16532720920
16532728428
16532732029
16532740696
16532744846
16532752109
16532756321
16532763889
16532768344
16532777072
16532784641
16532789402
16532795322
16532801486
16532807712
16532814853
16532821323
16532827060
16532834567
16532839755
16532845737
16532850314
16532853854
16532864597
16532869235
16532878207
16532882663
16532891696
16532897495
16532904391
16532908603
16532916965
16532922153
16532928805
16532932529
16532942538
16532946139
16532954318
16532957919
16532963351
16532968173
16532975131
16532978732
16532986850
16532990329
16532998446
16533002231
16533009799
16533015719
16533021518
16533026523
16533031955
16533037082
16533043002
16533047885
16533053195
16533059848
16533064608
16533071810
16533077670
16533084140
16533089450
16533094271
16533099337
16533104159
16533111483
16533116122
16533122408
16533129672
16533136019
16533140902
16533144564
16533152865
16533157321
16533164950
16533168917
16533176485
16533181857
16533189547
16533195712
16533201876
16533206881
16533212252
16533217501
16533225375
16533230501
16533238070
16533243746
16533251192
16533256869
16533263094
16533269259
16533271456
16533281344
16533283663
16533292452
16533298983
16533303743
16533309664
16533317232
16533321077
16533328707
16533333956
16533339937
16533346102
16533352816
16533359468
16533363985
16533369783
16533376924
16533381624
16533388216
16533393648
16533400118
16533405916
16533411409
16533418733
16533426241
16533432466
16533439546
16533444429
16533448213
16533457002
16533462740
16533469331
16533473177
16533483064
16533491487
16533497835
16533504243
16533511201
16533516817
16533522432
16533528474
16533536592
16533543306
16533546846
16533553682
16533559785
16533564241
16533569429
16533576509
16533582979
16533588289
16533593660
16533600496
16533605378
16533610750
16533615388
16533621675
16533627534
16533633760
16533638826
16533644685
16533649018
16533653596
16533658113
16533664399
16533669343
16533675202
16533679963
16533686738
16533691499
16533699922
16533703523
16533713899
16533720735
16533725739
16533732514
16533738007
16533745271
16533751130
16533756928
16533763093
16533768464
16533773225
16533778352
16533783967
16533790986
16533795747
16533802766
16533807587
16533813386
16533819611
16533825593
16533830476
16533834504
16533842621
16533846589
16533854279
16533859589
16533866913
16533872712
16533878266
16533883576
16533889435
16533894562
16533901703
16533906220
16533912690
16533918488
16533924958
16533929718
16533936127
16533941986
16533945526
16533954926
16533959931
16533965790
16533973725
16533978119
16533983612
16533989838
16533995880
16534003693
16534008332
16534015045
16534022003
16534027985
16534032990
16534040131
16534045990
16534052399
16534059174
16534065033
16534071014
16534077362
16534082428
16534086884
16534095245
16534099457
16534108490
16534116913
16534122589
16534128509
16534134674
16534141022
16534147552
16534152069
16534159393
16534165680
16534170502
16534176788
16534182525
16534188751
16534194916
16534200042
16534206085
16534210724
16534216583
16534221588
16534226349
16534232330
16534236480
16534242584
16534248809
16534254547
16534259185
16534264495
16534270477
16534275177
16534280975
16534286407
16534292816
16534300140
16534305755
16534311248
16534314849
16534321990
16534326690
16534333953
16534338897
16534344940
16534350005
16534356902
16534361846
16534367339
16534371856
16534379424
16534384673
16534392303
16534397369
16534404021
16534408416
16534414092
16534419829
16534425384
16534431792
16534436736
16534442718
16534446258
16534453704
16534457061
16534465240
16534470733
16534477508
16534483062
16534489531
16534493255
16534501677
16534507720
16534512664
16534516631
16534526824
16534529021
16534537383
16534541655
16534549712
16534553557
16534559539
16534565154
16534572905
16534578032
16534583281
16534588103
16534593657
16534600310
16534607268
16534612639
16534617217
16534626982
16534632414
16534639555
16534643645
16534649931
16534656401
16534662505
16534667998
16534675810
16534682951
16534691130
16534694487
16534701384
16534705595
16534713103
16534717070
16534725859
16534729643
16534736418
16534741789
16534747282
16534751372
16534757719
16534761687
16534769621
16534773344
16534781767
16534785185
16534793242
16534796843
16534804533
16534808134
16534816679
16534820707
16534827177
16534832304
16534837431
16534842192
16534848051
16534853300
16534861540
16534868009
16534872587
16534877104
16534883268
16534887968
16534894804
16534899748
16534906950
16534912748
16534919035
16534925199
16534930876
16534936369
16534942899
16534948698
16534954191
16534961881
16534965665
16534972440
16534978239
16534985258
16534990629
16534996976
16535002225
16535008329
16535015958
16535022550
16535027433
16535032133
16535039152
16535045194
16535051603
16535056363
16535062467
16535065946
16535075956
16535080289
16535088712
16535092740
16535099454
16535105619
16535111417
16535118192
16535122709
16535127347
16535134488
16535139371
16535145841
16535150663
16535157682
16535166593
16535172086
16535178556
16535182523
16535188626
16535194547
16535202237
16535207486
16535214627
16535219937
16535227261
16535233121
16535238797
16535245755
16535252347
16535258817
16535263089
16535271451
16535275540
16535284634
16535290799
16535295377
16535301602
16535309964
16535315091
16535322903
16535332364
16535338772
16535344144
16535350369
16535357876
16535363064
16535369107
16535373379
16535378933
16535384610
16535388638
16535396451
16535400235
16535407254
16535412137
16535418301
16535423062
16535428372
16535434414
16535442837
16535448452
16535454373
16535459011
16535466152
16535468228
16535476345
16535480007
16535488430
16535492520
16535499783
16535503445
16535510769
16535514248
16535522000
16535526272
16535533047
16535538357
16535545437
16535550747
16535555691
16535563381
16535567959
16535574978
16535579739
16535585964
16535590420
16535597134
16535602627
16535609707
16535613491
16535621181
16535625698
16535632168
16535637661
16535643581
16535648952
16535655666
16535662685
16535667812
16535672695
16535678859
16535685695
16535691311
16535696621
16535704311
16535709621
16535715786
16535720668
16535724758
16535732936
16535738430
16535744777
16535751003
16535756923
16535763881
16535768093
16535774562
16535782558
16535788295
16535795314
16535800197
16535805934
16535811000
16535820827
16535827907
16535837184
16535845119
16535849574
16535860439
16535866420
16535872585
16535879054
16535883754
16535889857
16535895534
16535900783
16535905543
16535911037
16535917445
16535923183
16535928371
16535934230
16535939601
16535945460
16535950770
16535957179
16535962367
16535968348
16535972621
16535977626
16535980555
16535987941
16535993495
16535999415
16536004420
16536008815
16536014613
16536019618
16536024134
16536029445
16536035792
16536040248
16536046046
16536050563
16536057399
16536062770
16536067286
16536072291
16536079493
16536082789
16536090480
16536096095
16536101893
16536107264
16536112635
16536118861
16536124537
16536131007
16536136012
16536142176
16536148280
16536154139
16536158961
16536166407
16536171046
16536176478
16536181178
16536187037
16536191614
16536196558
16536201258
16536208948
16536213160
16536220301
16536223719
16536231653
16536237452
16536242335
16536247645
16536255030
16536261255
16536268030
16536272608
16536277491
16536283716
16536288782
16536294825
16536301905
16536307215
16536312037
16536318201
16536323267
16536329248
16536333887
16536341577
16536345179
16536351770
16536357447
16536362268
16536367090
16536373682
16536378076
16536384668
16536389917
16536396448
16536401636
16536406824
16536413477
16536418176
16536424768
16536430567
16536437647
16536445093
16536450037
16536459680
16536464136
16536472131
16536476709
16536485620
16536494348
16536503503
16536510278
16536517175
16536523889
16536527734
16536534082
16536539697
16536545068
16536550439
16536556299
16536560693
16536566675
16536573266
16536577905
16536584375
16536589624
16536595300
16536599328
16536607019
16536610681
16536618982
16536622522
16536629602
16536633325
16536641137
16536646997
16536651757
16536658105
16536665063
16536671289
16536675012
16536680688
16536686914
16536690759
16536695031
16536700891
16536706445
16536711572
16536717431
16536722741
16536726586
16536732018
16536738244
16536744408
16536749841
16536754907
16536761254
16536766442
16536770959
16536775780
16536782677
16536787621
16536793053
16536799340
16536809838
16536818566
16536826073
16536835168
16536844079
16536849022
16536854333
16536859398
16536863793
16536868126
16536874962
16536882042
16536886925
16536891808
16536897240
16536902428
16536907128
16536916222
16536921959
16536926293
16536932213
16536937584
16536942162
16536946312
16536953453
16536959130
16536964318
16536968590
16536974083
16536979393
16536983238
16536989037
16536995323
16537002342
16537011131
16537015099
16537021935
16537026085
16537032005
16537039452
16537044762
16537050011
16537054100
16537058434
16537064537
16537068748
16537076317
16537079613
16537087120
16537093040
16537098534
16537101646
16537108360
16537111168
16537118614
16537121971
16537129356
16537134971
16537140587
16537146385
16537150474
16537156883
16537161888
16537166099
16537170982
16537176536
16537180809
16537186546
16537191978
16537198631
16537203025
16537209983
16537214256
16537219383
16537225181
16537230735
16537236473
16537242149
16537248374
16537253562
16537259178
16537265037
16537269248
16537272544
16537280479
16537285362
16537291404
16537297386
16537302696
16537307517
16537313438
16537318687
16537325095
16537328758
16537339622
16537345542
16537352012
16537356345
16537362266
16537367332
16537374534
16537380820
16537387412
16537393760
16537399192
16537404746
16537411094
16537414390
16537420737
16537426475
16537434653
16537441306
16537447837
16537453818
16537458152
16537464560
16537471518
16537476096
16537482444
16537488913
16537494346
16537500998
16537506064
16537510886
16537515647
16537522849
16537529624
16537535300
16537538779
16537545798
16537550742
16537557944
16537561728
16537572653
16537582663
16537589255
16537595664
16537602561
16537607810
16537612265
16537621054
16537627341
16537635886
16537644614
16537653342
16537659628
16537668173
16537671469
16537680685
16537687460
16537692038
16537697714
16537702963
16537706259
16537713278
16537716391
16537723227
16537729086
16537735007
16537738180
16537746237
16537749594
16537758200
16537762167
16537771078
16537774923
16537782431
16537788046
16537793112
16537797751
16537802572
16537807150
16537812948
16537817709
16537823263
16537828329
16537834005
16537839987
16537844870
16537850851
16537858602
16537865011
16537870260
16537875021
16537879232
16537882406
16537891073
16537894613
16537903829
16537907614
16537914510
16537917867
16537924581
16537929403
16537935262
16537939657
16537947714
16537951681
16537959310
16537962972
16537971334
16537978109
16537984029
16537986349
16537996053
16538002523
16538008565
16538014547
16538019918
16538023458
16538031515
16538034994
16538042013
16538048238
16538053975
16538057088
16538064596
16538067952
16538074483
16538078939
16538086507
16538090291
16538098043
16538101278
16538108602
16538115071
16538120504
16538125570
16538133016
16538140340
16538147359
16538152974
16538161519
16538165486
16538173726
16538177449
16538188252
16538195821
16538202352
16538208394
16538214131
16538215840
16538224263
16538231648
16538238484
16538244099
16538248799
16538254903
16538259480
16538265401
16538270528
16538276570
16538280049
16538287678
16538292744
16538299092
16538302510
16538309468
16538312947
16538321553
16538327412
16538331441
16538336995
16538342976
16538348591
16538354939
16538361775
16538366719
16538373677
16538379902
16538385090
16538389668
16538395283
16538401326
16538408772
16538413533
16538420491
16538425740
16538435994
16538440937
16538448567
16538452717
16538463215
16538470295
16538476704
16538483723
16538488178
16538495014
16538499043
16538504963
16538510944
16538517841
16538526997
16538539997
16538551594
16538562214
16538570209
16538578632
16538585773
16538593098
16538599628
16538607563
16538613544
16538618183
16538623371
16538628498
16538632831
16538636982
16538642292
16538646992
16538651447
16538656147
16538662189
16538666889
