16157869524
16157876177
16157881670
16157886919
16157892046
16157898943
16157905901
16157910906
16157916887
16157921282
16157927385
16157934404
16157940630
16157946794
16157951494
16157958635
16157966509
16157971025
16157979509
16157986345
16157992693
16157999162
16158006425
16158011247
16158017046
16158024065
16158029191
16158033708
16158042802
16158048051
16158054216
16158062578
16158070024
16158074540
16158084001
16158091508
16158098222
16158103837
16158110734
16158119035
16158126847
16158133439
16158141008
16158148698
16158156694
16158163530
16158169572
16158175614
16158184709
16158192704
16158199784
16158203874
16158211259
16158217301
16158222245
16158231523
16158238053
16158242875
16158251420
16158259416
16158265214
16158271073
16158278764
16158284867
16158293412
16158300614
16158305924
16158312943
16158318436
16158325577
16158331315
16158340531
16158344559
16158352250
16158355973
16158364396
16158367997
16158376420
16158382279
16158388199
16158393143
16158399247
16158405900
16158410843
16158417557
16158424576
16158430497
16158437088
16158442582
16158448929
16158455704
16158460465
16158468094
16158474442
16158480667
16158487503
16158495072
16158500626
16158507828
16158512894
16158520340
16158526993
16158534866
16158542130
16158550919
16158558975
16158566422
16158574905
16158580276
16158587357
16158594864
16158601028
16158606583
16158615250
16158619217
16158629288
16158633438
16158642227
16158649246
16158655594
16158661148
16158668228
16158677627
16158684219
16158693557
16158699356
16158705032
16158712600
16158716385
16158725357
16158732254
16158739700
16158746414
16158753250
16158759536
16158765701
16158772293
16158780960
16158785354
16158793228
16158798232
16158806228
16158815017
16158820205
16158828140
16158832412
16158840652
16158846511
16158852920
16158858718
16158866225
16158873977
16158879775
16158886794
16158892226
16158900832
16158905410
16158916152
16158922805
16158930190
16158938186
16158941970
16158951797
16158958999
16158966689
16158972793
16158979018
16158988418
16158995498
16159001052
16159009414
16159017470
16159024611
16159031691
16159037551
16159046828
16159053847
16159061232
16159069594
16159076064
16159084304
16159088698
16159097914
16159105177
16159112868
16159121108
16159128310
16159137282
16159146864
16159155714
16159163893
16159171645
16159180128
16159191542
16159198317
16159209608
16159218031
16159224135
16159230971
16159237379
16159245314
16159249159
16159257094
16159265516
16159272413
16159278273
16159285170
16159292311
16159299330
16159307325
16159313551
16159322706
16159326979
16159337965
16159345839
16159351942
16159360609
16159366285
16159374464
16159381300
16159386427
16159391737
16159398329
16159400221
16159408338
16159413831
16159419569
16159425245
16159431226
16159438245
16159442640
16159448682
16159453565
16159459058
16159465650
16159470716
16159473035
16159480665
16159486951
16159492933
16159497999
16159503492
16159509962
16159514722
16159521009
16159527296
16159531141
16159540967
16159547132
16159552015
16159556714
16159562879
16159568738
16159574109
16159579358
16159585767
16159591016
16159596753
16159602979
16159608228
16159614026
16159618543
16159624768
16159630140
16159636914
16159642469
16159650281
16159655530
16159660596
16159665113
16159673535
16159677564
16159686292
16159690991
16159696851
16159702832
16159707349
16159714124
16159719678
16159726575
16159735181
16159741040
16159745252
16159755078
16159759656
16159771008
16159778027
16159782239
16159789441
16159792920
16159799084
16159804089
16159811047
16159816662
16159823132
16159828137
16159833264
16159837781
16159842663
16159847302
16159854809
16159859570
16159866528
16159870923
16159877026
16159881238
16159887402
16159892346
16159895703
16159903210
16159907055
16159915600
16159920422
16159925671
16159930798
16159937085
16159943432
16159952893
16159956799
16159965161
16159969921
16159975353
16159980480
16159987011
16159992016
16159998669
16160003124
16160010021
16160014355
16160020519
16160027599
16160029980
16160038281
16160042187
16160050182
16160054150
16160063122
16160066784
16160075451
16160079479
16160086376
16160093639
16160100780
16160106151
16160112072
16160116588
16160122326
16160129040
16160134533
16160139294
16160146190
16160152111
16160158581
16160163097
16160169323
16160175182
16160181102
16160186229
16160189892
16160200084
16160205028
16160211254
16160214794
16160221080
16160226390
16160232250
16160237255
16160243480
16160248790
16160254406
16160260509
16160264904
16160271556
16160276805
16160281017
16160287609
16160294139
16160299632
16160303966
16160310436
16160316661
16160322643
16160327770
16160335033
16160341441
16160350230
16160355174
16160362071
16160367870
16160375194
16160378734
16160386119
16160389781
16160397105
16160400157
16160406566
16160411021
16160417735
16160421214
16160430125
16160435557
16160439952
16160445201
16160452403
16160457225
16160462657
16160467051
16160473094
16160478160
16160483714
16160488597
16160495311
16160499705
16160504161
16160510020
16160516368
16160522532
16160530406
16160536387
16160544139
16160550547
16160559214
16160565684
16160575694
16160580393
16160589671
16160594126
16160604136
16160609568
16160619334
16160626292
16160635935
16160643870
16160650095
16160657175
16160666453
16160671824
16160683482
16160688364
16160700083
16160704966
16160717112
16160722605
16160732554
16160737559
16160747507
16160752634
16160762217
16160769541
16160779123
16160784189
16160794870
16160802744
16160808970
16160815561
16160827219
16160835642
16160844309
16160849436
16160858103
16160863779
16160873972
16160878610
16160889047
16160893869
16160905161
16160913339
16160919504
16160924082
16160935495
16160940317
16160951059
16160956003
16160965097
16160972726
16160980234
16160987009
16160995431
16161002328
16161010629
16161020456
16161030710
16161038827
16161049508
16161059091
16161068673
16161072030
16161085702
16161091501
16161104867
16161113168
16161121225
16161130075
16161135873
16161145089
16161152658
16161158761
16161166207
16161173776
16161181161
16161189401
16161194955
16161203195
16161210580
16161219003
16161224557
16161232552
16161240731
16161248544
16161254281
16161266244
16161273080
16161280526
16161287118
16161295296
16161302010
16161312203
16161316964
16161327462
16161332101
16161341988
16161350716
16161356026
16161363411
16161370369
16161376778
16161383736
16161390572
16161398323
16161404488
16161411995
16161417977
16161425728
16161433968
16161440255
16161449593
16161456185
16161464974
16161471688
16161481758
16161489083
16161499031
16161504707
16161513924
16161521919
16161527657
16161535530
16161542305
16161550179
16161556831
16161566231
16161572090
16161579292
16161588631
16161596077
16161603035
16161613106
16161621773
16161629768
16161638191
16161644539
16161653572
16161660896
16161670601
16161676033
16161687263
16161696418
16161703193
16161712288
16161719490
16161730659
16161738838
16161745674
16161754768
16161762641
16161774970
16161784065
16161794135
16161805671
16161816291
16161827522
16161839729
16161847419
16161853156
16161860664
16161868232
16161874580
16161881843
16161887458
16161895454
16161901984
16161905891
16161912543
16161919257
16161923652
16161928168
16161934699
16161940742
16161944465
16161949653
16161953193
16161957343
16161962653
16161970038
16161974677
16161979316
16161983710
16161991767
16161997626
16162002570
16162010260
16162015570
16162021491
16162025458
16162032782
16162038703
16162044074
16162049079
16162053412
16162059149
16162063727
16162069342
16162075812
16162082343
16162088202
16162095587
16162102912
16162109259
16162116217
16162121466
16162128119
16162133429
16162138129
16162144293
16162149359
16162155707
16162161261
16162164557
16162174200
16162180487
16162187018
16162193487
16162198004
16162204291
16162208868
16162212591
16162219671
16162224066
16162230902
16162236090
16162241034
16162246649
16162252813
16162259771
16162264898
16162269781
16162276861
16162282171
16162290045
16162295538
16162299383
16162308111
16162314520
16162319403
16162325506
16162331732
16162337774
16162345770
16162350897
16162359320
16162365484
16162372625
16162378118
16162381903
16162392034
16162398687
16162408392
16162415228
16162420538
16162426763
16162431402
16162437444
16162442510
16162447637
16162452276
16162458379
16162463140
16162468328
16162473089
16162479253
16162484075
16162489263
16162493597
16162499517
16162503118
16162510198
16162515020
16162520208
16162525335
16162532842
16162536260
16162542669
16162547979
16162554387
16162560064
16162566655
16162572149
16162577703
16162582402
16162587285
16162593816
16162600286
16162605108
16162608709
16162616155
16162619695
16162630498
16162637761
16162643254
16162646916
16162654424
16162658452
16162665288
16162670537
16162678655
16162684941
16162690679
16162695256
16162701848
16162707524
16162714177
16162718877
16162724187
16162730901
16162737737
16162742680
16162748540
16162753362
16162759404
16162765691
16162770756
16162776433
16162781743
16162788518
16162793645
16162798527
16162804143
16162809819
16162815861
16162821416
16162827275
16162833439
16162839604
16162844609
16162849797
16162855778
16162861699
16162866642
16162873784
16162878849
16162885319
16162889347
16162897160
16162903325
16162909367
16162914860
16162920170
16162926945
16162933720
16162940251
16162947392
16162951054
16162958988
16162966557
16162974308
16162979984
16162987980
16162992375
16163000065
16163003788
16163012089
16163017094
16163024296
16163029057
16163035893
16163040775
16163046391
16163050541
16163053837
16163061283
16163064640
16163076115
16163080753
16163092838
16163100162
16163110599
16163118046
16163125919
16163134891
16163142948
16163150699
16163157657
16163165531
16163172550
16163180668
16163186527
16163195377
16163200077
16163208927
16163214115
16163224430
16163231632
16163239139
16163246219
16163255924
16163263675
16163270694
16163276920
16163285159
16163292117
16163300235
16163309207
16163317874
16163325931
16163332645
16163338565
16163343204
16163353641
16163358829
16163368472
16163377750
16163385989
16163393497
16163400394
16163409488
16163415774
16163423892
16163431521
16163436343
16163445926
16163450625
16163460635
16163465213
16163473697
16163480899
16163489261
16163496035
16163503238
16163509463
16163516726
16163522891
16163533023
16163539859
16163547854
16163553713
16163561404
16163567080
16163576052
16163582888
16163589663
16163597842
16163605227
16163612551
16163621462
16163627871
16163632815
16163643496
16163648989
16163659853
16163664980
16163673342
16163680483
16163691714
16163698855
16163705874
16163715090
16163723025
16163731814
16163739077
16163748720
16163756472
16163765627
16163773867
16163781435
16163789553
16163798708
16163806215
16163812136
16163816591
16163827761
16163832765
16163842104
16163851198
16163857118
16163861635
16163871767
16163876711
16163886904
16163891542
16163900148
16163904787
16163914369
16163919130
16163927370
16163934816
16163944032
16163950929
16163958803
16163965211
16163973085
16163980043
16163986696
16163995546
16164002504
16164008424
16164015809
16164022096
16164030458
16164038576
16164045900
16164052247
16164057374
16164066346
16164075380
16164082399
16164091371
16164098817
16164105775
16164112367
16164122377
16164130433
16164137635
16164145997
16164152467
16164161012
16164167604
16164176332
16164182862
16164191773
16164200074
16164207093
16164214356
16164219910
16164231385
16164237428
16164246339
16164251405
16164262696
16164267579
16164277772
16164285889
16164293885
16164300721
16164307130
16164313904
16164324402
16164330750
16164338379
16164347168
16164350159
16164361756
16164366700
16164376282
16164381348
16164390931
16164396973
16164407471
16164414551
16164424561
16164433777
16164441040
16164448181
16164456787
16164464356
16164473145
16164479675
16164486694
16164491882
16164498291
16164503906
16164514526
16164520630
16164525024
16164531555
16164537842
16164543945
16164550720
16164556213
16164562378
16164568237
16164574646
16164578491
16164583923
16164587585
16164590515
16164596374
16164601929
16164608032
16164612610
16164618042
16164619873
16164628540
16164630371
16164638427
16164645080
16164649353
16164653015
16164660705
16164666382
16164671447
16164675048
16164683654
16164687378
16164695434
16164699401
16164707153
16164712280
16164717651
16164722656
16164727661
16164732116
16164738525
16164744934
16164750244
16164755248
16164759887
16164765441
16164770873
16164775939
16164779296
16164787231
16164792114
16164797118
16164801269
16164806274
16164810973
16164817687
16164820922
16164827453
16164830871
16164836852
16164839843
16164847106
16164851684
16164856689
16164862182
16164869140
16164873290
16164880553
16164884521
16164892333
16164896117
16164904052
16164907958
16164916320
16164922362
16164928100
16164936706
16164941832
16164947204
16164953063
16164957763
16164965026
16164970458
16164976989
16164981994
16164988463
16164994384
16164998351
16165006102
16165012450
16165018615
16165024047
16165029540
16165034606
16165041014
16165046202
16165051818
16165059264
16165064452
16165070677
16165075987
16165082030
16165093627
16165100462
16165105528
16165114684
16165118895
16165129637
16165133665
16165145079
16165150450
16165156981
16165163573
16165168761
16165174498
16165178770
16165184263
16165188475
16165193602
16165197874
16165203367
16165207518
16165215208
16165221373
16165227415
16165231016
16165238341
16165243467
16165247618
16165252073
16165259825
16165265379
16165270628
16165275938
16165280577
16165285276
16165291868
16165296263
16165303282
16165306944
16165314024
16165319029
16165324522
16165328977
16165333616
16165338926
16165344725
16165349424
16165353819
16165358579
16165364195
16165368772
16165374449
16165379087
16165386900
16165393369
16165400144
16165404356
16165410215
16165415891
16165420469
16165426389
16165433042
16165438108
16165444822
16165449705
16165456602
16165461179
16165467466
16165472288
16165478757
16165484861
16165491025
16165495969
16165502988
16165507627
16165514646
16165519590
16165525449
16165530149
16165536252
16165540647
16165545896
16165550168
16165561277
16165568540
16165579892
16165587583
16165596311
16165603757
16165614011
16165618955
16165630063
16165639707
16165650937
16165661374
16165667478
16165674985
16165682980
16165690854
16165699399
16165708981
16165717770
16165726010
16165734067
16165743771
16165752255
16165762570
16165772336
16165781918
16165792538
16165802792
16165812008
16165822323
16165831784
16165841794
16165851132
16165861325
16165870907
16165881588
16165891537
16165901791
16165912594
16165922055
16165931149
16165938656
16165950314
16165957882
16165970944
16165981381
16165988400
16165998898
16166009274
16166019650
16166027340
16166036800
16166048397
16166057857
16166066463
16166076046
16166087520
16166095028
16166104549
16166116817
16166126217
16166135921
16166145199
16166154842
16166161922
16166174678
16166183284
16166195736
16166200923
16166213619
16166223995
16166231014
16166243160
16166250301
16166260494
16166270625
16166281307
16166290889
16166301326
16166309627
16166320308
16166332454
16166340388
16166351741
16166363032
16166373164
16166381587
16166393123
16166401912
16166414302
16166424495
16166433711
16166444270
16166456721
16166467891
16166480830
16166489741
16166498774
16166511164
16166520503
16166529353
16166537959
16166546992
16166556941
16166566401
16166575861
16166586054
16166595698
16166604609
16166613764
16166623652
16166632014
16166642329
16166650507
16166662226
16166668940
16166682184
16166690363
16166701777
16166712519
16166721918
16166731989
16166742121
16166751825
16166761835
16166777338
16166786371
16166795282
16166806391
16166816034
16166825556
16166833246
16166843378
16166850946
16166864252
16166873285
16166882379
16166892206
16166902155
16166914789
16166922296
16166933160
16166943353
16166952875
16166962335
16166971857
16166983758
16166993890
16167002618
16167010553
16167022577
16167028009
16167040887
16167051080
16167060785
16167070428
16167079400
16167090020
16167100274
16167108331
16167115594
16167125482
16167133538
16167140679
16167147576
16167152886
16167160089
16167165460
16167178277
16167185296
16167190423
16167199517
16167204949
16167212701
16167217889
16167223565
16167230706
16167235955
16167244439
16167251519
16167257806
16167264947
16167272027
16167278680
16167286492
16167291802
16167300774
16167307671
16167313286
16167317925
16167321160
16167328911
16167335198
16167341301
16167350579
16167357354
16167362847
16167368157
16167371575
16167379021
16167387200
16167391045
16167396172
16167401482
16167406121
16167410637
16167416680
16167420037
16167426079
16167429863
16167435295
16167440666
16167444267
16167449822
16167454521
16167459648
16167463127
16167467827
16167472222
16167478447
16167481316
16167486382
16167491875
16167496697
16167501701
16167505425
16167510796
16167514397
16167519035
16167523918
16167529655
16167533928
16167538628
16167542473
16167547295
16167552849
16167556511
16167561455
16167565849
16167571342
16167577324
16167582451
16167588859
16167593559
16167599357
16167603569
16167610405
16167615410
16167618767
16167627372
16167632866
16167637321
16167642509
16167648552
16167651909
16167662040
16167665886
16167673027
16167679435
16167685783
16167691337
16167695976
16167700981
16167708488
16167710807
16167718437
16167721977
16167728263
16167732048
16167738761
16167742057
16167749931
16167754875
16167760490
16167765983
16167772514
16167777763
16167783744
16167790275
16167796256
16167801261
16167805534
16167811454
16167815971
16167821891
16167828117
16167835136
16167842094
16167846427
16167851981
16167860709
16167866019
16167872062
16167877067
16167881339
16167891898
16167896903
16167902579
16167912284
16167918631
16167922172
16167926505
16167933219
16167936637
16167943351
16167949088
16167955436
16167960440
16167965140
16167969352
16167975821
16167980277
16167986747
16167991324
16167997367
16168002433
16168008780
16168014334
16168019828
16168024405
16168030265
16168034537
16168040518
16168045401
16168051871
16168056265
16168062308
16168067862
16168071890
16168077384
16168084158
16168090201
16168093863
16168100333
16168104422
16168112967
16168119193
16168124564
16168129080
16168134085
16168138357
16168143729
16168149100
16168155325
16168160391
16168167471
16168171927
16168178946
16168184256
16168191275
16168196829
16168202994
16168208365
16168214285
16168220450
16168227530
16168233145
16168238638
16168245352
16168251638
16168256033
16168262930
16168268728
16168274954
16168279470
16168285330
16168291006
16168298147
16168303213
16168306753
16168313528
16168318899
16168325064
16168331472
16168337210
16168341909
16168348196
16168353445
16168360342
16168366445
16168371328
16168378591
16168384329
16168388967
16168392568
16168401113
16168405691
16168416738
16168421743
16168433584
16168438467
16168448476
16168453847
16168466421
16168477895
16168485158
16168493398
16168502736
16168510610
16168517263
16168528615
16168538259
16168546743
16168553029
16168561452
16168566213
16168577016
16168581716
16168592946
16168601857
16168610646
16168613881
16168625173
16168632314
16168640248
16168648427
16168656117
16168663320
16168671132
16168677174
16168685109
16168692067
16168700246
16168708241
16168716908
16168724782
16168733327
16168742909
16168763661
16168773854
16168782460
16168790272
16168796986
16168805897
16168814808
16168821888
16168832509
16168842640
16168848256
16168857106
16168863209
16168872548
16168879322
16168887562
16168894825
16168904774
16168913319
16168921742
16168929737
16168935780
16168944996
16168951405
16168960682
16168969715
16168978932
16168983631
16168991627
16168998280
16169007740
16169019764
16169029041
16169036060
16169043690
16169051441
16169059315
16169065906
16169073719
16169083790
16169089710
16169098865
16169105396
16169114246
16169123096
16169130298
16169136463
16169145801
16169153186
16169162769
16169167957
16169177295
16169185596
16169192920
16169201282
16169208850
16169221729
16169230823
16169240466
16169249317
16169257861
16169267017
16169274829
16169283984
16169289356
16169300159
16169308643
16169316211
16169321704
16169328052
16169335132
16169340137
16169347217
16169354785
16169363147
16169369128
16169378100
16169386096
16169393054
16169398913
16169405322
16169414111
16169422229
16169432483
16169440112
16169445483
16169454455
16169459582
16169469958
16169477099
16169486499
16169495593
16169503283
16169510913
16169524584
16169532580
16169541308
16169550280
16169556506
16169561694
16169573962
16169578967
16169588549
16169593493
16169603991
16169609728
16169618883
16169625841
16169634325
16169642260
16169651415
16169661730
16169670336
16169676806
16169689745
16169695666
16169709582
16169714342
16169726671
16169736193
16169741808
16169750414
16169757860
16169764696
16169772570
16169779955
16169785875
16169792589
16169798082
16169806566
16169812364
16169817980
16169822069
16169828539
16169834886
16169841295
16169845201
16169850694
16169854723
16169860948
16169865770
16169874193
16169879198
16169884813
16169887987
16169894823
16169898241
16169906602
16169910448
16169919420
16169926012
16169931078
16169937120
16169942125
16169948350
16169953905
16169959642
16169965562
16169971849
16169977464
16169982286
16169986070
16169991258
16169996507
16170001207
16170007310
16170011461
16170016771
16170021592
16170028428
16170032823
16170038560
16170045701
16170050767
16170056443
16170061082
16170068528
16170074937
16170080430
16170084458
16170090501
16170096910
16170102586
16170107163
16170112657
16170117478
16170123643
16170127976
16170137071
16170140367
16170149461
16170153489
16170158677
16170161668
16170168443
16170173020
16170181199
16170185960
16170190781
16170193528
16170199998
16170202927
16170208909
16170212083
16170219895
16170226548
16170232407
16170237717
16170243333
16170248154
16170253525
16170258652
16170264634
16170270920
16170275254
16170280869
16170284897
16170290268
16170294236
16170301682
16170307419
16170315415
16170318650
16170325791
16170328904
16170336472
16170339646
16170349045
16170354538
16170362961
16170367905
16170372483
16170379441
16170384201
16170390244
16170395371
16170400254
16170404953
16170411911
16170417465
16170422898
16170426499
16170434860
16170440659
16170446457
16170452194
16170457260
16170460373
16170469650
16170476425
16170482407
16170487900
16170492844
16170498825
16170504257
16170511276
16170515671
16170522568
16170527512
16170532150
16170537460
16170542709
16170548141
16170553451
16170557907
16170562973
16170569321
16170573715
16170579757
16170584518
16170589706
16170593429
16170598251
16170603317
16170609421
16170613144
16170619186
16170623275
16170628647
16170634262
16170640548
16170647384
16170652023
16170655746
16170661972
16170666000
16170672897
16170677719
16170684066
16170688583
16170695175
16170699142
16170704879
16170709823
16170716415
16170721542
16170728134
16170733505
16170739608
16170743514
16170749374
16170754745
16170759017
16170764999
16170770736
16170776351
16170782516
16170787765
16170792953
16170799850
16170805343
16170809432
16170815780
16170821578
16170827315
16170832564
16170834518
16170841781
16170844955
16170852584
16170855819
16170866073
16170871139
16170881454
16170889327
16170895247
16170899703
16170910567
16170915450
16170926497
16170935042
16170942489
16170948531
16170956221
16170960860
16170971297
16170976241
16170986983
16170995101
16171002547
16171010665
16171018294
16171025435
16171034224
16171045027
16171053572
16171064497
16171069258
16171081282
16171087264
16171098189
16171103133
16171121199
16171130171
16171137434
16171143294
16171151472
16171159041
16171161726
16171172346
16171176863
16171188643
16171193709
16171203779
16171211348
16171219648
16171228865
16171235579
16171244062
16171252913
16171260542
16171270857
16171279463
16171283979
16171292585
16171300032
16171308760
16171317488
16171324018
16171332502
16171341657
16171349775
16171355634
16171363935
16171369795
16171378889
16171385603
16171394819
16171403303
16171411176
16171419904
16171427167
16171436018
16171444501
16171452680
16171459150
16171467023
16171474286
16171482282
16171490156
16171496991
16171506208
16171514875
16171522077
16171530744
16171539045
16171548444
16171555341
16171564862
16171572614
16171579572
16171588300
16171595380
16171603070
16171611798
16171619306
16171626569
16171635175
16171642682
16171649701
16171655438
16171665875
16171672955
16171680402
16171689923
16171695905
16171703595
16171711896
16171722272
16171729901
16171739911
16171747540
16171755963
16171763165
16171771405
16171781048
16171788250
16171796979
16171811383
16171820660
16171831952
16171841839
16171853802
16171862408
16171869488
16171878399
16171883892
16171896038
16171903607
16171911907
16171919720
16171926800
16171931378
16171942913
16171950054
16171958050
16171963177
16171974957
16171984356
16171991863
16171999798
16172006145
16172012859
16172024212
16172034038
16172042095
16172053081
16172058330
16172066753
16172074871
16172080730
16172088970
16172097759
16172104473
16172113445
16172119610
16172127117
16172134319
16172146038
16172151226
16172162151
16172170146
16172178508
16172185771
16172194194
16172200603
16172209270
16172217510
16172225322
16172232341
16172239055
16172244548
16172251872
16172260417
16172266277
16172271281
16172276469
16172282207
16172286113
16172293620
16172297160
16172305522
16172309978
16172317912
16172324077
16172329387
16172334392
16172338969
16172342753
16172352031
16172356792
16172362590
16172368754
16172373820
16172380717
16172385661
16172391215
16172396769
16172401225
16172406108
16172413005
16172419658
16172426005
16172431315
16172436564
16172442485
16172449504
16172455302
16172461283
16172467143
16172474223
16172478190
16172488444
16172496440
16172502543
16172508525
16172514384
16172518534
16172527384
16172531046
16172543131
16172549540
16172555277
16172560648
16172567301
16172572855
16172577555
16172583720
16172588053
16172593974
16172598551
16172604411
16172609171
16172614909
16172619181
16172625529
16172632792
16172638834
16172644266
16172649821
16172654154
16172659403
16172665262
16172672159
16172677653
16172682596
16172688090
16172690287
16172698954
16172703959
16172711100
16172715128
16172721720
16172725382
16172732706
16172738565
16172744974
16172750223
16172756998
16172762918
16172767923
16172772440
16172778971
16172783548
16172790140
16172795877
16172799845
16172805948
16172811624
16172819437
16172823160
16172829691
16172834818
16172840921
16172846109
16172853922
16172859476
16172864847
16172871072
16172876016
16172880716
16172886819
16172894083
16172898477
16172904581
16172911356
16172915872
16172922830
16172928201
16172935037
16172942117
16172946939
16172951700
16172955423
16172972574
16172988626
16173000589
16173009622
16173017312
16173025369
16173032632
16173041299
16173048867
16173056985
16173062478
16173067422
16173071694
16173076577
16173081033
16173086404
16173091714
16173096658
16173101357
16173106973
16173112466
16173117837
16173123635
16173130349
16173135537
16173140725
16173145852
16173151528
16173157510
16173162637
16173167214
16173172463
16173177468
16173181863
16173186806
16173191872
16173196145
16173201699
16173207314
16173213540
16173218240
16173223122
16173228676
16173234170
16173238503
16173241738
16173249245
16173252358
16173259743
16173263466
16173271035
16173275124
16173282143
16173285622
16173291848
16173297280
16173303566
16173308449
16173315163
16173319130
16173326394
16173331154
16173336159
16173341225
16173346779
16173352394
16173358193
16173363930
16173369240
16173373513
16173380104
16173385292
16173391396
16173396828
16173402870
16173407509
16173409340
16173419899
16173421852
16173433022
16173441811
16173447731
16173452492
16173462380
16173470741
16173477089
16173482643
16173493324
16173502663
16173511330
16173518959
16173525612
16173530617
16173542213
16173549476
16173557777
16173563026
16173574318
16173581215
16173589088
16173596107
16173604164
16173611854
16173618080
16173624000
16173634254
16173642250
16173648292
16173658424
16173665809
16173673622
16173678504
16173690895
16173695899
16173706886
16173715675
16173723976
16173730995
16173738807
16173749366
16173756568
16173765052
16173774329
16173781959
16173790626
16173798682
16173807777
16173817847
16173828040
16173837440
16173843726
16173853431
16173859717
16173868934
16173875403
16173886817
16173894019
16173904334
16173910498
16173919715
16173926612
16173936560
16173943152
16173952430
16173961829
16173969092
16173978125
16173985083
16173994239
16174000769
16174009863
16174019080
16174026587
16174035864
16174043372
16174050818
16174057105
16174065894
16174074622
16174081702
16174090124
16174096411
16174102087
16174112341
16174119543
16174126929
16174135596
16174146155
16174153723
16174163428
16174171179
16174178991
16174186010
16174194861
16174201574
16174209448
16174216162
16174224035
16174230871
16174239050
16174245520
16174253820
16174260961
16174271093
16174279516
16174288244
16174295507
16174303320
16174310339
16174319067
16174327062
16174337621
16174346288
16174353307
16174362157
16174370824
16174376806
16174388769
16174397436
16174405431
16174408483
16174419958
16174427343
16174436193
16174443151
16174452001
16174460302
16174467199
16174477453
16174482763
16174494481
16174499852
16174509618
16174519140
16174528539
16174536107
16174544530
16174551366
16174561193
16174571324
16174578832
16174588170
16174598302
16174607091
16174619969
16174626195
16174636449
16174643529
16174650731
16174658788
16174668126
16174674596
16174684850
16174692296
16174700536
16174707677
16174716283
16174723607
16174734227
16174738866
16174748082
16174753148
16174765660
16174773472
16174780247
16174789219
16174796788
16174805943
16174812718
16174821934
16174828465
16174838719
16174845982
16174853733
16174860997
16174867161
16174872349
16174877964
16174884007
16174891026
16174894993
16174902683
16174906895
16174913609
16174917515
16174923802
16174929661
16174937168
16174940769
16174948643
16174952610
16174961094
16174965916
16174973667
16174979832
16174987522
16174993381
16174999851
16175004002
16175011326
16175017368
16175023899
16175027805
16175036289
16175040317
16175047703
16175051670
16175058445
16175064243
16175071201
16175077121
16175084629
16175088474
16175095249
16175099216
16175106235
16175112095
16175116489
16175123081
16175129001
16175131443
16175139194
16175141452
16175150486
16175155490
16175161106
16175165012
16175176059
16175180210
16175189670
16175196018
16175203220
16175208652
16175217258
16175223422
16175231296
16175243503
16175252048
16175259982
16175265170
16175269199
16175278476
16175286044
16175293002
16175301730
16175307651
16175312228
16175315341
16175322116
16175325290
16175332980
16175338595
16175343844
16175347140
16175354587
16175358005
16175364474
16175369357
16175376315
16175381686
16175387362
16175391879
16175398471
16175402926
16175407626
16175413607
16175420016
16175423617
16175430087
16175435031
16175440219
16175444735
16175450839
16175455966
16175462069
16175468478
16175474459
16175479586
16175484530
16175489047
16175495761
16175501925
16175507845
16175514803
16175521029
16175525546
16175531466
16175536715
16175543368
16175548129
16175554903
16175559725
16175566744
16175573336
16175577853
16175583651
16175589449
16175595980
16175601839
16175609164
16175614474
16175619662
16175624850
16175630953
16175636751
16175642550
16175648897
16175650912
16175661043
16175666475
16175671969
16175675570
16175682955
16175688570
16175694796
16175700045
16175707735
16175712740
16175717989
16175723116
16175730074
16175734590
16175741426
16175746981
16175752718
16175757540
16175763887
16175770601
16175774385
16175781343
16175785311
16175791719
16175797151
16175802889
16175809969
16175814913
16175819551
16175826082
16175832674
16175836824
16175845369
16175849825
16175860262
16175867891
16175874117
16175880769
16175886018
16175890901
16175897432
16175903047
16175908662
16175913057
16175918672
16175922517
16175930208
16175933870
16175939790
16175944551
16175951509
16175955293
16175962007
16175967195
16175973726
16175978425
16175983247
16175988618
16175994539
16176004182
16176008821
16176014070
16176021394
16176025544
16176032258
16176035920
16176043977
16176048432
16176058625
16176065583
16176074861
16176082063
16176091096
16176095918
16176109895
16176115449
16176124604
16176131806
16176142915
16176147370
16176157563
16176162568
16176174409
16176182038
16176188508
16176197602
16176206208
16176211213
16176223664
16176228547
16176238801
16176245576
16176253205
16176257783
16176269745
16176277314
16176286225
16176295929
16176301484
16176309235
16176316986
16176324982
16176332795
16176345307
16176354157
16176361908
16176368073
16176375397
16176379730
16176389923
16176398895
16176406830
16176414887
16176422821
16176429840
16176436798
16176445709
16176450165
16176463593
16176472382
16176477997
16176486481
16176493011
16176501434
16176507355
16176517120
16176522552
16176535736
16176545440
16176551544
16176559967
16176568939
16176578582
16176587860
16176596344
16176603180
16176611358
16176617096
16176626434
16176632415
16176641632
16176649932
16176657989
16176664581
16176672515
16176682220
16176692413
16176699005
16176709686
16176714691
16176723968
16176730621
16176739471
16176746124
16176754241
16176760528
16176773040
16176781463
16176789336
16176796172
16176803619
16176811370
16176817046
16176826751
16176836333
16176844207
16176851897
16176859038
16176866668
16176872832
16176883941
16176889983
16176899321
16176904815
16176913909
16176920378
16176928862
16176934966
16176944304
16176952727
16176961211
16176970122
16176979766
16176988127
16176997099
16177004057
16177014433
16177022734
16177030974
16177039580
16177046965
16177055998
16177063567
16177073027
16177081450
16177089079
16177096709
16177105742
16177113676
16177120634
16177131682
16177136992
16177146208
16177154265
16177163786
16177171049
16177177946
16177188017
16177194426
16177201872
16177210539
16177218718
16177225676
16177233549
16177241911
16177248442
16177258634
16177264555
16177275419
16177284879
16177294096
16177302763
16177310087
16177320036
16177327482
16177337736
16177345304
16177357572
16177364591
16177372282
16177381498
16177389127
16177397001
16177403959
16177413175
16177421842
16177427030
16177432401
16177438138
16177444181
16177449796
16177457120
16177462613
16177468351
16177473295
16177478788
16177484525
16177490751
16177493985
16177500577
16177504667
16177511808
16177516507
16177523404
16177527738
16177533475
16177538602
16177544217
16177547635
16177558072
16177562284
16177571073
16177576505
16177583219
16177588590
16177593778
16177601163
16177605924
16177611783
16177618680
16177625577
16177630704
16177635648
16177640714
16177647488
16177654202
16177660672
16177667569
16177673062
16177678189
16177685330
16177690396
16177696866
16177703946
16177710354
16177716458
16177723294
16177731534
16177733914
16177742154
16177750699
16177755215
16177762112
16177767056
16177773709
16177779690
16177783658
16177791348
16177797085
16177803433
16177809292
16177816983
16177822903
16177828213
16177834256
16177840725
16177845913
16177850247
16177859829
16177864041
16177871121
16177877651
16177882656
16177888027
16177894680
16177901882
16177907986
16177917019
16177924404
16177930935
16177937100
16177943752
16177951504
16177957973
16177966457
16177973232
16177980068
16177987698
16177993496
16177998257
16178002651
16178008327
16178014370
16178020840
16178025905
16178033047
16178037441
16178041958
16178050564
16178055874
16178063198
16178068447
16178074550
16178080105
16178085781
16178090114
16178096096
16178101894
16178109035
16178115383
16178121181
16178125454
16178131069
16178137172
16178143276
16178147487
16178153774
16178159816
16178163906
16178170619
16178176235
16178180690
16178186244
16178192348
16178196925
16178206081
16178211208
16178216152
16178221034
16178227809
16178233669
16178239589
16178244472
16178250941
16178257655
16178263148
16178269435
16178274928
16178279933
16178285670
16178291530
16178295253
16178303432
16178307399
16178315822
16178320766
16178326808
16178331752
16178336940
16178343348
16178349025
16178353663
16178359889
16178364283
16178371180
16178377284
16178382472
16178386866
16178393092
16178399257
16178404200
16178410243
16178414088
16178421473
16178426417
16178431544
16178438502
16178446803
16178450831
16178458277
16178463404
16178469386
16178474940
16178481837
16178487025
16178492884
16178498988
16178504420
16178510706
16178515284
16178523707
16178529017
16178537806
16178543665
16178551356
16178558619
16178567286
16178572291
16178577784
16178584559
16178590235
16178596339
16178600794
16178606776
16178610926
16178616602
16178621851
16178626002
16178630823
16178638819
16178645044
16178653284
16178660608
16178667444
16178674585
16178681665
16178686121
16178696375
16178704309
16178709436
16178718286
16178723902
16178732996
16178741114
16178748926
16178755274
16178763941
16178769983
16178778528
16178784509
16178791345
16178801111
16178809290
16178814417
16178824732
16178832361
16178838281
16178846521
16178854333
16178858972
16178871973
16178878870
16178886499
16178895288
16178901941
16178912439
16178918481
16178931421
16178941491
16178949365
16178959741
16178965295
16178976465
16178983911
16178992089
16179000146
16179009240
16179017663
16179023156
16179034692
16179043786
16179050073
16179060205
16179067712
16179075341
16179082421
16179091699
16179099572
16179107934
16179114892
16179123864
16179132226
16179139855
16179146752
16179154565
16179162865
16179170861
16179179833
16179188256
16179196007
16179201928
16179209435
16179217126
16179225976
16179236107
16179246483
16179255578
16179263817
16179271325
16179280175
16179291039
16179300377
16179308190
16179317345
16179327843
16179332604
16179341881
16179348534
16179359337
16179368370
16179374169
16179383080
16179391075
16179399803
16179408043
16179414879
16179422875
16179432335
16179438316
16179448631
16179456566
16179465782
16179473961
16179483360
16179490196
16179499718
16179505943
16179513084
16179521202
16179527977
16179536705
16179544151
16179551292
16179560386
16179567039
16179575340
16179581688
16179590232
16179596458
16179606224
16179614708
16179622764
16179628257
16179639976
16179649864
16179656578
16179666770
16179673606
16179684287
16179689781
16179700584
16179707786
16179716148
16179725120
16179734092
16179743003
16179750632
16179757590
16179766196
16179773948
16179782371
16179790305
16179800193
16179806479
16179814841
16179819480
16179829551
16179834006
16179845115
16179855063
16179860862
16179870078
16179876548
16179884604
16179890525
16179901145
16179910117
16179917380
16179924216
16179931906
16179939231
16179947104
16179956137
16179961081
16179971457
16179980063
16179985983
16179995688
16180002890
16180005270
16180016013
16180022788
16180029318
16180035666
16180043906
16180051352
16180057700
16180064047
16180069479
16180074423
16180077475
16180084128
16180088278
16180092734
16180098532
16180102804
16180111166
16180119894
16180124960
16180129721
16180134848
16180140707
16180147177
16180151327
16180157797
16180166098
16180172384
16180178244
16180182699
16180186178
16180195639
16180201315
16180207174
16180211142
16180218893
16180226461
16180231588
16180235372
16180243795
16180247213
16180256002
16180259603
16180266805
16180270345
16180278585
16180282186
16180288839
16180294088
16180300314
16180305196
16180312338
16180317526
16180323263
16180327596
16180335287
16180340353
16180347799
16180352743
16180358541
16180362997
16180368429
16180375143
16180381124
16180387716
16180390096
16180398519
16180401937
16180408895
16180413717
16180419759
16180425069
16180434347
16180439962
16180445943
16180450826
16180456319
16180461080
16180467366
16180473287
16180475362
16180483663
16180490010
16180496907
16180502584
16180509481
16180515706
16180520467
16180528707
16180536824
16180539327
16180549825
16180554708
16180561971
16180568135
16180575826
16180582723
16180587972
16180598103
16180604146
16180616536
16180623677
16180635091
16180642232
16180645345
16180657063
16180664937
16180675740
16180683247
16180691731
16180700886
16180708760
16180715474
16180720112
16180727315
16180732503
16180741719
16180748921
16180754292
16180758748
16180764973
16180771199
16180776997
16180781025
16180788960
16180793782
16180798359
16180804219
16180808308
16180813923
16180819905
16180825947
16180833027
16180837788
16180844074
16180849873
16180855549
16180862141
16180869221
16180873799
16180877216
16180886555
16180891865
16180896320
16180899677
16180907368
16180912922
16180918110
16180922993
16180930378
16180935505
16180940998
16180947346
16180953205
16180958820
16180964130
16180968647
16180974323
16180980976
16180987507
16180992512
16180998432
16181002888
16181006183
16181014179
16181017841
16181026752
16181030781
16181037372
16181042560
16181048847
16181053791
16181060383
16181065693
16181073322
16181078571
16181083820
16181088764
16181093525
16181099994
16181105732
16181110675
16181114582
16181124774
16181131366
16181136310
16181140521
16181147846
16181153278
16181160785
16181166217
16181174030
16181180438
16181186115
16181190753
16181197162
16181202106
16181208453
16181213397
16181220050
16181226093
16181234332
16181238239
16181245013
16181251422
16181260455
16181268024
16181278827
16181286639
16181294757
16181302203
16181312274
16181318988
16181328326
16181335895
16181345965
16181354693
16181362689
16181367328
16181377642
16181382220
16181392840
16181397540
16181409137
16181416156
16181423968
16181432513
16181438372
16181445635
16181452960
16181461627
16181469927
16181479205
16181486895
16181494463
16181502337
16181509051
16181516924
16181519549
16181532488
16181541277
16181549090
16181558062
16181564043
16181572405
16181580157
16181590777
16181596941
16181605181
16181613421
16181620684
16181626665
16181635271
16181644121
16181652544
16181663408
16181669573
16181678240
16181686541
16181696367
16181703508
16181716082
16181724565
16181732073
16181740557
16181747209
16181756609
16181765398
16181772722
16181781328
16181789446
16181796770
16181804765
16181810075
16181818987
16181827592
16181838274
16181849626
16181856279
16181865922
16181873735
16181880327
16181891435
16181899919
16181908525
16181917253
16181922258
16181931718
16181941545
16181950273
16181957597
16181967973
16181975908
16181984147
16181993486
16182001298
16182009172
16182017961
16182026689
16182038774
16182045854
16182054643
16182064225
16182075150
16182083024
16182093400
16182100297
16182111039
16182117631
16182127824
16182136430
16182144608
16182150895
16182159013
16182166215
16182174760
16182181718
16182192338
16182197220
16182206681
16182215165
16182222611
16182225297
16182236344
16182245682
16182253373
16182261429
16182266983
16182276383
16182282792
16182291397
16182297867
16182307083
16182316788
16182322586
16182331803
16182336991
16182346390
16182352555
16182362808
16182371048
16182378433
16182386368
16182393509
16182401993
16182407608
16182419205
16182427505
16182435013
16182443314
16182450455
16182457168
16182464859
16182472061
16182479812
16182489273
16182496841
16182505447
16182511368
16182520218
16182524795
16182538101
16182545730
16182553909
16182562149
16182568008
16182575943
16182582290
16182592544
16182601089
16182608779
16182613723
16182618179
16182623977
16182629592
16182636123
16182640884
16182647781
16182651626
16182657852
16182660964
16182670364
16182676528
16182683120
16182691299
16182697891
16182704971
16182708999
16182719863
16182724319
16182735061
16182741042
16182748244
16182754836
16182761611
16182768081
16182775344
16182781814
16182787002
16182793471
16182798293
16182804336
16182809524
16182816726
16182822158
16182829543
16182834060
16182841445
16182844924
16182851821
16182855239
16182863906
16182867751
16182877883
16182881911
16182889357
16182893080
16182899733
16182904677
16182910048
16182916945
16182922866
16182930007
16182935561
16182940016
16182945693
16182950392
16182957228
16182961562
16182968642
16182974745
16182979872
16182985671
16182991408
16182996047
16183002821
16183010146
16183016310
16183022414
16183028029
16183033095
16183036513
16183044997
16183048537
16183054640
16183059767
16183069044
16183074476
16183080458
16183085219
16183091994
16183097182
16183101759
16183108290
16183115431
16183120253
16183127089
16183132338
16183137831
16183143446
16183150892
16183157179
16183164259
16183171522
16183180922
16183188002
16183196974
16183204420
16183210951
16183217848
16183224867
16183229750
16183234205
16183238661
16183243116
16183247694
16183252210
16183257093
16183261732
16183267103
16183271375
16183276930
16183282240
16183287428
16183293409
16183298536
16183304517
16183308729
16183314344
16183319654
16183323560
16183329053
16183334913
16183339979
16183345533
16183351331
16183356092
16183361158
16183365919
16183369703
16183376966
16183380018
16183385450
16183390699
16183395399
16183400403
16183405164
16183410474
16183414319
16183420179
16183425611
16183430494
16183435376
16183440686
16183444410
16183450635
16183455823
16183461560
16183466871
16183470655
16183475782
16183481214
16183487378
16183493848
16183498181
16183503553
16183507825
16183512586
16183517774
16183521985
16183527417
16183532117
16183536695
16183542188
16183546277
16183552320
16183556836
16183562695
16183567883
16183574353
16183579480
16183585156
16183589673
16183595349
16183601148
16183606213
16183612805
16183618787
16183624158
16183629956
16183634961
16183639966
16183645825
16183649853
16183655469
16183663220
16183669690
16183675610
16183680066
16183685132
16183691723
16183697339
16183701306
16183708752
16183713147
16183719616
16183724560
16183731457
16183738110
16183744519
16183749646
16183758679
16183765515
16183770520
16183775158
16183781811
16183787365
16183793469
16183797863
16183805004
16183810009
16183815624
16183821545
16183826611
16183831249
16183837475
16183844311
16183851513
16183856762
16183862805
16183866100
16183873608
16183879345
16183884838
16183887768
16183895397
16183900768
16183905529
16183910351
16183915417
16183921032
16183924877
16183931591
16183935924
16183941296
16183947155
16183952526
16183957348
16183963634
16183968395
16183977062
16183982616
16183987987
16183991283
16183997875
16184002392
16184008922
16184012279
16184020580
16184026745
16184033397
16184038707
16184043956
16184049694
16184055736
16184060924
16184068554
16184073497
16184078929
16184084240
16184089550
16184095714
16184100170
16184107494
16184112255
16184118846
16184123790
16184129344
16184133739
16184140758
16184145275
16184153697
16184159313
16184165111
16184169627
16184176524
16184180980
16184187938
16184192394
16184199107
16184205882
16184211803
16184216319
16184222850
16184227306
16184233958
16184238414
16184244151
16184250133
16184255809
16184261607
16184267894
16184272410
16184278270
16184284373
16184290538
16184295848
16184302440
16184308665
16184314586
16184319407
16184324595
16184329112
16184337840
16184341563
16184348521
16184354503
16184360118
16184364390
16184369822
16184377879
16184383372
16184390818
16184396311
16184403331
16184408580
16184414378
16184421092
16184428904
16184434214
16184444224
16184448008
16184457652
16184464671
16184471018
16184476878
16184484202
16184490305
16184495371
16184502024
16184508921
16184513804
16184519602
16184525828
16184532847
16184539194
16184544016
16184550852
16184555552
16184562022
16184568552
16184576121
16184580942
16184586252
16184592112
16184597361
16184603220
16184608591
16184614573
16184620310
16184626474
16184632883
16184638926
16184644541
16184650339
16184652231
16184660471
16184663706
16184673838
16184679758
16184685617
16184687632
16184695749
16184702219
16184706919
16184710276
16184720957
16184726389
16184732431
16184736032
16184742868
16184747690
16184754587
16184758005
16184767832
16184771555
16184778879
16184783945
16184790414
16184795297
16184801767
16184807016
16184814706
16184821115
16184825326
16184828500
16184836740
16184842844
16184848642
16184854379
16184860544
16184865426
16184871347
16184876169
16184880807
16184886972
16184890329
16184898691
16184902292
16184909616
16184915231
16184921518
16184928537
16184934396
16184941964
16184949838
16184952768
16184964120
16184968820
16184979806
16184987863
16184994393
16185003854
16185009042
16185026315
16185034127
16185042001
16185047555
16185057565
16185065560
16185073617
16185080453
16185093392
16185101022
16185108834
16185114266
16185121835
16185126839
16185133187
16185139107
16185144601
16185150826
16185157418
16185163094
16185168465
16185174569
16185180123
16185185921
16185191475
16185198067
16185204049
16185211190
16185216988
16185222725
16185228096
16185234200
16185239144
16185245308
16185252938
16185257576
16185263558
16185269600
16185274300
16185280281
16185286873
16185293404
16185298836
16185305062
16185308541
16185316353
16185322273
16185328133
16185334480
16185340706
16185347359
16185352303
16185358711
16185363289
16185369698
16185375435
16185380623
16185387581
16185393745
16185398262
16185404549
16185409065
16185415169
16185421333
16185424812
16185434761
16185438545
16185446907
16185450325
16185457710
16185463447
16185467842
16185472603
16185480659
16185487556
16185492134
16185497749
16185503608
16185509468
16185514961
16185518440
16185527717
16185532295
16185539619
16185545234
16185551033
16185558357
16185564827
16185570930
16185577400
16185583320
16185588386
16185597053
16185602302
16185609870
16185616340
16185630500
16185635688
16185643318
16185652046
16185660774
16185663154
16185672004
16185676582
16185687202
16185692878
16185698554
16185706977
16185712714
16185715095
16185723884
16185728156
16185737617
16185741462
16185748237
16185751899
16185757819
16185763190
16185770392
16185776618
16185783393
16185788215
16185793525
16185797858
16185804145
16185809394
16185814582
16185820258
16185825934
16185830512
16185836432
16185841925
16185845893
16185854010
16185857734
16185865546
16185868781
16185876349
16185880744
16185888678
16185894171
16185898932
16185904425
16185910224
16185914984
16185921942
16185927252
16185934210
16185939276
16185945014
16185950263
16185957037
16185961920
16185966986
16185974432
16185978522
16185986273
16185996100
16186001776
16186007025
16186012518
16186020453
16186026862
16186032111
16186039801
16186044806
16186049689
16186056463
16186062079
16186068426
16186072333
16186079535
16186085455
16186093268
16186099127
16186104925
16186112188
16186117865
16186123541
16186133307
16186138861
16186145514
16186151556
16186157904
16186163275
16186167547
16186175848
16186179876
16186188665
16186194708
16186201055
16186205999
16186213079
16186219366
16186225347
16186231207
16186238897
16186242681
16186250494
16186256292
16186262029
16186266912
16186273199
16186279852
16186286749
16186292791
16186298528
16186304205
16186310857
16186318365
16186322942
16186329839
16186338262
16186344610
16186349737
16186353948
16186360174
16186366155
16186371099
16186375066
16186381536
16186387456
16186392522
16186396917
16186403508
16186408147
16186414739
16186419133
16186426885
16186433049
16186439580
16186443914
16186449529
16186455754
16186461064
16186465459
16186470281
16186478459
16186482183
16186488896
16186493718
16186499639
16186504643
16186510503
16186516606
16186523015
16186529729
16186534429
16186539311
16186546330
16186550725
16186555974
16186562322
16186568120
16186573979
16186579228
16186585515
16186591985
16186596623
16186602788
16186607121
16186612553
16186620366
16186624333
16186631901
16186636784
16186642888
16186648381
16186653935
16186658574
16186669499
16186675297
16186680729
16186685673
16186690861
16186695317
16186702885
16186707524
16186713994
16186719975
16186726567
16186730900
16186737370
16186741948
16186745488
16186753971
16186757328
16186765995
16186772221
16186776676
16186781498
16186788212
16186793156
16186799076
16186803471
16186810429
16186817326
16186821598
16186827946
16186833866
16186838871
16186844975
16186849491
16186857304
16186863957
16186870731
16186877201
16186882450
16186890385
16186895939
16186900455
16186908390
16186915165
16186921513
16186927433
16186934452
16186940189
16186946171
16186951786
16186958683
16186964054
16186969669
16186976566
16186981449
16186986820
16186993046
16186999332
16187005253
16187011234
16187016727
16187022342
16187027225
16187033023
16187037967
16187043644
16187047489
16187056400
16187060489
16187068119
16187071476
16187078678
16187083683
16187089725
16187093997
16187101871
16187106632
16187113162
16187117557
16187123538
16187129642
16187135440
16187139957
16187143070
16187152591
16187158206
16187164005
16187169925
16187174869
16187179630
16187186404
16187189883
16187199466
16187203433
16187211246
16187216800
16187222476
16187227542
16187232547
16187239444
16187246036
16187251651
16187256839
16187261233
16187267825
16187274173
16187278628
16187284915
16187291263
16187298037
16187304324
16187309085
16187312320
16187320559
16187324221
16187331729
16187336978
16187344607
16187348391
16187355593
16187359011
16187366763
16187371951
16187376834
16187381716
16187389407
16187396548
16187401187
16187407290
16187411624
16187417544
16187422915
16187428652
16187434817
16187440920
16187446902
16187451602
16187458437
16187462832
16187469363
16187473818
16187480349
16187488833
16187497439
16187501772
16187505434
16187514162
16187520937
16187525637
16187531008
16187540346
16187544558
16187551577
16187556399
16187562746
16187567690
16187573427
16187578310
16187586672
16187590761
16187596804
16187601748
16187607607
16187612063
16187618288
16187623232
16187630800
16187635927
16187641726
16187648012
16187653322
16187657778
16187663759
16187670168
16187676149
16187682619
16187689150
16187693849
16187698915
16187704836
16187708498
16187716554
16187719728
16187727175
16187733278
16187738466
16187743837
16187750307
16187755190
16187760133
16187766969
16187774049
16187779665
16187786256
16187791078
16187797426
16187802492
16187809816
16187815431
16187822206
16187828493
16187834230
16187840517
16187842409
16187850831
16187855653
16187862001
16187865419
16187875062
16187882142
16187886476
16187892396
16187896852
16187902101
16187909303
16187914186
16187921083
16187925050
16187931215
16187936464
16187943116
16187947389
16187954164
16187959779
16187965089
16187971070
16187977662
16187982118
16187987855
16187994203
16187998963
16188004701
16188008363
16188016053
16188023194
16188027894
16188031190
16188039063
16188043824
16188049317
16188055848
16188065186
16188071900
16188078492
16188083375
16188090760
16188095948
16188103089
16188109132
16188117066
16188123231
16188130860
16188140137
16188147278
16188153016
16188159730
16188164795
16188171937
16188175477
16188183106
16188186280
16188193482
16188198121
16188204346
16188209351
16188218323
16188222290
16188228882
16188233643
16188239075
16188243714
16188249146
16188256897
16188264527
16188268250
16188276734
16188280457
16188288269
16188291443
16188297791
16188303406
16188311768
16188315369
16188322693
16188326294
16188333435
16188337952
16188342896
16188347839
16188354920
16188360230
16188365479
16188372376
16188376953
16188383728
16188388550
16188393127
16188402466
16188409607
16188415100
16188421387
16188427185
16188432129
16188438843
16188443237
16188450195
16188456909
16188461548
16188467895
16188473144
16188479431
16188483581
16188489380
16188492737
16188502380
16188508789
16188513061
16188516418
16188523925
16188527465
16188534423
16188539917
16188548461
16188552429
16188559326
16188564331
16188569885
16188575378
16188580932
16188585266
16188591613
16188597717
16188604125
16188608764
16188615051
16188620910
16188625488
16188631225
16188638610
16188644470
16188649535
16188655151
16188661010
16188665405
16188670715
16188676818
16188682250
16188690856
16188695312
16188703429
16188708495
16188716979
16188722716
16188728759
16188734923
16188743102
16188749694
16188757018
16188761535
16188766662
16188771789
16188778319
16188782775
16188788695
16188794982
16188799621
16188809264
16188815184
16188820922
16188825255
16188830931
16188837706
16188842528
16188848082
16188852355
16188859374
16188863890
16188869506
16188875426
16188884154
16188888976
16188894835
16188901244
16188905943
16188911742
16188917235
16188922301
16188926024
16188935179
16188939940
16188948790
16188954405
16188960143
16188962157
16188969908
16188974791
16188982970
16188986876
16188993895
16188997679
16189003966
16189008849
16189015257
16189020018
16189027647
16189033018
16189039671
16189045836
16189051573
16189057799
16189061217
16189067747
16189072630
16189080626
16189084715
16189092222
16189097227
16189103758
16189108519
16189113768
16189120848
16189125914
16189131773
16189138243
16189142576
16189145994
16189153990
16189157225
16189164183
16189169676
16189178282
16189182371
16189188475
16189193174
16189198728
16189205198
16189211057
16189215269
16189222776
16189227598
16189234495
16189239805
16189245542
16189252805
16189258909
16189265134
16189273130
16189277769
16189285642
16189292356
16189298276
16189309202
16189318052
16189327207
16189335325
16189339231
16189353574
16189366086
16189371763
16189382993
16189390867
16189400266
16189408750
16189415647
16189420774
16189430295
16189438535
16189445798
16189452146
16189460263
16189468930
16189478025
16189484433
16189489560
16189501767
16189507382
16189516477
16189523251
16189528134
16189535764
16189538327
16189547543
16189554257
16189563779
16189571225
16189577817
16189583859
16189591733
16189598019
16189606381
16189612973
16189620602
16189631222
16189636838
16189645321
16189654843
16189660275
16189667965
16189675046
16189683468
16189690487
16189696225
16189706295
16189714352
16189721676
16189727963
16189737545
16189743893
16189752194
16189758602
16189764279
16189774166
16189781185
16189788754
16189795895
16189804867
16189811093
16189818417
16189824764
16189831051
16189840511
16189847347
16189855465
16189861691
16189866573
16189877377
16189885738
16189891231
16189899044
16189906856
16189913143
16189918758
16189928524
16189936764
16189942989
16189949032
16189956844
16189964718
16189967403
16189980892
16189986141
16189994808
16190002132
16190008480
16190014461
16190022091
16190028377
16190035518
16190043209
16190050838
16190058040
16190064327
16190070003
16190078304
16190082942
16190091121
16190097835
16190107662
16190114803
16190121822
16190128475
16190133113
16190141841
16190148433
16190155696
16190162166
16190172481
16190181819
16190189265
16190197627
16190202693
16190212886
16190220393
16190227168
16190233882
16190244014
16190253474
16190262324
16190267512
16190271602
16190280879
16190284785
16190291499
16190298030
16190304194
16190309077
16190315364
16190319941
16190326350
16190333125
16190338618
16190343196
16190349421
16190355769
16190361445
16190367732
16190369624
16190378474
16190381953
16190389704
16190393366
16190402644
16190407893
16190413264
16190420161
16190424616
16190429560
16190435969
16190440974
16190448054
16190453303
16190459773
16190465083
16190469782
16190476191
16190481501
16190486323
16190493830
16190499995
16190505671
16190511408
16190516596
16190523005
16190528376
16190532831
16190539301
16190546381
16190550409
16190557551
16190561091
16190568232
16190573725
16190579401
16190584345
16190592707
16190598444
16190604120
16190610285
16190615839
16190621332
16190626764
16190631159
16190637995
16190644831
16190650385
16190654901
16190661066
16190666559
16190671686
16190677667
16190683893
16190689874
16190696649
16190701471
16190704767
16190712763
16190718561
16190722955
16190726557
16190735407
16190743707
16190749445
16190757135
16190763178
16190770929
16190777643
16190782342
16190795099
16190804254
16190811639
16190817316
16190827753
16190836053
16190845941
16190852716
16190857843
16190870477
16190879998
16190889337
16190896600
16190903863
16190910455
16190918695
16190926507
16190931268
16190939996
16190944696
16190953057
16190958551
16190963983
16190970330
16190975701
16190980889
16190988091
16190993524
16191000726
16191005486
16191011956
16191016351
16191022088
16191028497
16191034600
16191040704
16191046502
16191050835
16191057488
16191062005
16191065301
16191073846
16191077752
16191085320
16191091180
16191097039
16191101800
16191108269
16191114007
16191120660
16191125481
16191131585
16191138604
16191143242
16191147576
16191153496
16191159783
16191161614
16191170037
16191176690
16191183770
16191188469
16191194268
16191198052
16191205864
16191209404
16191217095
16191223137
16191230584
16191237114
16191242730
16191247734
16191254753
16191260918
16191266777
16191272148
16191275688
