16019177862
16019185431
16019193731
16019201666
16019209234
16019217169
16019225103
16019232306
16019239386
16019247198
16019254034
16019260321
16019266790
16019273687
16019282354
16019290289
16019297674
16019304876
16019311041
16019317755
16019324041
16019332464
16019340704
16019348882
16019356939
16019362493
16019369940
16019378973
16019387762
16019394781
16019402898
16019409612
16019417608
16019424322
16019433538
16019441656
16019448614
16019456182
16019464055
16019471197
16019478338
16019486455
16019494207
16019502202
16019509160
16019515203
16019524907
16019532964
16019540227
16019549993
16019555303
16019563787
16019569646
16019577764
16019584111
16019589666
16019596074
16019602544
16019609441
16019615850
16019621770
16019627690
16019632695
16019639531
16019646123
16019651006
16019657597
16019664372
16019671574
16019676457
16019684331
16019689458
16019698247
16019703862
16019710881
16019716313
16019722173
16019729069
16019735173
16019740849
16019749028
16019755681
16019762211
16019769292
16019776921
16019783330
16019789860
16019795842
16019801945
16019807316
16019813481
16019820012
16019826664
16019833256
16019837895
16019844487
16019851200
16019857121
16019862431
16019869511
16019874333
16019883732
16019890202
16019897221
16019903507
16019912052
16019918827
16019925175
16019931584
16019938786
16019945500
16019950260
16019956547
16019962528
16019968021
16019974064
16019981022
16019987003
16019995914
16020001469
16020008427
16020015507
16020023380
16020029667
16020037540
16020044193
16020050785
16020058719
16020065739
16020072452
16020080509
16020088016
16020095890
16020102604
16020110843
16020118839
16020125309
16020132694
16020138736
16020146244
16020154667
16020161136
16020169742
16020175663
16020185123
16020191349
16020199649
16020207523
16020213993
16020221805
16020229434
16020237125
16020242984
16020250491
16020258548
16020264652
16020272525
16020282779
16020291263
16020297183
16020305667
16020311526
16020319827
16020327335
16020333011
16020342044
16020348025
16020356021
16020360538
16020370791
16020375064
16020385867
16020390323
16020401980
16020410830
16020418826
16020426333
16020433902
16020441226
16020448977
16020453494
16020467532
16020474917
16020483157
16020490542
16020498477
16020505862
16020513552
16020520938
16020528811
16020536440
16020542971
16020550601
16020557253
16020564761
16020571413
16020578860
16020586184
16020593508
16020601626
16020609194
16020616640
16020624636
16020631350
16020639162
16020645693
16020653933
16020661074
16020669131
16020678042
16020684939
16020691713
16020698855
16020704714
16020713686
16020719973
16020729921
16020736757
16020746035
16020753664
16020760866
16020767214
16020775087
16020782595
16020789186
16020795290
16020805849
16020812502
16020822206
16020828432
16020836244
16020842165
16020850771
16020858156
16020865297
16020873171
16020880983
16020886842
16020890932
16020897401
16020901674
16020907655
16020912599
16020918642
16020922670
16020929689
16020934572
16020941469
16020947694
16020952150
16020958009
16020965578
16020970521
16020975221
16020981325
16020986879
16020992006
16020997865
16021004457
16021008973
16021014589
16021020631
16021026124
16021032106
16021037660
16021042970
16021048524
16021052736
16021059632
16021063478
16021070314
16021075135
16021080384
16021087098
16021092103
16021099549
16021106263
16021110841
16021116944
16021121156
16021128846
16021133973
16021143006
16021147828
16021153260
16021156861
16021164307
16021169007
16021175477
16021179627
16021186280
16021189515
16021196351
16021199158
16021205567
16021208863
16021216737
16021219971
16021228089
16021231751
16021238526
16021242982
16021249879
16021253602
16021261170
16021267274
16021273499
16021279114
16021284119
16021288270
16021293885
16021299561
16021304871
16021309388
16021315308
16021320984
16021326844
16021332093
16021337769
16021343506
16021349121
16021353699
16021360169
16021366394
16021372193
16021377686
16021382813
16021387512
16021392639
16021397705
16021402832
16021408692
16021412964
16021419251
16021424744
16021430237
16021436463
16021442749
16021447205
16021453369
16021458984
16021460877
16021468750
16021472046
16021479492
16021483154
16021490234
16021495605
16021500793
16021505432
16021511291
16021516663
16021521789
16021526611
16021533935
16021539673
16021544800
16021549011
16021554504
16021561218
16021566467
16021573974
16021579956
16021582275
16021591308
16021595154
16021603454
16021607238
16021613891
16021618591
16021627746
16021633117
16021639404
16021644836
16021651184
16021655761
16021662170
16021666931
16021673950
16021680786
16021686279
16021691589
16021699218
16021704650
16021710388
16021718627
16021724548
16021731323
16021736511
16021742248
16021747131
16021754028
16021760314
16021766540
16021771240
16021777587
16021784362
16021790710
16021796691
16021798766
16021808288
16021812560
16021819884
16021826537
16021833678
16021837707
16021846740
16021850463
16021859557
16021862975
16021870666
16021873778
16021882140
16021887694
16021893432
16021898375
16021903136
16021906127
16021913390
16021916747
16021924682
16021930968
16021936950
16021940306
16021946959
16021951781
16021957457
16021962828
16021969908
16021976439
16021981688
16021986388
16021991942
16021998107
16022003600
16022008544
16022015685
16022021117
16022029234
16022035460
16022043639
16022050169
16022058653
16022066832
16022074706
16022082030
16022089049
16022097655
16022105955
16022112669
16022117674
16022126585
16022131224
16022142515
16022147032
16022158262
16022162474
16022172239
16022177061
16022187498
16022191832
16022204405
16022208799
16022217466
16022223814
16022232786
16022239195
16022246031
16022254759
16022262693
16022268370
16022276853
16022283262
16022292112
16022300901
16022308286
16022316038
16022323057
16022331236
16022337705
16022345396
16022353269
16022359068
16022363584
16022374693
16022382810
16022392393
16022397276
16022407224
16022411863
16022421140
16022427915
16022436887
16022443723
16022451719
16022458738
16022467832
16022474973
16022482786
16022491697
16022498838
16022505185
16022515805
16022522763
16022530637
16022540036
16022549375
16022557248
16022564939
16022571225
16022580014
16022585935
16022595944
16022602475
16022613461
16022620053
16022627683
16022633786
16022644895
16022651914
16022661923
16022670041
16022676022
16022682248
16022689938
16022695737
16022706296
16022710202
16022720395
16022727170
16022734921
16022740658
16022749020
16022757626
16022765133
16022772091
16022781308
16022788693
16022799130
16022805050
16022814938
16022820614
16022829525
16022835385
16022844052
16022849972
16022859249
16022865536
16022872860
16022880368
16022888058
16022896847
16022905087
16022911373
16022918270
16022927487
16022935299
16022941158
16022950314
16022960140
16022967648
16022975460
16022982967
16022991024
16022996456
16023005306
16023009823
16023020870
16023028744
16023034542
16023041073
16023049312
16023056454
16023065731
16023072262
16023080501
16023086483
16023097286
16023103817
16023110225
16023118953
16023126644
16023132503
16023141414
16023147579
16023156429
16023162838
16023171993
16023179866
16023186641
16023194332
16023201656
16023211055
16023219539
16023227535
16023234126
16023241878
16023249263
16023255183
16023263973
16023272639
16023280086
16023286983
16023295406
16023303157
16023307857
16023318294
16023323176
16023335017
16023340510
16023351192
16023355281
16023366511
16023370479
16023380305
16023386226
16023397578
16023404414
16023411799
16023420161
16023425959
16023433894
16023442439
16023447444
16023453486
16023459101
16023465266
16023468196
16023474848
16023479365
16023485530
16023488825
16023497431
16023501399
16023508906
16023514521
16023519892
16023525202
16023529231
16023535883
16023542109
16023548274
16023552424
16023557612
16023561945
16023568232
16023571711
16023579585
16023585261
16023591181
16023596247
16023601435
16023605646
16023610651
16023616694
16023621393
16023627741
16023631525
16023638056
16023642512
16023649225
16023653315
16023659662
16023664179
16023670954
16023674860
16023682551
16023688410
16023694147
16023698908
16023705683
16023711237
16023716303
16023721979
16023725763
16023730524
16023735773
16023740839
16023747248
16023753229
16023758234
16023764154
16023769159
16023774530
16023778742
16023787348
16023794245
16023800226
16023804560
16023811029
16023817072
16023821649
16023828363
16023832941
16023839288
16023844721
16023849115
16023855646
16023861688
16023867792
16023872614
16023877435
16023885797
16023891351
16023896539
16023901971
16023908502
16023913995
16023923639
16023930292
16023936090
16023942987
16023947137
16023953424
16023957391
16023963434
16023967218
16023972894
16023978631
16023983514
16023988702
16023992975
16023998956
16024004998
16024010247
16024015313
16024021539
16024027765
16024031732
16024037469
16024043878
16024050103
16024054925
16024060601
16024067071
16024072869
16024077264
16024083917
16024088250
16024094354
16024100640
16024106133
16024112298
16024118829
16024123162
16024129571
16024133843
16024139825
16024144280
16024151605
16024157525
16024162957
16024168572
16024173638
16024179192
16024184075
16024190850
16024194817
16024203423
16024208306
16024215447
16024221795
16024226617
16024229973
16024237969
16024241326
16024249749
16024258172
16024264519
16024269951
16024276543
16024279656
16024287835
16024292534
16024298089
16024304741
16024310723
16024315422
16024321526
16024325920
16024331658
16024337334
16024343315
16024349602
16024354546
16024358818
16024365349
16024371331
16024378227
16024383049
16024386223
16024395561
16024399773
16024405510
16024411003
16024417595
16024421257
16024427422
16024432366
16024439018
16024445122
16024451347
16024458244
16024463371
16024467217
16024475090
16024478813
16024488090
16024496086
16024501335
16024507622
16024511711
16024517631
16024523369
16024529594
16024533806
16024539970
16024544670
16024550346
16024555717
16024560600
16024566765
16024575737
16024582512
16024589653
16024595817
16024604850
16024610466
16024618461
16024624015
16024632743
16024640495
16024646843
16024652580
16024659172
16024664970
16024671745
16024677360
16024683708
16024689750
16024698295
16024704215
16024713127
16024720451
16024727775
16024736015
16024741874
16024749076
16024755546
16024763786
16024771110
16024778190
16024782951
16024792655
16024797233
16024806449
16024810966
16024820365
16024824821
16024833976
16024839042
16024849174
16024856132
16024864615
16024869498
16024877616
16024883780
16024891288
16024898185
16024907157
16024914298
16024922110
16024928641
16024935294
16024943778
16024950125
16024957022
16024964774
16024973014
16024979911
16024986075
16024997305
16025006827
16025015128
16025022269
16025032462
16025037467
16025048331
16025058279
16025064505
16025073233
16025079764
16025090323
16025097281
16025107962
16025113333
16025123160
16025127859
16025137747
16025142325
16025155081
16025165091
16025171744
16025180472
16025186575
16025194876
16025203604
16025209646
16025216421
16025225759
16025238394
16025246084
16025253347
16025260855
16025269461
16025277151
16025282949
16025288687
16025298452
16025303579
16025314443
16025322500
16025330618
16025338491
16025345388
16025352529
16025359182
16025368887
16025376638
16025385122
16025391042
16025401540
16025411367
16025417592
16025427236
16025434133
16025442006
16025450857
16025459768
16025467580
16025477712
16025486379
16025494497
16025501088
16025508474
16025516103
16025524892
16025533010
16025541433
16025549123
16025557485
16025563954
16025572743
16025582570
16025590016
16025597951
16025604726
16025613454
16025618337
16025627858
16025633351
16025644093
16025652272
16025659962
16025667531
16025673573
16025681569
16025687978
16025697743
16025704579
16025712880
16025721669
16025727894
16025736439
16025743336
16025750172
16025757618
16025764882
16025773976
16025782032
16025788380
16025793385
16025803822
16025813954
16025819935
16025828663
16025837513
16025844593
16025850758
16025858509
16025865589
16025875477
16025883961
16025892994
16025898426
16025903553
16025912159
16025916615
16025923512
16025927540
16025935536
16025939381
16025947620
16025951466
16025959950
16025963551
16025972645
16025979359
16025983631
16025989185
16025995106
16025999988
16026004627
16026013172
16026018055
16026023426
16026025257
16026033741
16026038807
16026044483
16026050709
16026056690
16026061146
16026065296
16026071399
16026075733
16026081958
16026086475
16026092945
16026097522
16026103382
16026109668
16026114856
16026119434
16026124927
16026131031
16026135364
16026141346
16026146289
16026150806
16026157398
16026164295
16026169605
16026174304
16026180957
16026188098
16026192920
16026199512
16026204700
16026208789
16026216663
16026223926
16026228381
16026235461
16026239856
16026245837
16026250415
16026256824
16026261401
16026268542
16026273975
16026280505
16026287219
16026292773
16026299487
16026304675
16026310840
16026316272
16026323108
16026329700
16026335132
16026341845
16026347766
16026352832
16026357348
16026363574
16026371753
16026378650
16026384570
16026392260
16026397387
16026403674
16026408374
16026416552
16026421496
16026427905
16026433215
16026440112
16026446215
16026450183
16026458300
16026463793
16026470446
16026478930
16026485339
16026492480
16026498705
16026506091
16026511584
16026518054
16026523058
16026530688
16026536608
16026541735
16026546679
16026553881
16026557238
16026565356
16026570910
16026576098
16026580187
16026585802
16026591296
16026596361
16026600939
16026606615
16026613085
16026618578
16026622790
16026628039
16026633898
16026641833
16026647509
16026652331
16026659411
16026662645
16026669726
16026676500
16026682482
16026687243
16026694506
16026699755
16026704882
16026709520
16026715258
16026720446
16026725695
16026730272
16026738024
16026743578
16026749193
16026755236
16026759874
16026765245
16026771410
16026774278
16026784654
16026787828
16026795275
16026799486
16026805711
16026812059
16026818041
16026822496
16026828722
16026833360
16026840318
16026845201
16026850938
16026856615
16026862108
16026868028
16026873155
16026879137
16026884203
16026889696
16026896471
16026901231
16026906969
16026911302
16026914476
16026923509
16026930040
16026934984
16026940660
16026945909
16026951524
16026959947
16026963365
16026970445
16026975572
16026981248
16026986680
16026992662
16026997300
16027003343
16027007798
16027014207
16027020982
16027027513
16027033799
16027041551
16027047776
16027056138
16027064805
16027071885
16027080369
16027089341
16027099900
16027109788
16027120713
16027129319
16027136216
16027143845
16027153550
16027156663
16027168137
16027176377
16027182664
16027187607
16027196885
16027204148
16027213975
16027218918
16027228257
16027235947
16027244675
16027251450
16027257981
16027264817
16027273911
16027280381
16027289475
16027295884
16027304123
16027310959
16027316025
16027326401
16027333847
16027341538
16027350388
16027356308
16027361313
16027371872
16027377426
16027387680
16027394455
16027401718
16027409042
16027416611
16027422958
16027432602
16027438278
16027444443
16027452377
16027461166
16027468430
16027475693
16027483993
16027491196
16027498032
16027503097
16027513534
16027518905
16027530685
16027536178
16027547043
16027551315
16027562545
16027569687
16027579086
16027584030
16027594162
16027600998
16027609054
16027616073
16027625778
16027633407
16027642807
16027649765
16027658798
16027666305
16027673568
16027680770
16027689742
16027697494
16027705123
16027712020
16027720565
16027727645
16027734176
16027743026
16027749618
16027758712
16027764877
16027774154
16027781417
16027787887
16027796249
16027804732
16027812057
16027820907
16027829879
16027836593
16027844954
16027853133
16027858626
16027867659
16027874740
16027883223
16027886092
16027899886
16027909041
16027917342
16027924910
16027931685
16027940230
16027946578
16027951522
16027963118
16027970564
16027980940
16027988509
16027996993
16028004134
16028012557
16028021590
16028027815
16028037093
16028046492
16028053633
16028062117
16028067976
16028077559
16028082381
16028093489
16028098372
16028111738
16028118696
16028126448
16028132796
16028141401
16028148970
16028156843
16028162642
16028173628
16028182173
16028190107
16028196455
16028204329
16028212446
16028220198
16028225874
16028235945
16028243818
16028251631
16028259870
16028266096
16028274580
16028282575
16028290327
16028299299
16028306684
16028314680
16028321638
16028329328
16028336652
16028345075
16028353376
16028361616
16028368635
16028376508
16028384138
16028392011
16028400190
16028406293
16028415021
16028423261
16028432050
16028439924
16028446454
16028454450
16028462446
16028466596
16028473554
16028479413
16028484784
16028489301
16028494672
16028500104
16028507734
16028512433
16028518903
16028525312
16028530622
16028535504
16028541120
16028545880
16028551618
16028559064
16028568280
16028573956
16028579205
16028584393
16028587506
16028595197
16028601300
16028607282
16028615033
16028619794
16028625836
16028630536
16028636517
16028641949
16028647626
16028653485
16028658185
16028662457
16028668805
16028673382
16028678815
16028681500
16028689374
16028694256
16028699261
16028704632
16028709820
16028714520
16028719342
16028725201
16028729596
16028736676
16028741131
16028747052
16028751874
16028757428
16028764019
16028769513
16028776043
16028782086
16028786969
16028792706
16028797161
16028804303
16028808758
16028815045
16028822552
16028828533
16028833844
16028842266
16028846051
16028854290
16028859173
16028867230
16028872784
16028878704
16028885479
16028890118
16028896404
16028902752
16028908184
16028913311
16028920391
16028926434
16028931744
16028937969
16028942669
16028948711
16028954571
16028961163
16028966534
16028970867
16028977642
16028982525
16028987957
16028994488
16029000042
16029006573
16029011761
16029015850
16029022686
16029026958
16029033001
16029039837
16029045452
16029052715
16029059673
16029064983
16029071758
16029076641
16029082256
16029088787
16029093303
16029099773
16029105877
16029110210
16029117839
16029122295
16029129314
16029134502
16029140483
16029147136
16029153545
16029159404
16029164592
16029171123
16029176982
16029183330
16029190959
16029196086
16029202617
16029207378
16029213908
16029221477
16029226176
16029231059
16029237468
16029243388
16029248820
16029254619
16029258891
16029264384
16029268535
16029277812
16029283427
16029288798
16029294169
16029299480
16029303996
16029309306
16029314067
16029319377
16029324687
16029329692
16029334269
16029339518
16029344523
16029349772
16029356364
16029361064
16029367045
16029372416
16029378093
16029382121
16029388102
16029393840
16029398356
16029404155
16029409037
16029414714
16029420451
16029428752
16029434001
16029440165
16029447795
16029452922
16029458781
16029464396
16029469645
16029474894
16029480387
16029486064
16029492960
16029497416
16029503825
16029509196
16029517069
16029522929
16029528117
16029533915
16029539896
16029545145
16029550394
16029555033
16029560343
16029565165
16029572611
16029581400
16029587076
16029595499
16029601420
16029610575
16029616800
16029624369
16029632425
16029639750
16029647379
16029654886
16029661112
16029669169
16029676737
16029683023
16029689005
16029698404
16029707071
16029714029
16029722147
16029731607
16029737650
16029746622
16029752786
16029761087
16029769632
16029780008
16029787210
16029796182
16029802225
16029809854
16029817178
16029826090
16029834451
16029841043
16029848733
16029853433
16029862344
16029869119
16029877542
16029884012
16029893899
16029899087
16029908548
16029915384
16029923074
16029928750
16029936563
16029945047
16029950784
16029958841
16029967996
16029973916
16029981302
16029989541
16029996072
16030003884
16030010720
16030020242
16030028054
16030033547
16030040811
16030048745
16030056680
16030064370
16030071145
16030079507
16030086099
16030093728
16030100198
16030107339
16030114602
16030121804
16030129128
16030138589
16030146706
16030152016
16030161050
16030167031
16030174782
16030183144
16030190652
16030198708
16030205788
16030213479
16030220986
16030227212
16030231850
16030241921
16030250466
16030258584
16030265725
16030274636
16030281716
16030290200
16030297097
16030303749
16030310585
16030319313
16030325966
16030335427
16030341957
16030348671
16030357033
16030363381
16030371620
16030377846
16030386269
16030396156
16030403603
16030413796
16030420082
16030428810
16030434547
16030443397
16030451881
16030459511
16030465370
16030473183
16030481483
16030485939
16030496132
16030500831
16030511513
16030516578
16030526344
16030533241
16030541908
16030548561
16030558448
16030565467
16030575599
16030582496
16030593666
16030598976
16030609108
16030615699
16030623695
16030630226
16030637611
16030646888
16030654457
16030660499
16030669349
16030677528
16030683814
16030692054
16030701637
16030708289
16030716956
16030725929
16030731910
16030739783
16030746864
16030754981
16030762366
16030770301
16030777198
16030785010
16030791846
16030799537
16030806190
16030815467
16030819922
16030829932
16030838050
16030846167
16030851111
16030859839
16030866431
16030874732
16030881568
16030889746
16030895606
16030905555
16030913733
16030920203
16030926062
16030934058
16030942298
16030949683
16030958777
16030965552
16030969763
16030976538
16030980872
16030985571
16030989844
16030997473
16031000769
16031009253
16031012244
16031019263
16031024756
16031028479
16031034766
16031041052
16031045996
16031051550
16031055701
16031061377
16031066321
16031070288
16031077612
16031082190
16031088965
16031091955
16031100378
16031107031
16031111853
16031116064
16031123327
16031129797
16031134802
16031139624
16031145971
16031151220
16031155615
16031162390
16031168310
16031174963
16031179480
16031185339
16031191198
16031195898
16031203649
16031210241
16031215979
16031222021
16031228491
16031234472
16031240148
16031246496
16031252844
16031257543
16031264562
16031272009
16031278295
16031282629
16031287634
16031292883
16031299169
16031305090
16031310217
16031316259
16031321630
16031327489
16031333654
16031338842
16031345190
16031351537
16031358312
16031363500
16031370641
16031375280
16031382421
16031387243
16031393896
16031399206
16031405309
16031411840
16031417760
16031423986
16031429540
16031437780
16031443761
16031449498
16031455114
16031461461
16031467077
16031473424
16031478856
16031483068
16031489537
16031493871
16031499669
16031506261
16031510656
16031517003
16031522374
16031528600
16031532323
16031538732
16031543614
16031549657
16031554357
16031561254
16031564794
16031571568
16031576695
16031583409
16031588292
16031595494
16031601231
16031607213
16031613805
16031618260
16031624364
16031629369
16031634007
16031641881
16031646641
16031653172
16031657078
16031664036
16031668065
16031673924
16031678380
16031686803
16031692113
16031699193
16031707005
16031712437
16031718052
16031724034
16031730198
16031735081
16031742466
16031749363
16031753575
16031758824
16031764439
16031769810
16031776524
16031781346
16031789158
16031793614
16031799961
16031806553
16031813816
16031817295
16031824986
16031830845
16031839146
16031845066
16031850254
16031853977
16031861668
16031864964
16031871861
16031876255
16031882969
16031886570
16031897923
16031900913
16031908970
16031914585
16031919773
16031922886
16031930027
16031935825
16031941074
16031944126
16031951450
16031955051
16031961826
16031964268
16031973057
16031976536
16031984165
16031989597
16031994785
16031998081
16032005405
16032008701
16032017246
16032023777
16032030063
16032035434
16032039890
16032045627
16032051365
16032058078
16032064853
16032069858
16032077243
16032082553
16032088535
16032093296
16032098850
16032103611
16032109470
16032116001
16032123874
16032129611
16032137607
16032145297
16032152866
16032158725
16032167758
16032177280
16032185520
16032192172
16032200473
16032206332
16032210910
16032221774
16032229221
16032239047
16032244174
16032253329
16032259677
16032267306
16032274203
16032282748
16032288608
16032298129
16032304660
16032314486
16032320712
16032329562
16032335544
16032344027
16032352328
16032359835
16032367953
16032375582
16032383334
16032389071
16032396884
16032404635
16032412936
16032417330
16032428317
16032433261
16032443942
16032452242
16032458529
16032465121
16032474215
16032481478
16032492098
16032499300
16032507662
16032514559
16032522555
16032528902
16032535921
16032543917
16032552340
16032558932
16032565279
16032574679
16032582613
16032588473
16032596346
16032602389
16032608919
16032621798
16032628695
16032636385
16032641146
16032650057
16032654085
16032665743
16032669710
16032681978
16032687105
16032696443
16032702974
16032710970
16032718172
16032726595
16032732881
16032742159
16032748628
16032757173
16032766206
16032772798
16032780428
16032787813
16032793733
16032802705
16032810884
16032818269
16032826448
16032832979
16032840669
16032846712
16032855928
16032860383
16032872163
16032877107
16032887727
16032892305
16032903047
16032911165
16032916963
16032923982
16032932710
16032939729
16032949006
16032956086
16032963044
16032971528
16032978730
16032985078
16032993989
16033003938
16033010896
16033016877
16033025666
16033033967
16033040498
16033048310
16033054292
16033064485
16033071687
16033080598
16033088532
16033094453
16033102387
16033109345
16033116181
16033126862
16033134980
16033141450
16033148652
16033158601
16033166108
16033172822
16033179169
16033188080
16033194916
16033202546
16033210908
16033217804
16033223847
16033233368
16033239289
16033247529
16033256623
16033264496
16033273041
16033280548
16033288544
16033295624
16033303742
16033311249
16033319916
16033325531
16033336456
16033341461
16033351410
16033358978
16033367462
16033372162
16033383148
16033388336
16033396698
16033403961
16033412567
16033420074
16033427887
16033434112
16033442108
16033451385
16033456879
16033466339
16033473175
16033481232
16033488128
16033495147
16033500213
16033512909
16033517975
16033525970
16033534515
16033541229
16033546478
16033553558
16033557464
16033564972
16033568451
16033575653
16033580230
16033584991
16033588409
16033595794
16033600006
16033607818
16033612823
16033618011
16033621490
16033628875
16033634063
16033639068
16033643951
16033651336
16033658965
16033665435
16033669647
16033676849
16033682769
16033688751
16033694732
16033700713
16033706390
16033710906
16033717193
16033721709
16033728728
16033733916
16033740691
16033745574
16033751922
16033758391
16033762969
16033769195
16033774566
16033779815
16033787993
16033793059
16033798919
16033804229
16033810454
16033814910
16033822722
16033828826
16033837615
16033843230
16033851226
16033856292
16033863860
16033868682
16033872344
16033881072
16033887053
16033893828
16033897612
16033905669
16033908721
16033918547
16033924224
16033930022
16033935576
16033943755
16033949797
16033956999
16033964568
16033971282
16033977141
16033984221
16033991240
16033996489
16034002837
16034008574
16034014799
16034019560
16034026274
16034032194
16034037016
16034042998
16034049162
16034055144
16034059538
16034065398
16034072172
16034077360
16034083586
16034088469
16034093474
16034098417
16034104521
16034111296
16034116911
16034121183
16034128325
16034133207
16034139250
16034143400
16034148771
16034152800
16034160307
16034165068
16034171049
16034175871
16034183866
16034191557
16034197538
16034202177
16034206632
16034211454
16034218595
16034224516
16034230192
16034235685
16034240019
16034247709
16034252531
16034260832
16034265592
16034270963
16034274687
16034282743
16034288725
16034295499
16034301969
16034308256
16034313016
16034318021
16034322660
16034330350
16034335416
16034342374
16034348844
16034354825
16034359708
16034366117
16034371427
16034379545
16034386258
16034392423
16034398588
16034403776
16034408048
16034413846
16034419706
16034424772
16034430387
16034437162
16034441434
16034448209
16034452665
16034458463
16034464627
16034469388
16034475675
16034479886
16034486844
16034491849
16034496121
16034501432
16034506742
16034512601
16034516873
16034522916
16034528165
16034534940
16034541776
16034546903
16034551907
16034558255
16034563687
16034567166
16034574551
16034581021
16034586270
16034590543
16034596646
16034604337
16034608731
16034614346
16034620084
16034625760
16034631741
16034637418
16034643643
16034649563
16034654324
16034661038
16034667019
16034672696
16034676297
16034681668
16034686978
16034694546
16034698636
16034705899
16034710293
16034717068
16034722439
16034730252
16034737271
16034744473
16034752530
16034759671
16034765103
16034772549
16034779995
16034786526
16034794094
16034801602
16034808987
16034815579
16034822415
16034829556
16034836575
16034843960
16034851528
16034856289
16034865566
16034874233
16034882412
16034890591
16034896572
16034904446
16034912502
16034920376
16034930752
16034937527
16034945705
16034953152
16034959072
16034965542
16034974819
16034982143
16034989712
16034996792
16035005459
16035012417
16035020168
16035026149
16035035244
16035041591
16035051784
16035058498
16035067653
16035073818
16035083278
16035089199
16035095729
16035104396
16035111537
16035121852
16035130275
16035137966
16035144679
16035152797
16035160243
16035166225
16035173793
16035184047
16035189845
16035199001
16035203578
16035212917
16035219936
16035228297
16035235133
16035245631
16035254298
16035261256
16035266444
16035277186
16035282313
16035291469
16035297938
16035305018
16035311732
16035318629
16035327540
16035334926
16035341151
16035348903
16035357569
16035365626
16035375575
16035383143
16035389003
16035397486
16035403712
16035409693
16035418666
16035424708
16035432948
16035441920
16035448573
16035455531
16035463892
16035471217
16035479456
16035486475
16035495631
16035502467
16035509425
16035516138
16035525721
16035532069
16035538538
16035546961
16035552637
16035561976
16035569239
16035577295
16035582239
16035593348
16035598475
16035608240
16035612635
16035625513
16035631189
16035640833
16035647791
16035655970
16035663172
16035671228
16035677332
16035684534
16035692957
16035700342
16035706568
16035713465
16035723291
16035731104
16035738245
16035743555
16035753320
16035758936
16035769617
16035775781
16035784876
16035790063
16035800989
16035809656
16035819788
16035827295
16035834131
16035842859
16035851221
16035857507
16035866846
16035872034
16035882898
16035891382
16035900537
16035907495
16035916162
16035924585
16035931543
16035941247
16035950097
16035956872
16035964563
16035972558
16035979089
16035987023
16035995019
16036001550
16036011193
16036019250
16036027307
16036034631
16036044518
16036052331
16036059838
16036070214
16036079980
16036087365
16036095300
16036104577
16036115380
16036121545
16036129967
16036132592
16036141259
16036145653
16036153893
16036159203
16036164391
16036170800
16036177209
16036182824
16036187523
16036193383
16036198205
16036204247
16036207421
16036215966
16036221947
16036227868
16036232445
16036238121
16036242943
16036248864
16036254784
16036260887
16036267113
16036272606
16036276573
16036282250
16036287743
16036292870
16036299767
16036307274
16036311791
16036316857
16036321556
16036328819
16036334374
16036340599
16036348412
16036354271
16036360252
16036365685
16036371788
16036379051
16036385216
16036391075
16036397118
16036402184
16036409325
16036415550
16036421349
16036426109
16036432640
16036438377
16036443260
16036449303
16036454979
16036461693
16036466514
16036473045
16036477379
16036486168
16036492332
16036498314
16036503746
16036509971
16036514976
16036521873
16036527549
16036535667
16036543663
16036549583
16036555809
16036561607
16036567833
16036573204
16036579124
16036583396
16036589500
16036594505
16036600852
16036605003
16036611778
16036618186
16036622764
16036629539
16036638389
16036644431
16036649558
16036655418
16036662376
16036666160
16036673301
16036676902
16036685630
16036691001
16036697105
16036701560
16036706138
16036711509
16036715964
16036720359
16036728049
16036731528
16036738792
16036741965
16036749045
16036751670
16036760581
16036765647
16036771262
16036777976
16036782920
16036788413
16036794761
16036799643
16036805381
16036809714
16036817160
16036822104
16036828635
16036832969
16036840659
16036845969
16036851767
16036857322
16036863791
16036868247
16036874778
16036879355
16036885459
16036891257
16036896933
16036903037
16036907431
16036915244
16036920188
16036925864
16036930686
16036941306
16036946738
16036952353
16036956809
16036964377
16036969626
16036976340
16036982077
16036987997
16036991660
16036998068
16037001547
16037010336
16037014181
16037022482
16037026083
16037033652
16037037192
16037043906
16037048727
16037057577
16037061484
16037068381
16037073569
16037079184
16037083944
16037089438
16037094320
16037101217
16037107565
16037112753
16037117636
16037124533
16037131918
16037137289
16037141623
16037148764
16037155844
16037161459
16037165853
16037171713
16037177572
16037181784
16037188986
16037193441
16037200826
16037207968
16037212301
16037217489
16037225790
16037231405
16037237875
16037244955
16037251669
16037257528
16037262167
16037268881
16037273702
16037278585
16037284628
16037290548
16037300741
16037308004
16037315755
16037323751
16037331808
16037338338
16037345663
16037352804
16037360738
16037368673
16037375753
16037383443
16037389425
16037397237
16037404500
16037413594
16037422139
16037427938
16037435750
16037442098
16037449849
16037457173
16037465535
16037472554
16037481038
16037489095
16037495809
16037503865
16037511617
16037518697
16037526387
16037534200
16037543843
16037552754
16037559041
16037568013
16037574178
16037582051
16037589864
16037594441
16037605794
16037610982
16037621663
16037626118
16037635701
16037640828
16037652791
16037663411
16037673482
16037680073
16037687214
16037694355
16037702351
16037708943
16037717854
16037723957
16037732197
16037739521
16037745808
16037752217
16037759846
16037768330
16037774250
16037780293
16037789448
16037795613
16037805134
16037811848
16037819660
16037827534
16037834675
16037846638
16037857380
16037864216
16037872028
16037879047
16037887287
16037895405
16037902241
16037910297
16037919575
16037927997
16037934894
16037939899
16037951984
16037957660
16037968830
16037978718
16037986652
16037995563
16038003925
16038011799
16038018573
16038027057
16038034504
16038043048
16038051166
16038058612
16038065448
16038073261
16038079792
16038087177
16038093891
16038103717
16038113605
16038120197
16038127277
16038135761
16038144183
16038150409
16038160846
16038168903
16038177081
16038183551
16038191974
16038198199
16038207294
16038214618
16038224017
16038231097
16038239703
16038246722
16038255511
16038264667
16038271625
16038279071
16038289508
16038296893
16038305743
16038313556
16038321063
16038328387
16038334796
16038341204
16038349871
16038357867
16038366595
16038373431
16038382769
16038389910
16038398211
16038407183
16038416033
16038422991
16038429705
16038438921
16038447649
16038454913
16038464190
16038468951
16038478594
16038485796
16038493792
16038498614
16038508501
16038515520
16038523272
16038532000
16038540117
16038545794
16038555559
16038560686
16038569597
16038574602
16038584429
16038590227
16038600481
16038605303
16038615496
16038620256
16038630816
16038638140
16038645525
16038652788
16038662676
16038670793
16038677507
16038683794
16038689531
16038694170
16038700151
16038705705
16038712114
16038717851
16038722734
16038728777
16038734575
16038739092
16038743364
16038752092
16038757158
16038764848
16038768449
16038775041
16038779802
16038784929
16038790300
16038798357
16038803361
16038809709
16038815568
16038821062
16038825883
16038830766
16038834794
16038841447
16038846940
16038854387
16038858476
16038863847
16038870256
16038876115
16038880937
16038888017
16038893571
16038898393
16038904435
16038910112
16038916581
16038920854
16038925920
16038931840
16038938432
16038943864
16038950151
16038955400
16038961198
16038966081
16038974626
16038979814
16038985612
16038991838
16038996171
16039002458
16039004472
16039014665
16039018693
16039025285
16039029496
16039036942
16039042497
16039049699
16039055070
16039060258
16039067765
16039071915
16039076432
16039084000
16039089494
16039095719
16039101090
16039108414
16039114091
16039120316
16039124955
16039128739
16039138199
16039144364
16039149552
16039155228
16039161027
16039167252
16039172684
16039177628
16039184037
16039188920
16039196244
16039200943
16039206498
16039213517
16039218766
16039225480
16039232560
16039240982
16039248368
16039254166
16039257889
16039265396
16039268509
16039277542
16039282730
16039289261
16039294083
16039298660
16039303665
16039310806
16039315567
16039322647
16039328568
16039334122
16039341019
16039348038
16039354385
16039359573
16039368485
16039376053
16039381119
16039384842
16039393692
16039397659
16039405655
16039408768
16039417129
16039420181
16039426041
16039430496
16039438919
16039442886
16039449661
16039455154
16039459610
16039464187
16039469558
16039473953
16039481338
16039486282
16039492141
16039495620
16039501846
16039506485
16039513382
16039516128
16039525344
16039531692
16039536941
16039542251
16039548355
16039552810
16039560318
16039564590
16039571853
16039578323
16039583755
16039588760
16039595291
16039600540
16039606155
16039611282
16039617324
16039621597
16039628738
16039632705
16039638015
16039644058
16039649490
16039653823
16039660476
16039667251
16039672073
16039677627
16039683059
16039689223
16039693679
16039700271
16039704177
16039710891
16039716994
16039722976
16039729201
16039733779
16039738601
16039744094
16039748794
16039756301
16039759963
16039767104
16039770217
16039777541
16039782851
16039789382
16039794143
16039798903
16039805373
16039811843
16039816603
16039823806
16039830214
16039835646
16039841445
16039847182
16039854811
16039860488
16039866164
16039873732
16039881911
16039888808
16039896498
16039902236
16039912062
16039921034
16039929152
16039936781
16039942824
16039951125
16039958510
16039965407
16039975844
16039984206
16039991713
16039999220
16040007155
16040013869
16040023329
16040029860
16040038893
16040045790
16040055372
16040062147
16040071425
16040078261
16040086256
16040093458
16040102186
16040109022
16040117384
16040123365
16040132338
16040138319
16040147779
16040157118
16040163771
16040172315
16040180860
16040189100
16040196974
16040203016
16040207716
16040217848
16040222730
16040233717
16040242750
16040249036
16040257581
16040265760
16040274122
16040280286
16040287122
16040298353
16040306776
16040314527
16040319593
16040329664
16040337049
16040342969
16040349683
16040360792
16040368238
16040376417
16040382947
16040391065
16040396985
16040405713
16040412061
16040420972
16040427381
16040436841
16040442945
16040450818
16040458875
16040465711
16040473462
16040483350
16040492322
16040499829
16040505689
16040513562
16040521924
16040529126
16040535046
16040542554
16040552014
16040558240
16040567029
16040571912
16040581921
16040588391
16040596509
16040603162
16040612561
16040619519
16040628247
16040634839
16040642773
16040649365
16040658520
16040664441
16040672375
16040681225
16040688549
16040697461
16040703930
16040712292
16040719738
16040726147
16040735058
16040744274
16040751110
16040759533
16040767651
16040778149
16040787548
16040794018
16040803112
16040811718
16040819042
16040826794
16040833813
16040841564
16040847973
16040856396
16040864574
16040873791
16040880566
16040888317
16040893871
16040902721
16040907116
16040916698
16040921154
16040933788
16040941051
16040948925
16040954662
16040964000
16040969860
16040979320
16040986156
16040995006
16041001476
16041009533
16041017528
16041025524
16041031749
16041040416
16041048229
16041055675
16041065196
16041071605
16041079906
16041087596
16041095409
16041100231
16041109569
16041117015
16041127269
16041132396
16041142894
16041147472
16041158214
16041162242
16041172923
16041176952
16041187633
16041197093
16041204661
16041211619
16041220042
16041226329
16041234630
16041240550
16041250560
16041256907
16041266429
16041272532
16041280162
16041288463
16041295420
16041299510
16041304820
16041312327
16041318980
16041323069
16041329478
16041334117
16041339976
16041346507
16041353892
16041360057
16041364817
16041368357
16041376658
16041382762
16041389353
16041394114
16041400523
16041407054
16041411509
16041417307
16041422801
16041427134
16041433421
16041439280
16041446543
16041454417
16041458933
16041466502
16041470164
16041478159
16041481028
16041492136
16041497019
16041506907
16041514109
16041520640
16041526377
16041531260
16041537790
16041544199
16041551035
16041555552
16041561594
16041568369
16041573984
16041580332
16041585886
16041590708
16041597483
16041602060
16041608286
16041613413
16041620920
16041624033
16041632578
16041637888
16041645700
16041651132
16041657968
16041663156
16041670175
16041675485
16041683603
16041688852
16041695505
16041700754
16041705820
16041710825
16041717600
16041722482
16041730112
16041735117
16041743295
16041748056
16041754404
16041758737
16041764902
16041768198
16041777841
16041785348
16041789926
16041796396
16041802499
16041807809
16041813608
16041818307
16041827035
16041832162
16041838022
16041844125
16041848764
16041854684
16041860605
16041865121
16041873056
16041877939
16041883737
16041889291
16041895272
16041901437
16041905832
16041912118
16041918161
16041924203
16041930123
16041935067
16041941049
16041947274
16041951730
16041955087
16041966500
16041972238
16041977304
16041983956
16041990060
16041996346
16042000802
16042008004
16042014108
16042020516
16042024850
16042030343
16042036141
16042042123
16042048776
16042054696
16042061776
16042068917
16042074166
16042080025
16042085091
16042093209
16042098397
16042107125
16042110726
16042117623
16042123055
16042128365
16042133736
16042139046
16042142953
16042149300
16042155526
16042161019
16042166329
16042171822
16042177071
16042182686
16042188851
16042195137
16042201180
16042205819
16042212044
16042218209
16042223397
16042227730
16042233834
16042239754
16042245980
16042252327
16042257759
16042262154
16042268807
16042273079
16042280403
16042287056
16042292793
16042299263
16042305123
16042309883
16042316536
16042321602
16042327766
16042332771
16042338814
16042345222
16042351265
16042356270
16042361702
16042367805
16042374153
16042378914
16042386055
16042389717
16042398750
16042405098
16042409431
16042414680
16042423897
16042430000
16042436287
16042440315
16042446907
16042452705
16042460701
16042468208
16042477119
16042485176
16042493049
16042500679
16042506477
16042514412
16042522224
16042527107
16042540290
16042546882
16042555000
16042560920
16042571418
16042579902
16042588569
16042594673
16042605415
16042613349
16042619575
16042627692
16042635566
16042643684
16042649604
16042657844
16042666694
16042674201
16042682746
16042691413
16042697455
16042707038
16042713264
16042721808
16042730536
16042738044
16042746161
16042753425
16042761664
16042770209
16042780036
16042796393
16042806220
16042819464
16042829657
16042842108
16042852118
16042866217
16042876349
16042885138
16042891913
16042901740
16042908576
16042916876
16042923590
16042929755
16042937750
16042946722
16042953192
16042961249
16042967841
16042976324
16042984076
16042990423
16042998358
16043005987
16043014471
16043022223
16043030157
16043037359
16043045294
16043052740
16043060614
16043069891
16043075079
16043084784
16043091681
16043100103
16043107611
16043115301
16043121893
16043130011
16043136419
16043146917
16043153692
16043162420
16043168951
16043178655
16043185613
16043193975
16043200262
16043205206
16043215704
16043221014
16043231695
16043236700
16043246160
16043253728
16043261297
16043270452
16043276250
16043282659
16043291875
16043300847
16043307500
16043315496
16043323797
16043330266
16043338323
16043345220
16043350530
16043360845
16043368657
16043375249
16043382756
16043393743
16043399602
16043409917
16043417730
16043424993
16043431829
16043439580
16043446172
16043455205
16043461431
16043469548
16043475530
16043483769
16043490544
16043499638
16043507024
16043512029
16043522466
16043528142
16043536931
16043544194
16043552190
16043558903
16043568303
16043575078
16043585149
16043591496
16043600773
16043607609
16043615300
16043624028
16043633244
16043642033
16043650151
16043659794
16043668522
16043677433
16043682866
16043692448
16043700810
16043707890
16043712834
16043724736
16043729008
16043741337
16043746830
16043757145
16043764164
16043773197
16043780522
16043789311
16043795658
16043804997
16043811710
16043819462
16043828068
16043835819
16043844730
16043851017
16043861393
16043867008
16043876163
16043883366
16043891422
16043900455
16043907963
16043914432
16043924869
16043930057
16043936344
16043941715
16043950260
16043955570
16043962345
16043967411
16043974857
16043980167
16043987430
16043992557
16043999576
16044004642
16044010135
16044014408
16044020267
16044026493
16044031314
16044035648
16044042118
16044046573
16044054508
16044059879
16044066654
16044073306
16044078616
16044085391
16044090213
16044096927
16044103092
16044108218
16044115726
16044121890
16044128177
16044134647
16044140811
16044147403
16044155276
16044161136
16044165652
16044172732
16044177676
16044183230
16044187686
16044196231
16044201724
16044207767
16044214908
16044221622
16044227237
16044232608
16044239261
16044244327
16044250857
16044258853
16044266055
16044272464
16044277469
16044282779
16044288211
16044293948
16044299014
16044304751
16044310305
16044316104
16044321292
16044325381
16044331240
16044336672
16044342471
16044349185
16044355227
16044359561
16044366824
16044371279
16044378115
16044382815
16044388735
16044395510
16044401675
16044406374
16044412234
16044416750
16044423281
16044427554
16044435488
16044440310
16044448305
16044453188
16044458254
16044464663
16044469363
16044476565
16044482119
16044486941
16044494143
16044498781
16044505434
16044509951
16044515810
16044521914
16044528444
16044534914
16044539919
16044546206
16044550905
16044557070
16044561831
16044567873
16044574709
16044579470
16044587099
16044591677
16044597048
16044603273
16044608278
16044612673
16044619081
16044625490
16044631960
16044637819
16044642458
16044647524
16044654787
16044660829
16044667055
16044673219
16044678774
16044684816
16044689211
16044695314
16044702394
16044707521
16044717409
16044723085
16044731630
16044737489
16044742433
16044749513
16044753603
16044759462
16044765443
16044771181
16044775819
16044781862
16044786684
16044794069
16044799379
16044805971
16044811769
16044817994
16044823976
16044828920
16044836488
16044842286
16044848756
16044855470
16044862672
16044868898
16044873903
16044878053
16044885011
16044889466
16044896852
16044900270
16044906678
16044911317
16044917665
16044922792
16044927430
16044932252
16044941224
16044947511
16044953126
16044956605
16044963136
16044968019
16044974732
16044979737
16044986878
16044992921
16044998170
16045002992
16045010438
16045013917
16045021485
16045024537
16045033082
16045036683
16045044678
16045048341
16045056336
16045060059
16045066651
16045071412
16045079163
16045085755
16045091736
16045095338
16045102051
16045106873
16045113526
16045119080
16045124329
16045130860
16045135987
16045140870
16045147278
16045152222
16045157837
16045162659
16045170960
16045174744
16045181763
16045187195
16045192749
16045198792
16045204041
16045208741
16045216980
16045223694
16045228760
16045235596
16045242859
16045248841
16045254517
16045266724
16045273804
16045282410
16045291199
16045299316
16045308228
16045323425
16045335510
16045341980
16045360657
16045372620
16045382507
16045394104
16045405151
16045416870
16045430481
16045444214
16045453918
16045463928
16045473388
16045483825
16045495056
16045505615
16045517517
16045526550
16045534606
16045543579
16045553283
16045561584
16045570190
16045578430
16045586486
16045594421
16045602905
16045610839
16045618346
16045626403
16045635253
16045643493
16045652038
16045658935
16045667052
16045674010
16045682616
16045688842
16045696715
16045702453
16045714293
16045722289
16045729247
16045736998
16045745726
16045753478
16045761901
16045769835
16045778624
16045785826
16045793944
16045801207
16045809264
16045816344
16045822325
16045832396
16045839598
16045850218
16045857176
16045867613
16045876158
16045884032
16045891478
16045902037
16045908568
16045918578
16045926207
16045936095
16045942809
16045953001
16045959654
16045969969
16045977476
16045987486
16045994749
16046003599
16046011351
16046019835
16046027647
16046037474
16046044554
16046053038
16046063108
16046070433
16046077147
16046084410
16046092649
16046101194
16046106199
16046117124
16046124205
16046133787
16046143675
16046150694
16046159117
16046166136
16046173033
16046179929
16046188657
16046196531
16046203367
16046211546
16046218809
16046226743
16046234129
16046242368
16046254026
16046262937
16046271177
16046278196
16046286680
16046295164
16046303403
16046309507
16046318052
16046324643
16046332212
16046340818
16046346677
16046357419
16046364988
16046372007
16046380185
16046387571
16046396238
16046401548
16046412595
16046416928
16046429380
16046437070
16046444150
16046452756
16046461789
16046468259
16046474851
16046484250
16046493588
16046500729
16046507504
16046515073
16046523862
16046529294
16046538632
16046542783
16046554562
16046562314
16046569821
16046575925
16046584042
16046591672
16046598752
16046606503
16046613949
16046621029
16046629818
16046634701
16046643551
16046649167
16046658261
16046667355
16046674740
16046680050
16046684262
16046687619
16046694210
16046700131
16046704953
16046709713
16046715267
16046720394
16046724728
16046729916
16046736935
16046742367
16046746884
16046752194
16046758663
16046763119
16046768734
16046774960
16046780514
16046785763
16046789730
16046795651
16046801022
16046804745
16046811398
16046815487
16046820919
16046824642
16046829586
16046833126
16046838131
16046842281
16046849239
16046854488
16046859310
16046862423
16046870174
16046874447
16046880184
16046883480
16046892269
16046897701
16046903805
16046908321
16046913265
16046918087
16046922481
16046928951
16046934993
16046940059
16046943783
16046948238
16046951900
16046957271
16046962154
16046968990
16046971920
16046977474
16046981868
16046985836
16046989803
16046995357
16046999446
16047005916
16047011226
16047016048
16047021358
16047025997
16047029232
16047035030
16047039424
16047047176
16047051143
16047056514
16047059322
16047067073
16047071468
16047076228
16047079524
16047086543
16047091060
16047095882
16047099971
16047104976
16047109615
16047114253
16047117000
16047125789
16047130489
16047136104
16047140559
16047145381
16047149959
16047154658
16047158626
16047164180
16047170039
16047175166
16047180171
16047184688
16047189021
16047194819
16047200068
16047207515
16047215999
16047222346
16047227534
16047233821
16047240229
16047246638
16047252375
16047256831
16047263301
16047267756
16047272517
16047276118
16047280085
16047284846
16047291133
16047296321
16047301326
16047306208
16047310603
16047315364
16047319087
16047325495
16047330866
16047335505
16047340632
16047344416
16047350398
16047354975
16047359614
16047363886
16047370051
16047374506
16047382014
16047387751
16047393549
16047396906
16047404108
16047409235
16047415400
16047420344
16047424372
16047429682
16047433588
16047439082
16047443415
16047447932
16047450800
16047456477
16047460993
16047465021
16047469477
16047476313
16047482538
16047486323
16047491389
16047495112
16047500544
16047505366
16047510615
16047514765
16047520441
16047524958
16047529474
16047534479
16047539240
16047542231
16047550409
16047555841
16047559870
16047565180
16047569880
16047574701
16047579889
16047585871
16047592157
16047597834
16047603754
16047608148
16047613031
16047618646
16047622614
16047627985
16047633783
16047639704
16047646051
16047650018
16047655206
16047659784
16047663751
16047669306
16047673944
16047680536
16047684564
16047690057
16047694208
16047701227
16047705377
16047710443
16047716119
16047721857
16047726495
16047731744
16047736200
16047742548
16047747980
16047753839
16047759698
16047765924
16047769220
16047774896
16047779901
16047785638
16047790094
16047796808
16047802301
16047806634
16047812066
16047817254
16047819940
16047826165
16047831109
16047840020
16047845453
16047849603
16047856073
16047860772
16047865716
16047871698
16047878656
16047885003
16047891656
16047896356
16047902825
16047908746
16047914544
16047919122
16047926568
16047931268
16047937127
16047941400
16047947076
16047951348
16047955377
16047959100
16047964654
16047970635
16047976800
16047981622
16047986321
16047990899
16047995721
16047999810
16048004754
16048010125
16048015862
16048020318
16048025567
16048030572
16048036431
16048042657
16048048577
16048053948
16048058587
16048064324
16048070183
16048075860
16048081231
16048086053
16048091546
16048097588
16048102349
16048109002
16048113396
16048120476
16048125176
16048129143
16048138298
16048144707
16048150628
16048154290
16048160027
16048164177
16048170220
16048173638
16048182793
16048189019
16048193657
16048200188
16048204277
16048209954
16048213860
16048218621
16048226250
16048229912
16048237786
16048242790
16048246697
16048251885
16048258232
16048263176
16048269035
16048274956
16048279228
16048284111
16048290093
16048293633
16048300163
16048304619
16048310661
16048317436
16048324333
16048331413
16048335808
16048341484
16048346367
16048352592
16048357536
16048364494
16048369682
16048374687
16048378898
16048384331
16048388847
16048395927
16048400871
16048407829
16048413749
16048419548
16048423820
16048431755
16048436638
16048446220
16048451469
16048459221
16048462028
16048470329
16048476615
16048482292
16048488151
16048494194
16048499748
16048504020
16048510185
16048514396
16048520072
16048525932
16048531974
16048536857
16048542655
16048547599
16048554740
16048559806
16048566337
16048572257
16048577995
16048582938
16048588493
16048594047
16048599540
16048605155
16048609184
16048615226
16048621452
16048628471
16048634147
16048640189
16048645255
16048651115
16048656303
16048662040
16048668204
16048675406
16048679130
16048686515
16048690177
16048697440
16048700919
16048708854
16048714286
16048720023
16048725699
16048730216
16048736075
16048741813
16048747916
16048754752
16048761039
16048766104
16048772635
16048777640
16048783988
16048788810
16048797721
16048804068
16048809439
16048814994
16048819327
16048825492
16048831290
16048839285
16048843741
16048850150
16048855704
16048861380
16048868277
16048872733
16048879202
16048886466
16048893118
16048897879
16048904898
16048908194
16048914786
16048919669
16048927237
16048934500
16048940115
16048949148
16048953848
16048961111
16048965689
16048972891
16048979544
16048985892
16048993582
16048998526
16049005240
16049010428
16049018545
16049026358
16049031546
16049039236
16049042166
16049049307
16049053946
16049061514
16049065664
16049073782
16049078299
16049084951
16049089346
16049095449
16049100088
16049107107
16049112051
16049118399
16049124319
16049129141
16049134634
16049140066
16049145986
16049151846
16049158254
16049163259
16049170217
16049173940
16049180837
16049186758
16049192312
16049198354
16049203237
16049208120
16049214590
16049220205
16049227224
16049230398
16049238454
16049243337
16049248342
16049252920
16049262319
16049267568
16049274038
16049279287
16049287160
16049291372
16049297658
16049302663
16049308706
16049315358
16049320974
16049327138
16049332326
16049338735
16049343190
16049348745
16049352285
16049360341
16049365102
16049371877
16049375661
16049383596
16049386586
16049392995
16049398122
16049404409
16049410695
16049416493
16049421498
16049426930
16049431996
16049437978
16049444325
16049450551
16049456471
16049462209
16049468556
16049473683
16049479360
16049483693
16049491567
16049499318
16049504140
16049510304
16049515553
16049521352
16049526479
16049532521
16049534352
16049544118
16049551869
16049556264
16049563405
16049569874
16049575978
16049581654
16049588368
16049596669
16049603505
16049608693
16049614308
16049620350
16049625782
16049630604
16049636708
16049642811
16049648243
16049653920
16049659840
16049665028
16049668385
16049676014
16049681691
16049687977
16049692433
16049698658
16049702076
16049709828
16049713368
16049721607
16049725147
16049733265
16049737843
16049744923
16049747975
16049756275
16049761585
16049769642
16049774830
16049782459
16049788746
16049793995
16049798878
16049807117
16049812428
16049818897
16049823658
16049830799
16049835071
16049841724
16049847095
16049853809
16049858204
16049863697
16049869251
16049875660
16049879932
16049885364
16049891590
16049895252
16049903675
16049907154
16049913929
16049919544
16049926990
16049930530
16049937183
16049942371
16049949024
16049953846
16049958667
16049965564
16049969776
16049976551
16049986804
16050005298
16050014636
16050019397
16050033252
16050039600
16050050403
16050058704
16050068591
16050076953
16050083850
16050088062
16050094836
16050099109
16050104358
16050108813
16050113574
16050119250
16050123950
16050129748
16050134875
16050140979
16050146655
16050151904
16050155139
16050162280
16050165759
16050173450
16050181506
16050188281
16050193164
16050197986
16050205371
16050209948
16050214343
16050218310
16050225695
16050228686
16050235217
16050240039
16050246569
16050250109
16050256396
16050261035
16050268359
16050271777
16050277636
16050282336
16050288256
16050293750
16050299060
16050304125
16050312304
16050316027
16050322802
16050328967
16050335864
16050341113
16050345873
16050349963
16050355700
16050360278
16050366320
16050372729
16050377551
16050384448
16050390246
16050394518
16050400072
16050404406
16050409594
16050415270
16050420702
16050426989
16050431628
16050437548
16050443590
16050449511
16050454760
16050461413
16050466234
16050472338
16050478014
16050483507
16050487108
16050496630
16050499865
16050508654
16050512072
16050520495
16050525072
16050531969
16050536852
16050543261
16050549547
16050555895
16050562242
16050567858
16050572924
16050576830
16050585741
16050589586
16050598192
16050601488
16050611254
16050614366
16050621263
16050627916
16050634325
16050639208
16050646532
16050651842
16050658922
16050666429
16050671556
16050678392
16050682359
16050690172
16050696458
16050702928
16050708177
16050714891
16050720262
16050726976
16050732164
16050738756
16050743516
16050750963
16050756456
16050762681
16050768114
16050775194
16050780809
16050785997
16050794359
16050801622
16050808946
16050814439
16050820787
16050826402
16050833604
16050839280
16050845506
16050850084
16050857652
16050862352
16050867967
16050874986
16050881639
16050887742
16050892991
16050899095
16050905076
16050911180
16050916490
16050921983
16050926194
16050932908
16050936509
16050944932
16050948167
16050957261
16050963914
16050969468
16050972947
16050979661
16050985032
16050990586
16050995896
16051002976
16051008286
16051015305
16051018662
16051027207
16051032334
16051037522
16051041672
16051049363
16051054490
16051061387
16051066086
16051072983
16051077439
16051083848
16051089463
16051094468
16051101243
16051108323
16051113266
16051119858
16051124619
16051130722
16051136460
16051140305
16051147385
16051153061
16051158676
16051162217
16051169541
16051173203
16051181320
16051186325
16051193100
16051196762
16051203720
16051207138
16051214035
16051219162
16051224472
16051230576
16051235581
16051241928
16051247727
16051251999
16051257736
16051263352
16051269455
16051276840
16051282089
16051289536
16051294357
16051300034
16051306137
16051312118
16051317062
16051323105
16051326462
16051334091
16051340317
16051346054
16051349594
16051357590
16051361435
16051368271
16051373947
16051382797
16051387741
16051394394
16051400314
16051406540
16051413315
16051418258
16051425888
16051430526
16051436691
16051442184
16051448349
16051453903
16051457626
16051463302
16051469467
16051474594
16051480880
16051485946
16051491989
16051497482
16051501754
16051508956
16051513229
16051518417
16051524276
16051531234
16051535629
16051541061
16051546981
16051553451
16051558151
16051564498
16051569686
16051576522
16051584213
16051589645
16051595382
16051600387
16051606063
16051610702
16051618636
16051623336
16051630111
16051633407
16051640914
16051646407
16051652083
16051655746
16051665267
16051669112
16051677108
16051683700
16051689132
16051694381
16051700728
16051705611
16051714400
16051720260
16051727095
16051730758
16051738021
16051742965
16051748397
16051754866
16051760176
16051765425
16051771956
16051776412
16051784041
16051788436
16051794356
16051800643
16051805647
16051812483
16051818343
16051824019
16051829207
16051834944
16051840682
16051846602
16051852217
16051858809
16051869063
16051874373
16051879500
16051886824
16051892989
16051897200
16051904890
16051908797
16051915572
16051919417
16051927473
16051933028
16051938032
16051942732
16051950972
16051954817
16051961897
16051967268
16051973433
16051978987
16051986128
16051991804
16052000105
16052007917
16052012007
