16330835939
16330842043
16330848085
16330852907
16330858644
16330863649
16330869386
16330874330
16330881044
16330886659
16330893678
16330899782
16330905458
16330912782
16330918580
16330923402
16330929872
16330936647
16330942567
16330948304
16330954713
16330961732
16330967347
16330973390
16330980714
16330989320
16330996888
16331003297
16331010438
16331015992
16331020814
16331027894
16331035096
16331041017
16331046327
16331053834
16331068421
16331076356
16331085389
16331092103
16331099854
16331106385
16331114869
16331122926
16331128114
16331135011
16331140321
16331146302
16331153199
16331159730
16331166199
16331172791
16331179810
16331185853
16331191956
16331197693
16331204468
16331211487
16331216065
16331223084
16331229004
16331235535
16331241089
16331248047
16331254151
16331261048
16331266785
16331271607
16331281250
16331287415
16331293946
16331300721
16331308411
16331312989
16331320557
16331326538
16331332581
16331339783
16331346436
16331354370
16331360413
16331367920
16331373840
16331381165
16331388733
16331395203
16331401062
16331407471
16331414612
16331419495
16331426575
16331433777
16331438538
16331444214
16331451294
16331457397
16331464477
16331471496
16331478332
16331484863
16331492126
16331498718
16331505981
16331512634
16331518371
16331525635
16331534118
16331540222
16331546447
16331554260
16331560241
16331568725
16331575988
16331582092
16331589782
16331595642
16331601928
16331609191
16331615051
16331622558
16331630004
16331636901
16331642150
16331649780
16331656555
16331666015
16331673461
16331679809
16331688720
16331693969
16331704528
16331708373
16331719360
16331731445
16331738647
16331744994
16331750732
16331758361
16331763305
16331770995
16331777465
16331783019
16331789977
16331795653
16331802917
16331808471
16331815917
16331821715
16331828856
16331836059
16331841979
16331849181
16331854857
16331861876
16331866881
16331874327
16331882933
16331888121
16331896239
16331903624
16331910338
16331917113
16331923888
16331931395
16331937621
16331944213
16331951842
16331957640
16331963805
16331970397
16331978941
16331984435
16331993407
16331999327
16332008299
16332014525
16332021727
16332029173
16332038268
16332045164
16332052977
16332059569
16332067503
16332072935
16332080687
16332085814
16332093687
16332100706
16332108763
16332115599
16332123900
16332129271
16332137938
16332144041
16332152708
16332161375
16332167112
16332174559
16332183104
16332189329
16332198423
16332206297
16332213072
16332220030
16332228636
16332235655
16332242369
16332250730
16332257749
16332264036
16332274107
16332279600
16332288999
16332294553
16332304258
16332310850
16332318174
16332326475
16332334043
16332344785
16332351499
16332358213
16332366392
16332372190
16332381467
16332388914
16332396848
16332407407
16332413389
16332420286
16332425779
16332431760
16332436643
16332442014
16332448545
16332452878
16332458188
16332461484
16332466916
16332472104
16332477720
16332481565
16332487668
16332492551
16332498410
16332502744
16332508725
16332514096
16332520139
16332524533
16332531003
16332536740
16332542966
16332547910
16332552976
16332557614
16332562009
16332566709
16332571897
16332576596
16332580930
16332586606
16332590573
16332595334
16332601132
16332606870
16332613828
16332619016
16332624814
16332630856
16332635983
16332641843
16332645077
16332651852
16332659482
16332662961
16332669186
16332673947
16332680844
16332685239
16332691647
16332697201
16332703427
16332709225
16332716061
16332721860
16332726925
16332732296
16332737423
16332742428
16332747921
16332756161
16332761105
16332765744
16332771786
16332777401
16332782833
16332787228
16332793820
16332799069
16332805783
16332811886
16332817440
16332821774
16332827633
16332833126
16332838436
16332845455
16332851803
16332856259
16332862362
16332868038
16332873593
16332879940
16332883724
16332889523
16332894894
16332902218
16332907406
16332912960
16332918453
16332924191
16332929562
16332934994
16332943356
16332947750
16332955135
16332959164
16332967281
16332974361
16332979671
16332987057
16332992794
16332998714
16333005611
16333010250
16333016231
16333021175
16333025814
16333030758
16333038570
16333044063
16333049862
16333054256
16333059932
16333065731
16333070613
16333076839
16333081844
16333086849
16333091548
16333098201
16333107051
16333112728
16333117488
16333122859
16333127864
16333134151
16333138851
16333144100
16333148677
16333153133
16333159358
16333164546
16333170223
16333175350
16333180721
16333185848
16333191158
16333200618
16333205318
16333209712
16333216243
16333222713
16333226924
16333233516
16333237422
16333243648
16333247859
16333254268
16333260066
16333266109
16333271968
16333278743
16333283137
16333289363
16333294612
16333298945
16333305232
16333308650
16333316707
16333322078
16333326228
16333333186
16333337764
16333343440
16333350276
16333356501
16333360713
16333367060
16333371455
16333376582
16333382441
16333387141
16333393672
16333397761
16333404780
16333410395
16333414973
16333420527
16333425166
16333431452
16333436335
16333442073
16333446833
16333451838
16333456355
16333461054
16333467646
16333471736
16333479365
16333483576
16333490046
16333494502
16333499995
16333505000
16333510676
16333517085
16333525324
16333535517
16333542963
16333551081
16333559870
16333568110
16333575190
16333582941
16333589838
16333598261
16333604731
16333611811
16333619745
16333627680
16333636103
16333644587
16333651178
16333658503
16333667048
16333674921
16333678827
16333688044
16333693964
16333702570
16333711115
16333716913
16333725214
16333733637
16333742060
16333746698
16333755304
16333762262
16333770746
16333777216
16333785700
16333791498
16333800653
16333807794
16333816766
16333823602
16333830988
16333838373
16333848444
16333856378
16333863702
16333871759
16333879083
16333886896
16333895257
16333903741
16333911859
16333920465
16333929193
16333937310
16333945245
16333951715
16333959954
16333966729
16333976922
16333983331
16333992181
16334001580
16334007928
16334015252
16334023919
16334032220
16334041375
16334048638
16334053033
16334065118
16334073235
16334081658
16334088677
16334096734
16334103143
16334113396
16334120293
16334127557
16334137200
16334143243
16334152825
16334160577
16334169610
16334176324
16334185662
16334191887
16334201836
16334210259
16334217583
16334225457
16334234917
16334242730
16334252434
16334260186
16334267815
16334275566
16334284661
16334290764
16334301262
16334312371
16334321221
16334330376
16334335808
16334346794
16334355522
16334363701
16334372246
16334382195
16334388847
16334396660
16334404961
16334412285
16334418938
16334426933
16334435295
16334443047
16334451469
16334457085
16334465690
16334472893
16334479606
16334487114
16334496208
16334503959
16334513237
16334520805
16334527153
16334534538
16334542350
16334549797
16334557731
16334565361
16334573661
16334581596
16334587822
16334595817
16334603630
16334611076
16334620597
16334627983
16334633537
16334643241
16334649589
16334658317
16334664176
16334670890
16334680229
16334688712
16334695609
16334704276
16334713676
16334718925
16334728995
16334737113
16334745170
16334752494
16334760734
16334768241
16334776969
16334786674
16334795035
16334802176
16334810843
16334817985
16334827201
16334833548
16334842948
16334849906
16334857840
16334867301
16334873526
16334883048
16334891227
16334900626
16334906974
16334916983
16334924796
16334932181
16334939505
16334947745
16334955191
16334963187
16334971182
16334979971
16334989554
16334993887
16334998343
16335005179
16335009818
16335016043
16335023062
16335026663
16335033316
16335037894
16335044302
16335048941
16335056326
16335061758
16335066824
16335071280
16335078848
16335084402
16335090811
16335096426
16335104666
16335110281
16335116995
16335126028
16335130484
16335138540
16335143789
16335150991
16335156485
16335162405
16335166983
16335174063
16335178579
16335183218
16335188101
16335192861
16335197866
16335203909
16335208975
16335213796
16335218313
16335223745
16335230215
16335236318
16335241628
16335247061
16335251516
16335257742
16335262441
16335269399
16335273550
16335280630
16335285207
16335291006
16335296560
16335303213
16335308401
16335314016
16335319448
16335324941
16335330862
16335335989
16335341970
16335348196
16335353811
16335359243
16335364736
16335369558
16335376882
16335382314
16335387807
16335392202
16335397756
16335404775
16335408620
16335415456
16335420583
16335426137
16335430959
16335437795
16335443715
16335449270
16335454030
16335459584
16335465749
16335472097
16335478078
16335484914
16335489614
16335495778
16335501027
16335506459
16335510915
16335516774
16335523976
16335527699
16335535146
16335539662
16335546498
16335550893
16335557362
16335562306
16335568532
16335574757
16335579701
16335585194
16335590688
16335596730
16335602773
16335607594
16335614796
16335619618
16335625172
16335630971
16335635548
16335640004
16335646962
16335653187
16335658620
16335663380
16335668141
16335674977
16335680836
16335686879
16335693226
16335699452
16335706776
16335713856
16335722462
16335726918
16335735035
16335739491
16335745655
16335749745
16335755665
16335760731
16335765858
16335772633
16335777760
16335782032
16335787648
16335794178
16335798451
16335805775
16335810536
16335816456
16335821461
16335826222
16335832936
16335838123
16335842274
16335849293
16335855763
16335862476
16335866200
16335873219
16335878468
16335884815
16335889515
16335895985
16335901966
16335907398
16335913258
16335918690
16335923695
16335930164
16335934498
16335941029
16335945911
16335951404
16335958423
16335962879
16335969349
16335974232
16335979542
16335984730
16335990650
16335996998
16336002491
16336008350
16336013782
16336020496
16336025257
16336029529
16336035572
16336042530
16336048633
16336053943
16336060718
16336065174
16336070056
16336076526
16336080921
16336089099
16336095508
16336100513
16336106616
16336113635
16336117237
16336123340
16336128345
16336134143
16336141528
16336147083
16336152454
16336158557
16336164661
16336169666
16336176379
16336186511
16336193103
16336201160
16336210498
16336217944
16336225818
16336234424
16336241809
16336249988
16336258044
16336267566
16336274646
16336282641
16336290881
16336297534
16336305530
16336313220
16336323840
16336331164
16336343127
16336356005
16336366320
16336373950
16336382006
16336390246
16336399096
16336407885
16336416064
16336423571
16336431872
16336440539
16336448290
16336455248
16336463915
16336471484
16336481738
16336488207
16336496874
16336503771
16336512011
16336521410
16336528796
16336536303
16336544970
16336552477
16336559374
16336569628
16336576647
16336585375
16336592943
16336603075
16336609423
16336619860
16336627001
16336635668
16336644274
16336650377
16336656786
16336667040
16336673937
16336682177
16336691698
16336698412
16336708361
16336715868
16336723253
16336731493
16336738939
16336747728
16336757127
16336763658
16336773058
16336780809
16336788194
16336794908
16336803758
16336812181
16336820299
16336828294
16336836412
16336843980
16336852586
16336858934
16336869249
16336876207
16336883653
16336893846
16336902574
16336909105
16336916917
16336926561
16336932298
16336943101
16336949083
16336959764
16336966355
16336974534
16336981919
16336990220
16336998399
16337008592
16337012986
16337022813
16337029283
16337038682
16337044969
16337055283
16337061692
16337070969
16337077195
16337086961
16337093186
16337103440
16337112168
16337119858
16337127549
16337135300
16337143418
16337151292
16337160508
16337167039
16337174424
16337186143
16337193467
16337202683
16337216965
16337224656
16337232773
16337240952
16337248154
16337255661
16337263901
16337271592
16337278427
16337285874
16337294419
16337301804
16337309128
16337317124
16337323899
16337333664
16337340805
16337350021
16337355820
16337366135
16337373459
16337381455
16337389633
16337395187
16337403488
16337410751
16337417709
16337425156
16337434250
16337441635
16337448044
16337455429
16337464950
16337472336
16337479233
16337486618
16337492721
16337501816
16337510910
16337519272
16337525802
16337533493
16337543136
16337552291
16337559249
16337566818
16337574325
16337583786
16337591476
16337598373
16337608444
16337613693
16337624679
16337632369
16337640487
16337648483
16337656966
16337660323
16337668014
16337672775
16337680404
16337685043
16337690841
16337696029
16337703597
16337709090
16337715865
16337720321
16337726119
16337731246
16337736983
16337742843
16337748946
16337754928
16337759933
16337766829
16337771529
16337777694
16337783248
16337788680
16337793197
16337798995
16337806380
16337811995
16337816634
16337823409
16337827742
16337834761
16337839156
16337845076
16337850936
16337856063
16337862715
16337868941
16337874007
16337879439
16337884505
16337887435
16337898848
16337907820
16337913558
16337920821
16337927657
16337934371
16337939253
16337944441
16337952498
16337957869
16337961775
16337967207
16337973189
16337979048
16337983138
16337988081
16337995100
16338001570
16338006087
16338011458
16338017256
16338021406
16338027327
16338032332
16338037947
16338044783
16338050093
16338055708
16338060713
16338065718
16338071882
16338077864
16338084578
16338091108
16338097090
16338101729
16338107283
16338113203
16338119307
16338124311
16338129499
16338136274
16338140608
16338148237
16338154646
16338159956
16338165998
16338171064
16338175642
16338184065
16338189009
16338194319
16338197431
16338205061
16338211225
16338216718
16338220014
16338228010
16338233137
16338239912
16338244367
16338250959
16338257307
16338262373
16338267378
16338272749
16338280744
16338285322
16338292280
16338296918
16338302473
16338307294
16338314252
16338318586
16338324079
16338331220
16338337080
16338340620
16338349714
16338354230
16338361616
16338367109
16338374738
16338381086
16338390241
16338395002
16338399823
16338405805
16338415509
16338420697
16338426252
16338432172
16338439374
16338444745
16338452741
16338458051
16338465253
16338470380
16338475934
16338483319
16338489423
16338494245
16338501081
16338507794
16338515851
16338520673
16338526349
16338532208
16338539716
16338548444
16338554242
16338560956
16338566510
16338572064
16338576764
16338580853
16338585797
16338590009
16338595319
16338600690
16338605206
16338610150
16338617902
16338622845
16338626874
16338632611
16338637250
16338642255
16338647137
16338653790
16338659466
16338664288
16338668988
16338673626
16338678509
16338683941
16338690899
16338697003
16338702923
16338708111
16338713482
16338718426
16338723126
16338729229
16338734051
16338739056
16338745709
16338751080
16338755108
16338759869
16338765118
16338771771
16338777142
16338784588
16338791851
16338797711
16338802777
16338806866
16338811199
16338816509
16338823467
16338830303
16338837872
16338844341
16338850933
16338859783
16338864849
16338873455
16338880840
16338889446
16338895489
16338902142
16338908672
16338918621
16338926556
16338946758
16338954082
16338963360
16338970928
16338980877
16338989055
16338998333
16339004741
16339014751
16339021709
16339030071
16339038311
16339046672
16339054363
16339060161
16339069438
16339076274
16339082744
16339096782
16339103130
16339112712
16339123515
16339130657
16339138591
16339146587
16339156535
16339161296
16339169231
16339175822
16339183452
16339191020
16339199016
16339206157
16339213359
16339221965
16339228435
16339236308
16339242778
16339250590
16339257854
16339264995
16339274089
16339281901
16339288859
16339294536
16339303752
16339312053
16339319499
16339327617
16339335063
16339342326
16339351054
16339356242
16339365519
16339373759
16339382609
16339390422
16339396342
16339405375
16339410929
16339417887
16339425944
16339434489
16339443522
16339450541
16339456583
16339465556
16339471232
16339479838
16339487650
16339494120
16339501017
16339509440
16339514933
16339523295
16339531168
16339536967
16339545511
16339554789
16339562906
16339570109
16339577372
16339583231
16339591776
16339600321
16339606119
16339615091
16339624308
16339630411
16339637125
16339644266
16339651163
16339657572
16339665384
16339673624
16339683328
16339689188
16339699137
16339706278
16339713541
16339720804
16339728433
16339737711
16339744913
16339752359
16339760843
16339766031
16339774393
16339780496
16339789041
16339797830
16339804666
16339815774
16339824747
16339833536
16339841958
16339852395
16339862405
16339868814
16339884012
16339891519
16339896585
16339906289
16339914224
16339921121
16339928689
16339935891
16339942788
16339949441
16339956155
16339965554
16339972024
16339980569
16339988809
16339997048
16340004922
16340011453
16340018960
16340028298
16340035989
16340042336
16340050698
16340056435
16340064614
16340069985
16340080788
16340087868
16340094277
16340100991
16340108254
16340114724
16340120766
16340129861
16340135964
16340141335
16340147622
16340153420
16340159829
16340164467
16340170205
16340175393
16340180459
16340185891
16340192177
16340197915
16340201943
16340206582
16340210915
16340217324
16340223061
16340225808
16340234963
16340239113
16340244484
16340250710
16340257363
16340262856
16340267983
16340273171
16340277993
16340282082
16340286904
16340291786
16340299599
16340304238
16340311073
16340317055
16340321755
16340325844
16340332314
16340336098
16340342690
16340348976
16340353554
16340359291
16340363747
16340368752
16340374062
16340380653
16340387306
16340392921
16340397682
16340404335
16340408913
16340413429
16340419411
16340424843
16340431190
16340439430
16340445412
16340453651
16340461952
16340468727
16340472755
16340482399
16340489906
16340494240
16340499733
16340505775
16340512794
16340518409
16340523109
16340529335
16340535621
16340540992
16340547340
16340553138
16340558754
16340565101
16340568336
16340576637
16340582557
16340586891
16340592506
16340597328
16340602394
16340608009
16340612220
16340619850
16340627052
16340630836
16340637611
16340642005
16340648597
16340653175
16340658424
16340662391
16340668617
16340675391
16340681373
16340685340
16340691138
16340697181
16340701942
16340706031
16340713050
16340719459
16340725074
16340730140
16340736243
16340741065
16340746436
16340751258
16340757117
16340762610
16340768653
16340773475
16340777930
16340784278
16340790076
16340795020
16340799537
16340808326
16340813575
16340818885
16340823951
16340830237
16340835913
16340840735
16340846778
16340853186
16340858924
16340864051
16340868750
16340876136
16340880225
16340886206
16340892432
16340897864
16340903113
16340908911
16340913855
16340919409
16340924414
16340929846
16340934851
16340939795
16340948279
16340954749
16340959998
16340965247
16340970068
16340976050
16340981543
16340986487
16340992346
16340998267
16341004065
16341010535
16341016821
16341024939
16341030310
16341039709
16341048071
16341055273
16341061255
16341068579
16341075232
16341081396
16341087195
16341091589
16341096533
16341101049
16341105932
16341110571
16341116125
16341120276
16341127111
16341135290
16341140295
16341144567
16341151709
16341156835
16341161291
16341167395
16341171545
16341178503
16341183813
16341189245
16341195226
16341199987
16341205236
16341210546
16341215490
16341221899
16341228307
16341233984
16341238012
16341243261
16341249548
16341254064
16341259679
16341264928
16341272802
16341281713
16341287511
16341294530
16341298742
16341309240
16341314184
16341323827
16341331457
16341338598
16341347997
16341356359
16341364965
16341370458
16341379613
16341386388
16341396093
16341403783
16341411107
16341415197
16341424596
16341431615
16341438634
16341446447
16341454625
16341462560
16341472020
16341479650
16341489415
16341495763
16341504735
16341515233
16341522435
16341529942
16341538915
16341546666
16341550572
16341560826
16341569615
16341576939
16341583165
16341592686
16341598973
16341606419
16341613194
16341623692
16341632054
16341638951
16341645665
16341653599
16341658421
16341667698
16341676487
16341684849
16341696080
16341703526
16341714756
16341724095
16341734043
16341743748
16341752049
16341759861
16341767491
16341777073
16341784275
16341793980
16341801548
16341808872
16341818638
16341826206
16341833408
16341841953
16341849705
16341856907
16341863987
16341871494
16341881443
16341889561
16341896580
16341903782
16341912937
16341920444
16341931187
16341938572
16341944553
16341953892
16341959812
16341969578
16341977878
16341985691
16341993930
16342001499
16342009311
16342016513
16342024326
16342031528
16342038852
16342046604
16342054050
16342064243
16342071811
16342078525
16342085300
16342092502
16342099948
16342107822
16342117221
16342124606
16342132602
16342139255
16342146640
16342155246
16342161777
16342169101
16342177341
16342186313
16342192050
16342200778
16342207187
16342215915
16342223178
16342230990
16342239963
16342248874
16342254733
16342263461
16342270480
16342279147
16342287082
16342293979
16342303073
16342309665
16342317172
16342325656
16342334384
16342339938
16342348605
16342359347
16342367160
16342374240
16342381686
16342389804
16342397372
16342404513
16342411715
16342420687
16342428744
16342435336
16342443209
16342450045
16342460360
16342467501
16342475497
16342486544
16342494295
16342499483
16342509493
16342516329
16342525057
16342531527
16342538302
16342547030
16342555452
16342561251
16342569307
16342576510
16342581759
16342589754
16342601046
16342608309
16342614962
16342622042
16342629366
16342636385
16342642916
16342648348
16342654451
16342661287
16342665193
16342671907
16342676058
16342682649
16342689119
16342695406
16342702303
16342707552
16342713167
16342718477
16342723970
16342730257
16342734895
16342741670
16342747041
16342752351
16342757722
16342764009
16342768404
16342776643
16342782686
16342788301
16342793855
16342799776
16342806001
16342811128
16342816743
16342821870
16342827119
16342834199
16342839570
16342844880
16342851838
16342856904
16342862214
16342866487
16342872651
16342879426
16342885225
16342890474
16342896760
16342902559
16342907258
16342913484
16342920503
16342927705
16342932527
16342938020
16342944490
16342949617
16342956269
16342961885
16342968110
16342973420
16342978974
16342985993
16342991731
16342996186
16343001801
16343007966
16343012666
16343020905
16343027314
16343032319
16343037995
16343043061
16343049226
16343053925
16343060944
16343068330
16343077790
16343082551
16343089265
16343095917
16343102143
16343108002
16343113923
16343119477
16343126984
16343131928
16343137177
16343142609
16343148163
16343153473
16343159089
16343164704
16343171479
16343176056
16343181916
16343187226
16343192475
16343198822
16343205048
16343209931
16343215973
16343221283
16343227570
16343234955
16343241669
16343245209
16343253144
16343260590
16343267060
16343272919
16343278595
16343283661
16343289826
16343294586
16343301361
16343309967
16343314423
16343320892
16343324493
16343331635
16343336090
16343342743
16343347992
16343354157
16343361725
16343366486
16343371979
16343377838
16343382599
16343390167
16343394440
16343401947
16343408417
16343417389
16343424530
16343432953
16343440155
16343444855
16343450165
16343456207
16343462066
16343469391
16343474945
16343480194
16343485748
16343491363
16343497100
16343503509
16343509918
16343516021
16343521148
16343527374
16343533355
16343539276
16343544281
16343550689
16343555816
16343561981
16343569610
16343574859
16343580413
16343585845
16343592498
16343598602
16343604888
16343613250
16343619964
16343625945
16343631927
16343637298
16343643890
16343648772
16343654388
16343660857
16343668487
16343675017
16343681853
16343688323
16343697906
16343702544
16343710113
16343716949
16343724761
16343732696
16343739226
16343745574
16343751738
16343756255
16343761626
16343767424
16343773284
16343778960
16343784026
16343789702
16343795012
16343799956
16343805327
16343810942
16343816497
16343821440
16343827605
16343832427
16343837493
16343842131
16343849517
16343858061
16343867400
16343872405
16343889128
16343899687
16343910735
16343920805
16343929045
16343942839
16343954070
16343964018
16343977812
16343988127
16343997221
16344007475
16344015288
16344024565
16344034086
16344043364
16344054289
16344063322
16344072355
16344081938
16344091948
16344103300
16344113066
16344123198
16344133146
16344143278
16344150175
16344160978
16344172331
16344181669
16344193205
16344202116
16344213529
16344222257
16344232938
16344240202
16344250883
16344262601
16344270963
16344279691
16344289701
16344301053
16344309965
16344320463
16344330839
16344341825
16344353116
16344361783
16344372403
16344381559
16344391874
16344401090
16344414823
16344424649
16344432157
16344445218
16344454251
16344462613
16344474271
16344483304
16344494168
16344502957
16344518765
16344528958
16344542630
16344551297
16344565579
16344576749
16344583951
16344595730
16344605191
16344616543
16344624417
16344634915
16344642422
16344652432
16344661831
16344668240
16344679470
16344688137
16344696560
16344704861
16344715054
16344720913
16344731167
16344738735
16344748806
16344758084
16344768460
16344776821
16344783779
16344794766
16344804775
16344813442
16344823879
16344833706
16344843655
16344855984
16344865871
16344875210
16344883449
16344892361
16344903713
16344913174
16344923427
16344934658
16344941433
16344954616
16344963161
16344974209
16344984768
16344994655
16345002651
16345012905
16345022792
16345030056
16345043178
16345051540
16345062587
16345073085
16345083644
16345092738
16345103298
16345111049
16345119167
16345133693
16345142848
16345152492
16345161525
16345173793
16345182460
16345193080
16345203761
16345214320
16345223048
16345230372
16345243861
16345251674
16345263270
16345273097
16345283473
16345291591
16345302027
16345312526
16345319667
16345334071
16345343836
16345352626
16345361048
16345372401
16345382166
16345392726
16345400843
16345411707
16345424281
16345432825
16345443812
16345453944
16345463892
16345469202
16345476771
16345486475
16345492823
16345498682
16345506434
16345513758
16345520594
16345528773
16345535181
16345541651
16345549463
16345553431
16345558924
16345564051
16345567041
16345574610
16345580042
16345585474
16345591394
16345596338
16345601709
16345606043
16345611414
16345615137
16345620142
16345625147
16345628504
16345633203
16345640955
16345645471
16345647791
16345654077
16345659509
16345663843
16345669092
16345673487
16345678491
16345684290
16345688623
16345695459
16345701563
16345709558
16345716394
16345721704
16345727441
16345731897
16345737512
16345741541
16345747095
16345752954
16345757654
16345765588
16345768823
16345773279
16345782129
16345791528
16345800073
16345809289
16345819360
16345825647
16345833154
16345837549
16345843957
16345848352
16345854699
16345861108
16345866723
16345871545
16345877649
16345881006
16345886316
16345891809
16345899560
16345904626
16345909082
16345914941
16345919641
16345925988
16345931970
16345938256
16345946008
16345952477
16345956506
16345962121
16345967675
16345972924
16345980004
16345987634
16345993188
16345998132
16346002892
16346007165
16346012780
16346015954
16346021508
16346026818
16346032372
16346037194
16346042748
16346047143
16346052392
16346058129
16346064233
16346069115
16346075524
16346080041
16346086632
16346092187
16346097497
16346104882
16346110253
16346115685
16346120263
16346125512
16346130028
16346133996
16346145836
16346154381
16346159386
16346169457
16346175744
16346182335
16346186974
16346191857
16346196740
16346201989
16346206383
16346212120
16346217430
16346222985
16346227806
16346232079
16346237755
16346243492
16346248131
16346253014
16346257042
16346262230
16346267235
16346271263
16346276879
16346284081
16346298668
16346309166
16346313561
16346319664
16346325279
16346330162
16346335655
16346340233
16346344322
16346349693
16346355125
16346364952
16346371910
16346377342
16346382469
16346386986
16346392906
16346399193
16346406395
16346412681
16346417137
16346422935
16346428978
16346437767
16346446800
16346454490
16346461570
16346469993
16346478233
16346487632
16346499656
16346507347
16346515037
16346521263
16346528770
16346534629
16346540245
16346545921
16346552268
16346559104
16346566306
16346572471
16346577842
16346586143
16346591514
16346598350
16346607993
16346616721
16346625510
16346635215
16346643943
16346651694
16346658713
16346668296
16346673850
16346683616
16346692527
16346698691
16346706016
16346716147
16346722739
16346730857
16346740806
16346747825
16346754050
16346763083
16346769797
16346779441
16346784690
16346792197
16346798972
16346807944
16346814841
16346823264
16346830344
16346836997
16346846518
16346854270
16346862021
16346870749
16346876181
16346885153
16346890097
16346900168
16346907980
16346914816
16346921103
16346929953
16346937888
16346942221
16346955160
16346962668
16346970846
16346978049
16346986655
16346992758
16347001608
16347011130
16347018393
16347028525
16347038229
16347046774
16347053671
16347064047
16347074667
16347083273
16347092367
16347103048
16347112020
16347119894
16347127401
16347138327
16347147421
16347155905
16347165304
16347180135
16347189291
16347199239
16347208273
16347215963
16347228109
16347243612
16347251241
16347259603
16347266256
16347279378
16347288289
16347297872
16347308004
16347318990
16347325643
16347337484
16347345907
16347353048
16347360128
16347368306
16347375570
16347384725
16347391439
16347398519
16347406942
16347412923
16347420003
16347430013
16347438191
16347444295
16347452779
16347461202
16347468282
16347475057
16347482198
16347490376
16347499715
16347505635
16347516255
16347525838
16347538106
16347550435
16347559956
16347567403
16347573140
16347582051
16347591084
16347598652
16347606404
16347617268
16347622151
16347631306
16347637654
16347647542
16347655049
16347665364
16347674946
16347683308
16347691243
16347699360
16347706196
16347714131
16347722798
16347728779
16347735005
16347745808
16347756794
16347766133
16347771198
16347784382
16347792072
16347804096
16347813801
16347823566
16347831623
16347840412
16347848408
16347857868
16347867084
16347881061
16347893329
16347900348
16347911823
16347919147
16347928974
16347938801
16347948017
16347957294
16347967914
16347978351
16347988239
16347996295
16348008564
16348019123
16348033039
16348044574
16348054340
16348080402
16348089618
16348097003
16348106830
16348113055
16348119464
16348124774
16348129779
16348135577
16348139728
16348149432
16348154498
16348159808
16348165790
16348169696
16348173907
16348180011
16348183734
16348189288
16348195086
16348202716
16348208087
16348213275
16348218402
16348223773
16348231769
16348237506
16348242267
16348247699
16348250811
16348260272
16348264666
16348271991
16348280535
16348285662
16348290728
16348296283
16348300433
16348306903
16348312335
16348318316
16348324420
16348329425
16348337664
16348342425
16348350665
16348356768
16348362750
16348372393
16348378558
16348388201
16348393633
16348400774
16348407977
16348415240
16348422869
16348429522
16348438433
16348444292
16348450335
16348458391
16348463335
16348469927
16348477190
16348483721
16348490801
16348497271
16348503496
16348511736
16348516985
16348525774
16348531572
16348541460
16348547197
16348556597
16348562029
16348570208
16348576433
16348583330
16348591753
16348598772
16348606157
16348612139
16348616899
16348623308
16348628313
16348633318
16348640947
16348647600
16348654558
16348659929
16348670366
16348678911
16348688310
16348694841
16348702898
16348710222
16348713335
16348720293
16348725725
16348731706
16348737566
16348744524
16348750017
16348755388
16348759965
16348766740
16348771135
16348778215
16348783769
16348789262
16348793962
16348800310
16348805620
16348810686
16348814653
16348821428
16348825944
16348831743
16348836931
16348842363
16348848527
16348853776
16348858781
16348865007
16348870439
16348876176
16348882341
16348886857
16348893449
16348899064
16348903459
16348907731
16348914933
16348919999
16348925798
16348932023
16348937150
16348941056
16348947892
16348952165
16348958085
16348962968
16348968339
16348975846
16348981034
16348985001
16348991044
16348996293
16349001969
16349007462
16349010575
16349018693
16349022416
16349029740
16349033952
16349040238
16349044633
16349049821
16349055802
16349061356
16349065201
16349070695
16349077042
16349082230
16349089127
16349096451
16349101212
16349107132
16349114152
16349118363
16349124466
16349130265
16349135453
16349141068
16349146439
16349152298
16349159989
16349167191
16349172013
16349178788
16349183060
16349190384
16349195328
16349202164
16349208695
16349215042
16349221512
16349227616
16349233353
16349240799
16349247452
16349252213
16349259720
16349266373
16349269730
16349277420
16349283157
16349289566
16349294632
16349300613
16349306473
16349315262
16349322403
16349330093
16349337906
16349345047
16349352371
16349361038
16349368545
16349377457
16349384353
16349393326
16349400711
16349406326
16349412979
16349421890
16349428116
16349437515
16349446182
16349452896
16349460037
16349469619
16349475601
16349484939
16349491348
16349500625
16349509658
16349516677
16349525833
16349532852
16349540542
16349550430
16349557571
16349564834
16349573928
16349583877
16349589431
16349597915
16349606155
16349613967
16349623733
16349630630
16349638869
16349648879
16349654861
16349664809
16349671584
16349681655
16349688796
16349698379
16349703872
16349714065
16349720778
16349729506
16349736953
16349745742
16349755385
16349763259
16349772109
16349780776
16349788771
16349794814
16349803786
16349812453
16349819594
16349828932
16349837660
16349842909
16349852370
16349860121
16349867690
16349876235
16349883925
16349891432
16349902174
16349910475
16349918044
16349926283
16349934584
16349942763
16349950758
16349958266
16349966872
16349973219
16349981947
16349988600
16349996901
16350006788
16350013136
16350023085
16350034864
16350043898
16350053602
16350063124
16350072706
16350077345
16350088880
16350096937
16350111036
16350119276
16350127394
16350135511
16350143385
16350151869
16350160169
16350168714
16350176832
16350181287
16350191847
16350197767
16350207777
16350214002
16350222364
16350228834
16350239027
16350245496
16350255262
16350261915
16350269910
16350277906
16350286085
16350293653
16350300367
16350310987
16350317396
16350325269
16350332349
16350339917
16350347242
16350354688
16350362806
16350370679
16350377271
16350387036
16350393567
16350403028
16350409253
16350417188
16350427014
16350435071
16350441541
16350449109
16350457410
16350464795
16350474194
16350480115
16350488660
16350497266
16350505261
16350512524
16350518567
16350527539
16350536145
16350542493
16350550305
16350557385
16350565503
16350571972
16350580884
16350588269
16350597973
16350604504
16350611462
16350619702
16350628796
16350637097
16350643383
16350651684
16350659436
16350668469
16350675610
16350683850
16350693249
16350699475
16350706066
16350715954
16350722302
16350732922
16350739636
16350748974
16350755444
16350764233
16350770519
16350778637
16350783398
16350789562
16350793774
16350799938
16350805492
16350811901
16350816112
16350822094
16350826366
16350833569
16350838940
16350844067
16350852428
16350859386
16350864086
16350870556
16350877514
16350882580
16350889721
16350894970
16350900463
16350905712
16350911632
16350917553
16350921947
16350928112
16350933605
16350939586
16350945079
16350949596
16350956737
16350962596
16350969005
16350974865
16350980785
16350985912
16350991893
16350998485
16351002574
16351009044
16351013072
16351021556
16351024974
16351031505
16351036876
16351044200
16351048717
16351055736
16351061656
16351066600
16351072093
16351078563
16351083202
16351089732
16351096263
16351102855
16351107738
16351113475
16351118236
16351125255
16351130382
16351135997
16351142894
16351149791
16351155101
16351160960
16351166331
16351172008
16351177623
16351183360
16351189280
16351195567
16351200206
16351204783
16351211314
16351215831
16351222239
16351227061
16351233531
16351239512
16351246409
16351251231
16351257029
16351262156
16351267771
16351272349
16351278819
16351284129
16351290782
16351295237
16351302134
16351306651
16351311961
16351319041
16351323313
16351330943
16351336009
16351340952
16351345835
16351351695
16351358042
16351363596
16351368174
16351373667
16351378794
16351386301
16351390574
16351396922
16351401621
16351407053
16351414255
16351419382
16351426401
16351433665
16351442820
16351449473
16351455393
16351460459
16351468516
16351476328
16351485605
16351491282
16351496592
16351503306
16351508005
16351512827
16351518015
16351523264
16351528818
16351534617
16351539438
16351544748
16351550669
16351555918
16351558786
16351565378
16351571176
16351575205
16351579416
16351585703
16351590341
16351595957
16351602426
16351607309
16351612741
16351619760
16351624704
16351630075
16351636606
16351641489
16351646616
16351653452
16351659189
16351666330
16351673532
16351680551
16351686533
16351692392
16351695383
16351702585
16351707346
16351713205
16351719308
16351724496
16351728952
16351735544
16351740488
16351745553
16351753366
16351758005
16351763620
16351770151
16351775216
16351780099
16351785653
16351792184
16351798288
16351802865
16351809091
16351813852
16351819467
16351824044
16351830880
16351835885
16351843026
16351847848
16351855355
16351860665
16351869027
16351874276
16351879586
16351887155
16351892465
16351899057
16351903634
16351910592
16351917306
16351921517
16351926461
16351933480
16351938607
16351945321
16351950570
16351955758
16351961434
16351967416
16351974557
16351984994
16351992013
16352000375
16352009225
16352017953
16352022347
16352032967
16352039559
16352048348
16352055794
16352066964
16352074166
16352084481
16352092293
16352101815
16352111336
16352120308
16352126595
16352134407
16352143685
16352151802
16352157906
16352164986
16352173409
16352181099
16352188240
16352195503
16352205269
16352211434
16352221138
16352226448
16352236519
16352241951
16352249581
16352257820
16352266304
16352274361
16352282845
16352291878
16352299324
16352303474
16352312630
16352321175
16352329414
16352336738
16352347359
16352353462
16352362190
16352368599
16352375252
16352384712
16352390266
16352400154
16352407112
16352416816
16352423530
16352430427
16352437019
16352445259
16352453498
16352461738
16352469184
16352477607
16352484993
16352492805
16352499763
16352508430
16352513557
16352522102
16352530952
16352538337
16352543830
16352552253
16352557929
16352563972
16352572395
16352578559
16352588935
16352597663
16352603889
16352613166
16352622321
16352630195
16352638862
16352647773
16352656196
16352665534
16352672553
16352683173
16352689460
16352697883
16352705939
16352714301
16352721015
16352730597
16352737738
16352744818
16352754401
16352760627
16352770636
16352780707
16352787787
16352797187
16352804572
16352813849
16352821295
16352826911
16352837714
16352843512
16352851752
16352860907
16352870123
16352878912
16352887213
16352896796
16352904974
16352911505
16352919745
16352930975
16352938727
16352946783
16352953497
16352960089
16352968939
16352975165
16352982489
16352991583
16352998480
16353004644
16353011969
16353018866
16353026373
16353032721
16353039923
16353048590
16353057806
16353063909
16353071539
16353078436
16353085516
16353091192
16353099920
16353106817
16353114569
16353122808
16353130560
16353138738
16353147222
16353154607
16353162420
16353170538
16353178045
16353184759
16353191778
16353198186
16353205572
16353211614
16353220586
16353227056
16353236761
16353243780
16353250982
16353258611
16353265691
16353271245
16353278753
16353286626
16353297002
16353303533
16353310369
16353319463
16353326848
16353333867
16353341191
16353349248
16353358464
16353365972
16353373662
16353381230
16353387944
16353397405
16353404668
16353412541
16353417729
16353423406
16353426152
16353434331
16353441106
16353445500
16353450688
16353455083
16353462590
16353467229
16353471562
16353477055
16353481816
16353488164
16353493047
16353498235
16353503911
16353509953
16353515385
16353521184
16353526433
16353531865
16353537114
16353540959
16353547185
16353555668
16353562016
16353565922
16353571232
16353577153
16353583256
16353586613
16353595463
16353602787
16353607548
16353613408
16353619633
16353625187
16353631596
16353637150
16353643620
16353651493
16353655888
16353661442
16353667118
16353672489
16353676213
16353679997
16353685856
16353692326
16353697575
16353702641
16353708744
16353715214
16353719731
16353725224
16353730778
16353736088
16353741459
16353745792
16353751286
16353755741
16353760746
16353765202
16353770695
16353777470
16353781864
16353785954
16353792850
16353798161
16353803043
16353806461
16353812809
16353819950
16353824955
16353830692
16353834171
16353840641
16353844913
16353851627
16353856510
16353862919
16353870121
16353875553
16353880192
16353885074
16353890506
16353896000
16353900760
16353907413
16353913822
16353919376
16353924564
16353930362
16353934635
16353940250
16353945743
16353951786
16353960392
16353966739
16353971988
16353976017
16353981754
16353987552
16353992557
16353998294
16354003665
16354009952
16354015201
16354020633
16354026248
16354032047
16354037601
16354043216
16354048831
16354052799
16354058597
16354064090
16354070438
16354076724
16354080753
16354084842
16354093631
16354099185
16354104922
16354110538
16354115237
16354119876
16354126163
16354130679
16354137149
16354143985
16354151248
16354157229
16354164309
16354171206
16354176639
16354182315
16354189090
16354196292
16354203311
16354208499
16354213809
16354219180
16354223758
16354230288
16354233645
16354240054
16354245791
16354251406
16354257449
16354262393
16354267153
16354272341
16354277346
16354283145
16354288577
16354294314
16354300479
16354305422
16354310244
16354316348
16354322268
16354327944
16354333682
16354340212
16354345950
16354351504
16354356936
16354363162
16354367617
16354373293
16354380251
16354384402
16354391665
16354395754
16354402041
16354406496
16354411745
16354417666
16354423037
16354428774
16354433962
16354438235
16354444399
16354449282
16354454714
16354459475
16354465395
16354473269
16354478945
16354481691
16354489626
16354495424
16354501040
16354506960
16354510561
16354518435
16354524233
16354528383
16354534548
16354539614
16354544008
16354550356
16354555239
16354561464
16354569582
16354577272
16354585329
16354592226
16354597841
16354608034
16354614443
16354622621
16354632204
16354641176
16354649782
16354656007
16354661928
16354671632
16354677736
16354687013
16354696596
16354704591
16354710634
16354717348
16354726808
16354733400
16354740358
16354748598
16354757081
16354764528
16354773073
16354780153
16354787843
16354796205
16354803712
16354811464
16354822023
16354831056
16354839051
16354846376
16354854859
16354864564
16354872682
16354881227
16354887452
16354898316
16354906678
16354914124
16354921815
16354928285
16354936341
16354942506
16354949952
16354958985
16354968812
16354975465
16354985352
16354991273
16354998475
16355007630
16355015259
16355022889
16355030396
16355037781
16355044495
16355054322
16355060486
16355068055
16355075501
16355082947
16355092957
16355099061
16355107239
16355114808
16355120972
16355130494
16355136597
16355144837
16355151184
16355158814
16355166931
16355175171
16355182495
16355190674
16355198364
16355203919
16355212586
16355220459
16355228577
16355237854
16355244995
16355253784
16355261108
16355270386
16355275513
16355285522
16355294006
16355300354
16355307312
16355316955
16355322327
16355331726
16355338379
16355348144
16355353332
16355361999
16355369018
16355377136
16355386108
16355394714
16355402343
16355408447
16355415039
16355424011
16355430114
16355438842
16355445617
16355455139
16355461547
16355468688
16355476562
16355485595
16355493225
16355498229
16355508239
16355515807
16355522155
16355529662
16355537841
16355545287
16355553588
16355561279
16355569335
16355575622
16355584472
16355590453
16355598266
16355608153
16355614257
16355624389
16355632567
16355641540
16355650146
16355657836
16355667541
16355677123
16355686400
16355694701
16355701659
16355710387
16355718139
16355726561
16355734374
16355742736
16355750487
16355756530
16355765441
16355770384
16355779662
16355788451
16355794676
16355801818
16355809142
16355815795
16355824034
16355831358
16355838561
16355846007
16355853026
16355859068
16355868590
16355873412
16355881224
16355889281
16355898253
16355905577
16355913512
16355922301
16355930540
16355934996
16355946104
16355953123
16355960325
16355970030
16355977293
16355986998
16355993834
16356003660
16356009398
16356018065
16356022703
16356028990
16356031858
16356040586
16356045774
16356051329
16356058836
16356064329
16356069273
16356074827
16356079405
16356085386
16356092466
16356096861
16356103269
16356108946
16356114561
16356119688
16356126707
16356130857
16356136656
16356143003
16356148863
16356152830
16356159849
16356164671
16356171445
16356176023
16356181211
16356187925
16356193235
16356199705
16356205747
16356210813
16356215391
16356221311
16356228147
16356233640
16356238584
16356244260
16356250059
16356255674
16356260312
16356265012
16356271970
16356277341
16356282285
16356287107
16356295530
16356301328
16356306638
16356310971
16356318540
16356323362
16356328916
16356334836
16356341794
16356348508
16356354306
16356360166
16356367795
16356373410
16356379514
16356385678
16356391904
16356400876
16356405820
16356412351
16356417600
16356422177
16356427792
16356433103
16356437558
16356444272
16356451718
16356457211
16356461972
16356468747
16356473935
16356479550
16356484006
16356489926
16356496030
16356502316
16356508176
16356512204
16356516720
16356523495
16356528988
16356537900
16356542966
16356549435
16356554379
16356559933
16356564328
16356569455
16356574948
16356580746
16356586056
16356590085
16356596005
16356602169
16356607724
16356612606
16356618222
16356621334
16356628903
16356635067
16356641415
16356645871
16356650326
16356657040
16356661495
16356668453
16356673825
16356679745
16356684872
16356689694
16356695248
16356700924
16356705929
16356711239
16356716488
16356721005
16356730038
16356736080
16356741695
16356745846
16356751583
16356755367
16356762753
16356766232
16356772701
16356777584
16356785824
16356790646
16356796017
16356801449
16356807491
16356812862
16356819759
16356826595
16356832699
16356838131
16356844295
16356849544
16356855526
16356861080
16356864742
16356871456
16356880977
16356886409
16356893062
16356899959
16356905025
16356910946
16356916744
16356924190
16356928585
16356934749
16356942440
16356949214
16356956111
16356962154
16356968685
16356976558
16356982906
16356988704
16356994563
16357000911
16357007076
16357012691
16357018428
16357024226
16357030269
16357035884
16357040889
16357046382
16357053157
16357058528
16357064937
16357070918
16357077388
16357083003
16357087459
16357093013
16357098811
16357104365
16357109798
16357115230
16357121882
16357127803
16357132808
16357138850
16357143733
16357150325
16357155330
16357161677
16357166682
16357172236
16357179011
16357184138
16357189692
16357195613
16357200923
16357204707
16357211116
16357217463
16357223262
16357227534
16357234675
16357240046
16357245845
16357248835
16357256648
16357263850
16357269892
16357275813
16357282160
16357288874
16357294428
16357301692
16357308466
16357314082
16357319819
16357324946
16357330439
16357337214
16357343073
16357348139
16357353815
16357357172
16357365107
16357369990
16357378168
16357382929
16357388117
16357395441
16357401667
16357407282
16357413752
16357419611
16357424616
16357430353
16357436579
16357442927
16357448237
16357452509
16357457331
16357464960
16357471064
16357476008
16357483332
16357487360
16357494806
16357500422
16357507990
16357515070
16357522577
16357529657
16357535761
16357543024
16357552973
16357560480
16357567194
16357578241
16357587580
16357595697
16357603510
16357613031
16357620661
16357629999
16357638239
16357644647
16357654169
16357663141
16357670587
16357674066
16357681818
16357686578
16357694513
16357699335
16357705316
16357712335
16357716546
16357724115
16357730279
16357735284
16357740594
16357747064
16357752618
16357758600
16357765802
16357772088
16357775934
16357783929
16357789056
16357796258
16357801568
16357808587
16357815728
16357820855
16357826532
16357830560
16357835076
16357842340
16357847222
16357852838
16357857598
16357864984
16357869439
16357874200
16357879632
16357885980
16357891046
16357895989
16357902459
16357909051
16357915460
16357919793
16357926141
16357932183
16357938470
16357943292
16357949212
16357954888
16357961236
16357966424
16357971612
16357977288
16357983453
16357988518
16357992486
16358000603
16358004510
16358011101
16358017083
16358021477
16358025506
16358032097
16358037163
16358044488
16358048882
16358055596
16358059685
16358065239
16358070672
16358076104
16358080864
16358087090
16358093865
16358099236
16358104180
16358110222
16358114861
16358120110
16358124993
16358131096
16358138420
16358144646
16358150872
16358157585
16358164299
16358169914
16358174980
16358181572
16358184929
16358194206
16358200615
16358206780
16358212212
16358218315
16358225578
16358231987
16358238945
16358247368
16358253410
16358260002
16358266350
16358271477
16358278679
16358282646
16358289421
16358296806
16358302238
16358306694
16358311699
16358316765
16358321525
16358326225
16358332023
16358338066
16358344597
16358348442
16358353447
16358358513
16358364250
16358370537
16358374748
16358381706
16358386223
16358392082
16358397880
16358403251
16358407402
16358412223
16358419242
16358424675
16358431633
16358436332
16358440971
16358447746
16358452384
16358458976
16358464164
16358469596
16358476066
16358481803
16358487785
16358492912
16358498405
16358503959
16358510490
16358516288
16358521537
16358527763
16358533927
16358539481
16358545097
16358549430
16358554069
16358561149
16358567313
16358574760
16358579276
16358585563
16358590446
16358595512
16358602286
16358606864
16358614127
16358619498
16358624686
16358630790
16358638297
16358643912
16358650870
16358657767
16358664237
16358669730
16358675406
16358682120
16358687552
16358691764
16358710440
16358722953
16358732840
16358741019
16358749137
16358754630
16358760184
16358764945
16358769339
16358774222
16358779349
16358783927
16358789542
16358793387
16358801016
16358806265
16358810904
16358817191
16358823782
16358830801
16358836783
16358843192
16358849844
16358855338
16358860892
16358864798
16358874625
16358879629
16358884268
16358890189
16358894400
16358900809
16358905813
16358911734
16358917959
16358921805
16358925894
16358931997
16358936331
16358942740
16358947073
16358954397
16358959646
16358963308
16358969168
16358975088
16358979239
16358984915
16358988455
16358995230
16359001272
16359005117
16359010488
16359015493
16359020803
16359026297
16359031301
16359036001
16359040762
16359046743
16359051199
16359056753
16359061819
16359067007
16359072805
16359078848
16359083608
16359089468
16359094290
16359099722
16359104788
16359110708
16359114492
16359121755
16359126455
16359133840
16359138540
16359143362
16359148183
16359154226
16359159414
16359165456
16359172292
16359178152
16359182973
16359189199
16359194753
16359202077
16359205434
16359213918
16359220632
16359226919
16359231496
16359238393
16359243459
16359249074
16359253225
16359258657
16359264882
16359271352
16359277334
16359283071
16359290395
16359296315
16359301259
16359306569
16359311025
16359317311
16359322621
16359327870
16359333181
16359338430
16359344411
16359349782
16359353749
16359360280
16359365956
16359371205
16359377797
16359385610
16359393361
16359400136
16359410024
16359415822
16359424123
16359429677
16359434621
16359440358
16359446095
16359451588
16359455922
16359460805
16359466237
16359470082
16359476369
16359481251
16359489247
16359495656
16359499745
16359505849
16359509938
16359516957
16359521351
16359528615
16359535451
16359541615
16359544728
16359552113
16359558156
16359563466
16359568531
16359574025
16359580189
16359585988
16359592091
16359596180
16359601735
16359606129
16359610646
16359616444
16359622425
16359629383
16359634144
16359640003
16359644581
16359650502
16359655323
16359660206
16359665577
16359672169
16359676441
16359682423
16359687061
16359692982
16359698353
16359705616
16359713245
16359717274
16359723377
16359730518
16359737476
16359743458
16359751392
16359756763
16359763172
16359769031
16359775440
16359781483
16359788685
16359794239
16359801075
16359807789
16359811939
16359818653
16359824573
16359829761
16359837513
16359843555
16359848621
16359856434
16359861927
16359866077
16359872730
16359878833
16359884693
16359889392
16359895679
16359900684
16359907947
16359913440
16359917652
16359925769
16359932605
16359938098
16359946033
16359953906
16359961353
16359966846
16359975147
16359982410
16359988208
16359994678
16360002796
16360008777
16360014331
16360021655
16360026416
16360031299
16360036792
16360044421
16360050098
16360056995
16360063159
16360068591
16360074023
16360081164
16360085132
16360092090
16360097034
16360104846
16360108691
16360115527
16360121509
16360126819
16360133105
16360140429
16360144885
16360151355
16360156176
16360162036
16360170947
16360176379
16360182666
16360188220
16360196765
16360201831
16360207873
16360214038
16360220629
16360225939
16360233569
16360237536
16360244372
16360250903
16360257556
16360265795
16360272204
16360278613
16360284411
16360291064
16360298266
16360305956
16360312121
16360318896
16360325854
16360333178
16360339098
16360344897
16360350756
16360356921
16360362597
16360368517
16360374071
16360380053
16360387316
16360392016
16360398791
16360404101
16360409106
16360416857
16360421679
16360428820
16360434740
16360440172
16360446642
16360453051
16360456102
16360465990
16360470995
16360477160
16360484118
16360489611
16360495775
16360503283
16360508776
16360514330
16360520983
16360526659
16360532457
16360537767
16360542589
16360549303
16360555712
16360563219
16360570360
16360578234
16360585863
16360594530
16360600450
16360605882
16360612291
16360618639
16360623827
16360632066
16360636705
16360641893
16360646349
16360652757
16360657091
16360662950
16360669237
16360673265
16360678514
16360684740
16360689744
16360693956
16360700304
16360705614
16360710802
16360716478
16360721727
16360727647
16360733384
16360738389
16360744737
16360749376
16360756578
16360761766
16360768235
16360774339
16360780015
16360784410
16360791002
16360794786
16360799730
16360806443
16360811265
16360817430
16360822923
16360827256
16360832444
16360838426
16360843064
16360851121
16360856431
16360861436
16360866624
16360871812
16360877610
16360884751
16360889390
16360896165
16360903672
16360909287
16360914964
16360919358
16360925950
16360930283
16360935288
16360943101
16360949265
16360955552
16360960984
16360966294
16360971604
16360976121
16360982651
16360991746
16360997605
16361003281
16361010178
16361015488
16361020981
16361027451
16361032822
16361040207
16361044968
16361052414
16361057236
16361063096
16361069443
16361075730
16361080918
16361088608
16361094162
16361099411
16361104905
16361111496
16361115464
16361125473
16361133957
16361139145
16361145066
16361152939
16361158066
16361165512
16361171860
16361178574
16361185715
16361191208
16361197434
16361204208
16361209396
16361214584
16361220078
16361228622
16361233871
16361240890
16361245956
16361252487
16361256393
16361262741
16361268173
16361274094
16361280624
16361287887
16361292221
16361298691
16361303940
16361309067
16361314804
16361320602
16361327316
16361334396
16361338363
16361345627
16361351120
16361356247
16361361374
16361367233
16361374008
16361379562
16361384811
16361390426
16361395675
16361402755
16361408371
16361413681
16361420455
16361426132
16361430709
16361437850
16361443099
16361448715
16361453781
16361460067
16361467636
16361473129
16361479049
16361484481
16361490096
16361495834
16361500655
16361508041
16361512557
16361519943
16361524398
16361530868
16361536910
16361542770
16361547958
16361555892
16361562118
16361567977
16361574691
16361582015
16361589095
16361592452
16361602279
16361611190
16361619430
16361626815
16361633285
16361640304
16361648055
16361658004
16361663802
16361672530
16361682662
16361691451
16361698470
16361706649
16361713118
16361722090
16361729476
16361737899
16361746260
16361755538
16361762984
16361769637
16361777876
16361785079
16361796004
16361804793
16361814986
16361820357
16361833296
16361840071
16361848921
16361856184
16361865279
16361872908
16361878218
16361885664
16361894575
16361902266
16361908613
16361914839
16361919844
16361926130
16361931746
16361937605
16361945356
16361951277
16361956526
16361963362
16361968184
16361973860
16361980268
16361987349
16361994490
16362000410
16362006453
16362012373
16362018782
16362024519
16362030805
16362036543
16362041914
16362047529
16362053633
16362059187
16362063703
16362069380
16362075605
16362080915
16362088606
16362093366
16362097883
16362104475
16362111066
16362116804
16362121503
16362128584
16362135358
16362141401
16362146955
16362152814
16362157697
16362163435
16362170331
16362176008
16362184247
16362189680
16362194745
16362200483
16362205793
16362211408
16362216962
16362222394
16362228620
16362235578
16362239606
16362245771
16362251142
16362255903
16362260846
16362271283
16362277997
16362283918
16362289655
16362294660
16362300397
16362303632
16362311994
16362318769
16362327008
16362333234
16362339704
16362347455
16362353681
16362362470
16362366986
16362377789
16362385297
16362394086
16362400311
16362409528
16362417035
16362424603
16362432843
16362441632
16362450421
16362457806
16362469159
16362476239
16362486004
16362494794
16362505780
16362511273
16362520062
16362529278
16362537030
16362546124
16362553753
16362561566
16362567608
16362572857
16362578900
16362586041
16362591168
16362597760
16362604046
16362608990
16362615094
16362621441
16362627484
16362633404
16362638104
16362644024
16362650067
16362656597
16362661785
16362667584
16362674725
16362679913
16362685772
16362692059
16362698101
16362702557
16362710125
16362714642
16362720989
16362726727
16362732952
16362738079
16362744122
16362750347
16362755535
16362760235
16362768169
16362773601
16362778789
16362784405
16362790203
16362797893
16362802898
16362808330
16362813091
16362819500
16362826153
16362832439
16362837810
16362844524
16362851177
16362856121
16362863567
16362867412
16362872844
16362880596
16362886211
16362891033
16362898784
16362904216
16362911663
16362916301
16362923015
16362927471
16362934062
16362938823
16362945293
16362951091
16362957866
16362964214
16362970744
16362976360
16362981181
16362989543
16362994548
16363001140
16363007854
16363013896
16363019634
16363024577
16363031291
16363038127
16363043132
16363048747
16363057231
16363065166
16363070659
16363076762
16363083354
16363090617
16363096599
16363101542
16363109111
16363115825
16363123454
16363129619
16363137187
16363144572
16363149516
16363155803
16363163676
16363170756
16363177470
16363184062
16363190043
16363196391
16363203532
16363210307
16363215007
16363220683
16363225871
16363231181
16363236918
16363242900
16363248515
16363254313
16363259440
16363263285
16363271098
16363275187
16363282511
16363286540
16363294047
16363299113
16363304484
16363310404
16363316386
16363322428
16363328654
16363335612
16363340861
16363346171
16363352518
16363358012
16363362528
16363368937
16363375223
16363381205
16363387675
16363392313
16363396586
16363403177
16363407999
16363413981
16363420572
16363427103
16363431986
16363437784
16363443094
16363450113
16363455973
16363462259
16363467936
16363474039
16363479898
16363486368
16363489786
16363497660
16363502359
16363509195
16363515726
16363522867
16363527445
16363533426
16363539408
16363545694
16363551065
16363556314
16363563089
16363569071
16363575540
16363581156
16363587381
16363593485
16363600137
16363603861
16363612039
16363619119
16363625833
16363631570
16363638223
16363643350
16363650308
16363655069
16363662942
16363670450
16363678445
16363684915
16363690286
16363697488
16363703775
16363711221
16363717141
16363722268
16363729654
16363736673
16363742776
16363748452
16363756082
16363760232
16363766641
16363772989
16363785134
16363792398
16363799600
16363806680
16363813333
16363821939
16363828347
16363835244
16363840737
16363847756
16363852212
16363857583
16363862283
16363868081
16363873635
16363879922
16363887429
16363893411
16363899514
16363904702
16363913125
16363918984
16363925027
16363929482
16363937234
16363942605
16363947610
16363952920
16363958535
16363965310
16363970925
16363976723
16363982033
16363986184
16363992043
16363999672
16364004250
16364008889
16364016091
16364022011
16364027565
16364033730
16364041176
16364046425
16364052163
16364058083
16364062966
16364068459
16364076088
16364082436
16364087807
16364094582
16364099709
16364104042
16364111794
16364116493
16364124977
16364129860
16364137123
16364141335
16364148232
16364154091
16364159523
16364163857
16364170387
16364177528
16364183632
16364189064
16364193520
16364200539
16364205971
16364210793
16364217018
16364223122
16364230202
16364235512
16364241005
16364246620
16364251198
16364259560
16364263588
16364271217
16364275307
16364282142
16364288307
16364294105
16364300026
