16435586220
16435598671
16435609352
16435619912
16435629738
16435640053
16435649758
16435661965
16435673195
16435684914
16435694557
16435706581
16435717262
16435727577
16435736733
16435748390
16435759743
16435770912
16435780495
16435790993
16435803200
16435813026
16435822670
16435838295
16435848488
16435860511
16435870704
16435880165
16435890907
16435903785
16435913551
16435925270
16435935218
16435943031
16435956581
16435966163
16435978187
16435989295
16436000892
16436012794
16436024757
16436035316
16436044471
16436055335
16436060157
16436075599
16436085120
16436094092
16436104041
16436114112
16436129554
16436133948
16436149085
16436158484
16436171241
16436181617
16436192969
16436204505
16436218787
16436227759
16436236182
16436243628
16436249182
16436258582
16436267371
16436275000
16436285742
16436292822
16436300269
16436306006
16436312720
16436319739
16436325171
16436331397
16436339453
16436346594
16436352026
16436357764
16436365576
16436372595
16436380225
16436386694
16436393835
16436401160
16436407141
16436413489
16436420386
16436426672
16436434912
16436441687
16436447851
16436453467
16436459570
16436466467
16436471899
16436479651
16436486547
16436492590
16436499853
16436505529
16436511938
16436520544
16436527441
16436531286
16436540624
16436547033
16436552648
16436559301
16436566747
16436574560
16436582128
16436589086
16436594824
16436601904
16436608434
16436615514
16436622594
16436627294
16436636205
16436641637
16436649206
16436653295
16436660497
16436669103
16436674718
16436681066
16436687902
16436695287
16436702672
16436713048
16436720006
16436726171
16436736730
16436745641
16436754003
16436762243
16436768529
16436776830
16436783483
16436791173
16436797948
16436804052
16436809728
16436816808
16436824620
16436831395
16436836339
16436842320
16436848851
16436857152
16436863378
16436871129
16436878148
16436884557
16436891210
16436899083
16436905003
16436911168
16436918309
16436925572
16436930638
16436938268
16436944249
16436951451
16436956761
16436966649
16436972996
16436979893
16436986058
16436992039
16436998387
16437006871
16437012791
16437019627
16437028050
16437034092
16437042759
16437050389
16437057835
16437064366
16437073887
16437082310
16437088841
16437096409
16437103367
16437111912
16437119114
16437127049
16437136570
16437144200
16437150547
16437158543
16437164463
16437173802
16437179478
16437188389
16437197056
16437204746
16437211216
16437219700
16437225498
16437233067
16437241734
16437247837
16437256260
16437262974
16437272190
16437278171
16437287144
16437292454
16437301670
16437309116
16437316868
16437324009
16437332371
16437339939
16437348423
16437355930
16437364048
16437371921
16437380344
16437387119
16437397800
16437401767
16437411289
16437417575
16437427890
16437435764
16437446567
16437453769
16437467746
16437474521
16437479465
16437484042
16437491367
16437497348
16437504001
16437509372
16437514377
16437519931
16437524448
16437528476
16437534274
16437539157
16437544467
16437549594
16437555148
16437560702
16437565829
16437570651
16437575839
16437581943
16437590976
16437595431
16437600497
16437606479
16437611606
16437616549
16437622470
16437628085
16437633456
16437638766
16437644870
16437651400
16437656833
16437661105
16437666110
16437673129
16437678012
16437683993
16437690829
16437696444
16437702609
16437708529
16437714205
16437719699
16437725924
16437729769
16437735812
16437743075
16437750521
16437755343
16437759616
16437766451
16437770236
16437776583
16437782015
16437788180
16437792391
16437797762
16437804476
16437808627
16437815829
16437820895
16437826754
16437831149
16437836825
16437843233
16437848849
16437852022
16437860689
16437864168
16437871371
16437878268
16437883089
16437887789
16437893831
16437900301
16437904452
16437911593
16437916842
16437922640
16437927462
16437933504
16437938448
16437944246
16437950228
16437956331
16437959078
16437966890
16437973665
16437978975
16437983431
16437988008
16437995211
16437999544
16438006014
16438010775
16438020601
16438026644
16438032625
16438037752
16438044405
16438049837
16438056490
16438063387
16438067781
16438074861
16438080477
16438086031
16438091829
16438098360
16438104036
16438110140
16438116365
16438122163
16438127534
16438132600
16438137788
16438140596
16438147310
16438153719
16438159090
16438163423
16438169038
16438173189
16438178377
16438184602
16438188325
16438194795
16438199983
16438205659
16438211824
16438216401
16438221650
16438226289
16438231782
16438236543
16438241426
16438249360
16438254548
16438260530
16438264680
16438269868
16438274934
16438280915
16438286470
16438292085
16438297273
16438302339
16438309663
16438314607
16438320344
16438325776
16438330903
16438337312
16438344514
16438351045
16438356111
16438360566
16438366731
16438371980
16438377595
16438383698
16438387605
16438394929
16438400666
16438405854
16438413483
16438418183
16438425080
16438429536
16438434907
16438441987
16438446381
16438453522
16438459016
16438464081
16438468964
16438475007
16438481232
16438488312
16438493806
16438499604
16438504914
16438510346
16438517304
16438522004
16438528840
16438534272
16438540680
16438546051
16438550812
16438557404
16438563141
16438569367
16438574433
16438578888
16438585724
16438590912
16438598114
16438602448
16438608124
16438613861
16438620819
16438626313
16438632538
16438640656
16438648102
16438651642
16438663361
16438670807
16438678620
16438683014
16438692352
16438700592
16438709991
16438718964
16438724030
16438732697
16438738617
16438746979
16438752960
16438761810
16438770050
16438776947
16438785248
16438791961
16438797577
16438806915
16438812042
16438822174
16438828399
16438835846
16438843597
16438851471
16438858917
16438867157
16438874115
16438883636
16438890289
16438897918
16438907989
16438914520
16438921905
16438929168
16438937713
16438944854
16438953155
16438961700
16438970306
16438978484
16438986419
16438992828
16439002349
16439009185
16439017303
16439027984
16439033538
16439042876
16439049102
16439057708
16439066863
16439077483
16439087676
16439099334
16439110015
16439118377
16439125640
16439134307
16439142119
16439150054
16439157927
16439165984
16439174346
16439182280
16439189360
16439197295
16439204192
16439211943
16439219512
16439229705
16439238310
16439245024
16439252043
16439258757
16439265837
16439274992
16439284697
16439294035
16439300688
16439309050
16439315886
16439325468
16439332793
16439338652
16439347502
16439356230
16439363920
16439373076
16439380949
16439388212
16439395476
16439402983
16439413725
16439422453
16439435209
16439445097
16439454191
16439463408
16439470427
16439477446
16439487944
16439496916
16439504423
16439511137
16439519804
16439526029
16439535124
16439540861
16439550016
16439556730
16439564848
16439570219
16439578336
16439584745
16439593168
16439601225
16439607023
16439615080
16439623075
16439629911
16439635282
16439645902
16439652982
16439659940
16439667692
16439675870
16439682157
16439689969
16439695890
16439703275
16439713346
16439720548
16439729032
16439733854
16439742215
16439747648
16439756559
16439764920
16439773709
16439780057
16439786771
16439794644
16439800870
16439810575
16439818692
16439825772
16439835355
16439842069
16439848172
16439856107
16439863431
16439872830
16439880338
16439889493
16439898038
16439905179
16439912076
16439921353
16439929654
16439938565
16439947659
16439955167
16439962918
16439969998
16439977566
16439988553
16439996121
16440003384
16440010403
16440019009
16440026516
16440034695
16440040188
16440045498
16440052090
16440056302
16440061551
16440066800
16440072659
16440079800
16440086270
16440092068
16440097073
16440102932
16440107937
16440114163
16440120632
16440126553
16440136013
16440141812
16440146328
16440151699
16440157009
16440162930
16440170803
16440177517
16440182095
16440186428
16440190884
16440195644
16440200161
16440204800
16440210781
16440216274
16440221523
16440226528
16440232204
16440236233
16440242641
16440249844
16440255154
16440259182
16440265713
16440270229
16440276943
16440281399
16440287502
16440293789
16440299709
16440305691
16440311916
16440316433
16440323147
16440327968
16440334133
16440341396
16440347072
16440352443
16440357936
16440362209
16440368801
16440374477
16440381679
16440388210
16440393581
16440398830
16440406520
16440410488
16440416103
16440421718
16440428310
16440436733
16440445522
16440450099
16440455715
16440461574
16440467433
16440474086
16440478298
16440485317
16440491420
16440497768
16440502162
16440508144
16440513637
16440518703
16440525722
16440530666
16440536098
16440541286
16440548549
16440553248
16440559352
16440565333
16440571437
16440577601
16440583583
16440589137
16440594020
16440600184
16440606105
16440612208
16440618434
16440625331
16440631251
16440638087
16440644191
16440650599
16440656459
16440662745
16440668544
16440674769
16440682215
16440691127
16440698878
16440704554
16440711451
16440717799
16440723475
16440731593
16440735926
16440747340
16440752467
16440757594
16440763758
16440767725
16440775050
16440779871
16440786524
16440790186
16440796656
16440801478
16440806239
16440811915
16440817408
16440822291
16440829432
16440833460
16440840662
16440845301
16440852137
16440856959
16440863062
16440868799
16440875696
16440881006
16440886500
16440892603
16440897852
16440902552
16440908106
16440914332
16440920069
16440924952
16440930201
16440935694
16440941370
16440947229
16440952845
16440958826
16440964685
16440967676
16440975183
16440981653
16440988245
16440994471
16441000757
16441006433
16441012354
16441018518
16441024195
16441027368
16441033899
16441039392
16441046961
16441051843
16441057337
16441063806
16441068994
16441074670
16441080591
16441086389
16441090662
16441096582
16441103662
16441109216
16441113733
16441120081
16441125452
16441131067
16441136987
16441143213
16441149927
16441155786
16441160730
16441165918
16441171594
16441176904
16441182275
16441186304
16441197656
16441205102
16441211755
16441220056
16441228479
16441234216
16441242028
16441253015
16441261010
16441269433
16441276025
16441283715
16441292565
16441302209
16441311181
16441321191
16441328759
16441337121
16441346703
16441352929
16441362206
16441369225
16441380456
16441389550
16441395593
16441404687
16441410668
16441418481
16441425195
16441434350
16441443505
16441453515
16441460900
16441468041
16441474511
16441482018
16441490624
16441498498
16441506432
16441514061
16441522240
16441529747
16441536278
16441543786
16441552208
16441559533
16441566918
16441574913
16441583275
16441590599
16441598229
16441605553
16441612938
16441620690
16441631554
16441640465
16441649925
16441656639
16441663414
16441670311
16441677452
16441686119
16441695335
16441703636
16441709190
16441717857
16441723534
16441731895
16441742699
16441750267
16441758446
16441765037
16441771568
16441779930
16441788353
16441796531
16441806114
16441813072
16441821068
16441827781
16441834861
16441842918
16441850181
16441857689
16441866966
16441874351
16441882103
16441889244
16441897483
16441905357
16441914329
16441921531
16441928916
16441937889
16441944908
16441953391
16441960410
16441968406
16441977500
16441983909
16441991782
16441999107
16442009299
16442016380
16442026694
16442035483
16442051292
16442058799
16442068931
16442076011
16442086265
16442093406
16442105613
16442112571
16442119773
16442127097
16442136435
16442142661
16442151694
16442158530
16442166831
16442172995
16442180930
16442187888
16442193381
16442202109
16442212668
16442220236
16442227133
16442234091
16442242697
16442249533
16442255454
16442264426
16442270468
16442279318
16442284934
16442293234
16442299338
16442307455
16442312277
16442321738
16442327902
16442336569
16442345602
16442352194
16442362082
16442367453
16442377646
16442385031
16442393881
16442403219
16442412008
16442420187
16442427816
16442436972
16442444113
16442451742
16442461813
16442469747
16442477316
16442485189
16442493734
16442503683
16442510702
16442520346
16442526632
16442533590
16442540060
16442545248
16442551168
16442556295
16442561849
16442567770
16442573568
16442580038
16442585409
16442590963
16442598653
16442604574
16442611471
16442616598
16442621908
16442627828
16442634237
16442639303
16442645223
16442650350
16442657125
16442661764
16442666219
16442671407
16442678487
16442684530
16442689107
16442695455
16442700948
16442706991
16442713887
16442719869
16442727376
16442736165
16442740316
16442747823
16442752156
16442758199
16442764852
16442771688
16442776998
16442783834
16442788961
16442794759
16442799642
16442805135
16442809957
16442815511
16442821065
16442825826
16442830647
16442834920
16442840230
16442845540
16442850850
16442855672
16442860371
16442866048
16442871358
16442876546
16442882222
16442887349
16442891621
16442898213
16442902852
16442907674
16442913594
16442918782
16442923177
16442929768
16442934651
16442939351
16442945027
16442950459
16442956624
16442964009
16442969929
16442975056
16442980855
16442986531
16442992085
16442996235
16443000935
16443005879
16443011067
16443015767
16443021016
16443025593
16443031025
16443036213
16443041706
16443048909
16443053608
16443057515
16443063801
16443068074
16443073262
16443078144
16443082966
16443091206
16443097737
16443102558
16443107624
16443112446
16443118855
16443124043
16443129475
16443135945
16443141743
16443147297
16443152485
16443158344
16443163349
16443169209
16443174091
16443178425
16443185322
16443191242
16443196796
16443203205
16443209858
16443214985
16443221638
16443227924
16443235554
16443240803
16443245563
16443254719
16443261738
16443275287
16443287433
16443299946
16443306293
16443319233
16443329364
16443336078
16443343952
16443348651
16443354572
16443359027
16443363239
16443367572
16443371051
16443375751
16443381916
16443387409
16443391559
16443395282
16443399250
16443404987
16443409625
16443414630
16443421100
16443425128
16443431293
16443436298
16443441791
16443445636
16443452777
16443457355
16443461444
16443466388
16443470660
16443476398
16443482562
16443487994
16443492755
16443498676
16443503558
16443509174
16443515033
16443522479
16443528583
16443533710
16443540362
16443545856
16443551776
16443556720
16443560687
16443566852
16443573443
16443579242
16443586261
16443589679
16443597796
16443606769
16443614337
16443623309
16443633746
16443642169
16443648761
16443656329
16443659991
16443673053
16443682147
16443689166
16443698931
16443707598
16443715106
16443723834
16443735491
16443742999
16443752032
16443759417
16443767535
16443775103
16443781573
16443791155
16443799822
16443809710
16443820452
16443829668
16443838579
16443848467
16443857134
16443869341
16443877581
16443887102
16443891863
16443902239
16443911944
16443920977
16443930254
16443940020
16443947832
16443956438
16443963884
16443972124
16443981157
16443989885
16443997209
16444005449
16444013689
16444021807
16444030290
16444036394
16444045549
16444053850
16444058611
16444067461
16444074785
16444084917
16444091631
16444100481
16444107805
16444115739
16444124895
16444131975
16444138750
16444146684
16444153947
16444161210
16444168596
16444175004
16444182451
16444191545
16444199601
16444206559
16444214067
16444221269
16444228654
16444235734
16444243119
16444249467
16444257707
16444265885
16444273942
16444280290
16444288652
16444294511
16444301408
16444310563
16444317826
16444326127
16444335099
16444342790
16444352372
16444360246
16444365434
16444376115
16444384354
16444392777
16444400407
16444409501
16444416093
16444424149
16444431412
16444439591
16444448075
16444456193
16444460648
16444472489
16444479020
16444489335
16444495743
16444503678
16444514542
16444521317
16444530960
16444536759
16444546891
16444554215
16444561844
16444569290
16444580277
16444586808
16444594803
16444603226
16444611649
16444620011
16444627945
16444635636
16444640762
16444648575
16444659012
16444665604
16444674820
16444688309
16444697342
16444703812
16444714065
16444721146
16444728897
16444736893
16444745804
16444752273
16444762466
16444768692
16444776626
16444786148
16444793594
16444800796
16444806289
16444813980
16444821792
16444827957
16444836746
16444846695
16444854568
16444861465
16444868911
16444875198
16444883987
16444889846
16444898269
16444904556
16444912856
16444922012
16444929153
16444935928
16444942642
16444951309
16444956985
16444967666
16444976455
16444983230
16444989577
16444996963
16445004165
16445012160
16445019363
16445026260
16445033156
16445038650
16445041396
16445048415
16445052566
16445058730
16445065322
16445069289
16445076613
16445083083
16445087600
16445092482
16445099502
16445105422
16445110549
16445115432
16445121718
16445127944
16445133925
16445138320
16445144057
16445149733
16445155593
16445161330
16445167556
16445172255
16445178786
16445183242
16445188063
16445195387
16445201247
16445206374
16445210890
16445219191
16445224196
16445229628
16445235610
16445241347
16445247145
16445253066
16445258131
16445263686
16445269728
16445273390
16445279982
16445285231
16445291762
16445296400
16445302809
16445308546
16445314162
16445321974
16445327101
16445331373
16445338270
16445344069
16445348341
16445355971
16445360975
16445371046
16445376784
16445384962
16445389113
16445396681
16445401381
16445408827
16445416884
16445423048
16445428602
16445432386
16445436659
16445443006
16445448622
16445454298
16445460035
16445465528
16445469740
16445475599
16445481092
16445486158
16445490980
16445496168
16445502516
16445507215
16445514295
16445520643
16445525648
16445529493
16445536878
16445542310
16445548353
16445554701
16445560255
16445563551
16445571119
16445577345
16445580824
16445587904
16445594251
16445599805
16445606946
16445611768
16445618421
16445623243
16445627759
16445633985
16445640821
16445646558
16445652295
16445657972
16445664136
16445669935
16445674756
16445680372
16445685315
16445692518
16445699415
16445705152
16445710645
16445716871
16445721204
16445727246
16445732007
16445738355
16445743970
16445750928
16445755201
16445760327
16445768201
16445774182
16445779798
16445785352
16445790784
16445795239
16445802747
16445807385
16445813001
16445818555
16445824414
16445830945
16445838147
16445845776
16445851209
16445856213
16445862012
16445866406
16445873120
16445878064
16445883557
16445891370
16445896741
16445901807
16445906384
16445913830
16445918103
16445923596
16445930127
16445936108
16445942944
16445948437
16445951550
16445959546
16445965283
16445971020
16445979077
16445983471
16445992016
16445997326
16446003308
16446009411
16446014538
16446020703
16446026379
16446033093
16446038464
16446043408
16446049267
16446054211
16446060681
16446065869
16446070568
16446076916
16446082653
16446088085
16446092724
16446098828
16446103283
16446108654
16446113354
16446118847
16446124951
16446130322
16446135937
16446141064
16446146313
16446151196
16446156445
16446162121
16446167858
16446175732
16446179821
16446184460
16446191723
16446196484
16446202343
16446207653
16446213634
16446223278
16446231151
16446238293
16446245556
16446253490
16446261303
16446269359
16446277050
16446285900
16446293346
16446301342
16446309398
16446317638
16446324657
16446331920
16446339611
16446348827
16446356761
16446363964
16446373546
16446379466
16446389537
16446395152
16446403514
16446412181
16446420238
16446427806
16446435985
16446444103
16446452586
16446459056
16446466869
16446474803
16446483714
16446491710
16446499095
16446509105
16446517528
16446525218
16446532908
16446540965
16446549083
16446557689
16446566722
16446574840
16446583140
16446589793
16446596202
16446606334
16446612925
16446621592
16446629344
16446637767
16446645152
16446653880
16446661387
16446668406
16446678660
16446686045
16446695445
16446710764
16446718943
16446727488
16446735728
16446744151
16446751109
16446761118
16446768076
16446780466
16446788950
16446795725
16446802073
16446811594
16446817515
16446827646
16446833567
16446841807
16446850901
16446860117
16446868662
16446877329
16446881174
16446891245
16446899729
16446907480
16446915476
16446923349
16446929209
16446937265
16446943247
16446950815
16446960520
16446969004
16446975290
16446983469
16446990732
16446999155
16447007578
16447014658
16447022104
16447030222
16447036813
16447044931
16447051828
16447057748
16447067148
16447072641
16447082529
16447089548
16447097360
16447105173
16447112680
16447119333
16447126779
16447135629
16447143442
16447151498
16447158883
16447162790
16447173532
16447179696
16447188607
16447197763
16447202890
16447212655
16447220224
16447227609
16447236276
16447244455
16447252877
16447260324
16447267465
16447278329
16447286263
16447294442
16447302621
16447310922
16447315438
16447326241
16447332833
16447340402
16447352731
16447359017
16447368111
16447376778
16447381173
16447393319
16447400521
16447411446
16447418709
16447427926
16447434517
16447444100
16447450570
16447461373
16447468209
16447475594
16447485482
16447492135
16447501717
16447508736
16447518990
16447526680
16447539376
16447547921
16447557991
16447565865
16447574288
16447582588
16447590523
16447598458
16447606575
16447615975
16447622749
16447631783
16447639046
16447648445
16447654915
16447665169
16447675728
16447683540
16447689278
16447694282
16447699593
16447706062
16447711311
16447715889
16447721199
16447728401
16447733711
16447739143
16447744453
16447750252
16447756050
16447758919
16447767708
16447770515
16447778938
16447784187
16447789558
16447795478
16447801155
16447804145
16447810798
16447819526
16447824897
16447829048
16447835701
16447840583
16447845710
16447850837
16447855842
16447862434
16447870185
16447875190
16447880439
16447886238
16447891792
16447897041
16447902595
16447908210
16447915168
16447918952
16447923896
16447930183
16447936897
16447942146
16447947089
16447953010
16447958198
16447964362
16447969062
16447974189
16447978706
16447983100
16447990363
16447995551
16448002082
16448007148
16448011848
16448017463
16448022285
16448026435
16448033759
16448038886
16448045234
16448050055
16448055976
16448060676
16448065619
16448071235
16448077582
16448083869
16448088691
16448094489
16448101081
16448106757
16448110663
16448117072
16448123359
16448131537
16448141364
16448150275
16448155524
16448162238
16448168219
16448174994
16448179755
16448185492
16448191779
16448196295
16448200080
16448205451
16448211737
16448216864
16448221991
16448226630
16448231207
16448235785
16448240424
16448246405
16448252448
16448257208
16448262274
16448268134
16448273016
16448278754
16448283026
16448289557
16448295172
16448299933
16448305792
16448310736
16448315680
16448319342
16448325262
16448331427
16448336554
16448341986
16448346686
16448351446
16448356512
16448366339
16448371222
16448377997
16448382940
16448388311
16448394415
16448399786
16448404669
16448409552
16448414556
16448420782
16448427252
16448432196
16448436834
16448442999
16448447637
16448453131
16448458074
16448462957
16448469366
16448474310
16448480902
16448485418
16448491216
16448496893
16448504278
16448510809
16448514959
16448520757
16448526312
16448531744
16448535833
16448541204
16448546880
16448553655
16448560003
16448563360
16448569646
16448574956
16448580877
16448585821
16448593145
16448598699
16448603582
16448609197
16448615545
16448621221
16448625554
16448632024
16448638860
16448644048
16448649480
16448655523
16448663762
16448670110
16448677129
16448684697
16448691106
16448696294
16448703740
16448709356
16448716680
16448722905
16448728765
16448734136
16448741704
16448747014
16448752080
16448758428
16448761296
16448770024
16448777654
16448785344
16448791387
16448799993
16448806889
16448813970
16448821904
16448829106
16448836491
16448844914
16448851262
16448859258
16448864507
16448872685
16448879826
16448886906
16448896184
16448902043
16448909245
16448917546
16448925542
16448932438
16448943120
16448953557
16448961796
16448969059
16448976628
16448985356
16448993046
16449002263
16449010197
16449019657
16449027043
16449034489
16449041447
16449048405
16449057804
16449064823
16449074284
16449081364
16449090885
16449097782
16449107853
16449116703
16449125553
16449134159
16449145634
16449153751
16449158268
16449170414
16449177738
16449192631
16449202701
16449211735
16449220707
16449226810
16449236332
16449242679
16449252201
16449258915
16449267765
16449275943
16449285404
16449292301
16449299015
16449305973
16449313175
16449320255
16449328250
16449337467
16449344425
16449351505
16449359928
16449366214
16449374210
16449382327
16449389835
16449399356
16449411136
16449418704
16449425296
16449432620
16449438907
16449448489
16449457217
16449463870
16449470584
16449476627
16449483340
16449489627
16449496768
16449505130
16449511600
16449518680
16449524661
16449531985
16449539004
16449544925
16449553775
16449559207
16449567874
16449574344
16449581057
16449588748
16449595706
16449605899
16449612613
16449619082
16449627627
16449634219
16449640383
16449648806
16449655459
16449663455
16449669863
16449678958
16449685793
16449692507
16449701663
16449708804
16449715945
16449724184
16449730654
16449739932
16449746035
16449755007
16449761477
16449771304
16449778689
16449787539
16449794253
16449801760
16449810183
16449818484
16449829409
16449839052
16449848025
16449856630
16449863283
16449873110
16449880800
16449890993
16449900576
16449907412
16449919130
16449925051
16449935549
16449946169
16449954592
16449962160
16449968691
16449977114
16449987245
16449993471
16450003237
16450009096
16450018495
16450023866
16450032838
16450039491
16450047548
16450054689
16450063905
16450072145
16450079958
16450084474
16450098207
16450106142
16450119996
16450126710
16450133912
16450141908
16450147340
16450153016
16450160341
16450165956
16450171022
16450175477
16450180726
16450185121
16450191224
16450195008
16450199708
16450204591
16450210206
16450217652
16450222596
16450227662
16450235231
16450239686
16450244874
16450251039
16450256959
16450262452
16450268128
16450271729
16450276856
16450280885
16450287049
16450291444
16450296998
16450303040
16450306764
16450314027
16450318604
16450321107
16450327271
16450333314
16450336427
16450345277
16450349915
16450352967
16450359498
16450365479
16450368714
16450374390
16450378480
16450385010
16450389832
16450395569
16450401429
16450406068
16450410218
16450416199
16450421204
16450426697
16450433594
16450438111
16450444214
16450449219
16450454529
16450458863
16450463868
16450470459
16450475220
16450482178
16450487000
16450491822
16450498291
16450501709
16450507935
16450514283
16450521118
16450527954
16450532959
16450538880
16450544983
16450549134
16450554627
16450559021
16450565491
16450571472
16450576904
16450583008
16450590393
16450597107
16450602966
16450609070
16450614136
16450620789
16450625977
16450634094
16450639343
16450647583
16450652832
16450662353
16450669495
16450682861
16450690308
16450698791
16450702331
16450716125
16450721252
16450729187
16450742309
16450755371
16450765564
16450771179
16450778930
16450784912
16450791198
16450798523
16450804687
16450809143
16450815795
16450821594
16450826355
16450831298
16450838195
16450843933
16450849182
16450855224
16450860351
16450867065
16450872131
16450877197
16450884399
16450889831
16450894958
16450903564
16450909362
16450915954
16450920654
16450932128
16450936706
16450941833
16450949096
16450954467
16450959777
16450966308
16450971252
16450976806
16450983337
16450987914
16450993774
16450997558
16451002502
16451007751
16451013427
16451020019
16451025329
16451030089
16451035094
16451042663
16451046569
16451051391
16451056823
16451063292
16451069335
16451074706
16451083556
16451090697
16451096251
16451103575
16451110045
16451115294
16451120909
16451125365
16451131102
16451135436
16451140685
16451145751
16451151183
16451156310
16451162779
16451167723
16451173155
16451178832
16451185118
16451190428
16451197814
16451204833
16451211058
16451216979
16451222960
16451227599
16451233763
16451242125
16451252989
16451259337
16451266112
16451273802
16451279845
16451283995
16451290526
16451298460
16451307005
16451315855
16451324034
16451331663
16451339781
16451348082
16451354612
16451363463
16451372313
16451379332
16451386351
16451393431
16451401426
16451405699
16451415464
16451422544
16451427244
16451436827
16451445005
16451451536
16451457517
16451466184
16451472593
16451479246
16451486448
16451493955
16451500059
16451508482
16451516477
16451523618
16451529905
16451537534
16451541685
16451552488
16451561399
16451569639
16451574644
16451583921
16451590696
16451600706
16451607114
16451613523
16451621763
16451629514
16451637693
16451643552
16451651731
16451659055
16451667905
16451674558
16451682981
16451689450
16451697141
16451704038
16451712949
16451719419
16451725949
16451735105
16451742185
16451752927
16451759519
16451767270
16451775327
16451783139
16451789304
16451798276
16451807065
16451813352
16451822202
16451830136
16451837338
16451845517
16451850095
16451859738
16451866818
16451874081
16451881833
16451889828
16451897702
16451903134
16451911923
16451919369
16451928280
16451935727
16451941769
16451949826
16451957821
16451964840
16451970089
16451980343
16451986569
16451993832
16452001156
16452010067
16452017392
16452025448
16452031979
16452040341
16452047604
16452055721
16452060421
16452071285
16452078365
16452085201
16452095577
16452105465
16452112789
16452120113
16452127682
16452134335
16452143673
16452150509
16452160946
16452167293
16452176144
16452181942
16452188534
16452197018
16452204830
16452210689
16452218929
16452226742
16452234310
16452240841
16452248226
16452255184
16452263851
16452270748
16452278133
16452284664
16452292049
16452299312
16452307735
16452314876
16452319637
16452329280
16452334041
16452341182
16452349300
16452356380
16452363887
16452370418
16452377254
16452386470
16452393306
16452401546
16452409480
16452415340
16452421077
16452429805
16452437068
16452444698
16452451289
16452461543
16452466670
16452476436
16452481258
16452489924
16452498347
16452506770
16452513057
16452520747
16452529719
16452536250
16452542598
16452549922
16452557795
16452564448
16452574519
16452579829
16452589350
16452594966
16452603755
16452612666
16452619014
16452626948
16452635920
16452646540
16452654841
16452662287
16452670649
16452675471
16452687006
16452693903
16452703242
16452711909
16452720454
16452727229
16452731867
16452736445
16452742243
16452746699
16452751093
16452756769
16452764399
16452769343
16452775202
16452780573
16452785761
16452790949
16452796320
16452801386
16452805964
16452811945
16452816157
16452821345
16452828303
16452834589
16452839045
16452844477
16452852717
16452858393
16452866327
16452870478
16452877008
16452881220
16452887140
16452893122
16452900019
16452904657
16452911371
16452916376
16452920710
16452925226
16452929865
16452934503
16452940058
16452946894
16452952875
16452959039
16452962824
16452968561
16452973993
16452976923
16452983698
16452992426
16452996149
16453004083
16453007257
16453013239
16453018182
16453023492
16453029413
16453033258
16453038751
16453044427
16453050043
16453055841
16453060907
16453066034
16453068719
16453076349
16453079706
16453086664
16453091058
16453097467
16453101495
16453106561
16453112420
16453118097
16453123041
16453128412
16453133416
16453138421
16453143426
16453149286
16453153436
16453157708
16453164605
16453171930
16453177545
16453184686
16453188836
16453195245
16453199762
16453205621
16453209466
16453217095
16453220513
16453226373
16453231805
16453236993
16453241815
16453247613
16453251885
16453257073
16453264214
16453268426
16453274224
16453277764
16453284295
16453290215
16453294183
16453300713
16453307488
16453310845
16453316827
16453320611
16453326958
16453332513
16453338006
16453342644
16453349908
16453352898
16453361870
16453367608
16453373101
16453378716
16453384270
16453388726
16453394768
16453401055
16453407830
16453414544
16453418999
16453426201
16453432427
16453437859
16453442620
16453448357
16453454216
16453461113
16453466484
16453471672
16453477593
16453482170
16453486870
16453492607
16453499932
16453504265
16453510369
16453515251
16453520134
16453525200
16453530632
16453536064
16453540581
16453544182
16453551201
16453556755
16453561333
16453567192
16453572380
16453578362
16453583489
16453587151
16453592705
16453598625
16453603630
16453607781
16453613335
16453619377
16453622673
16453629082
16453634392
16453638481
16453644096
16453649223
16453655205
16453659843
16453666069
16453671623
16453677055
16453683525
16453691093
16453696281
16453699516
16453705498
16453712028
16453716301
16453724357
16453730156
16453735038
16453739433
16453746391
16453750786
16453755424
16453760124
16453768242
16453774345
16453777946
16453785759
16453790519
16453796012
16453800956
16453805717
16453814811
16453818901
16453826042
16453830558
16453835502
16453840446
16453846488
16453851371
16453857108
16453863151
16453871452
16453879020
16453889884
16453895866
16453907584
16453916801
16453927360
16453934135
16453945975
16453952079
16453962089
16453974174
16453983512
16453997611
16454007987
16454018851
16454029288
16454040152
16454049735
16454056632
16454068045
16454081107
16454090323
16454105582
16454115897
16454125052
16454140311
16454149893
16454164786
16454175650
16454189383
16454199271
16454209097
16454218741
16454228079
16454240469
16454250357
16454258536
16454267020
16454275687
16454282095
16454291311
16454299429
16454307974
16454316214
16454322989
16454330740
16454338736
16454345327
16454356314
16454363577
16454370718
16454378958
16454386465
16454390310
16454399527
16454407522
16454412527
16454419607
16454428518
16454437734
16454443350
16454451895
16454459524
16454466360
16454474233
16454480398
16454487661
16454496450
16454506948
16454513113
16454522268
16454532034
16454540517
16454548879
16454557424
16454562246
16454573354
16454582143
16454590505
16454598073
16454606130
16454613881
16454622487
16454630544
16454638967
16454646718
16454655812
16454664296
16454671682
16454679616
16454691030
16454698781
16454706472
16454715139
16454724843
16454730580
16454740529
16454749013
16454758290
16454764455
16454771108
16454780751
16454790517
16454796925
16454806508
16454815358
16454825124
16454836049
16454854237
16454869557
16454877247
16454889638
16454900197
16454909535
16454919240
16454931019
16454941700
16454951222
16454958790
16454967579
16454975209
16454982411
16454993031
16455003590
16455014271
16455022022
16455030384
16455039173
16455049915
16455057362
16455064076
16455071400
16455076771
16455082813
16455090870
16455098499
16455103443
16455110401
16455116993
16455122791
16455128468
16455134327
16455143360
16455149769
16455154774
16455162037
16455166736
16455174305
16455179737
16455186817
16455196155
16455202930
16455210926
16455217334
16455224476
16455232105
16455238636
16455246204
16455253650
16455261402
16455267505
16455276477
16455283008
16455290027
16455297534
16455304676
16455311878
16455319751
16455326526
16455333606
16455341297
16455346668
16455355090
16455362537
16455370471
16455380237
16455385608
16455390857
16455394885
16455399768
16455405566
16455409656
16455417529
16455422351
16455427844
16455432178
16455438464
16455444080
16455448352
16455453052
16455459399
16455464831
16455469470
16455473437
16455479724
16455483325
16455489795
16455493945
16455498950
16455505176
16455509326
16455514514
16455520862
16455524402
16455531360
16455536914
16455543078
16455549609
16455555529
16455561267
16455567370
16455573413
16455580676
16455586230
16455593249
16455598742
16455606311
16455611743
16455616564
16455625170
16455631640
16455639269
16455647326
16455654040
16455664050
16455671496
16455677172
16455683520
16455691149
16455697375
16455702135
16455707323
16455712511
16455717516
16455722216
16455728136
16455732958
16455738390
16455743334
16455748400
16455752795
16455757372
16455762499
16455768236
16455773058
16455776476
16455782946
16455787890
16455792223
16455797960
16455801684
16455808336
16455813158
16455817858
16455823229
16455827196
16455831713
16455837633
16455842211
16455846422
16455852587
16455856981
16455862597
16455867296
16455874620
16455880968
16455884996
16455891100
16455896166
16455901415
16455907579
16455912950
16455919298
16455925585
16455930712
16455935350
16455940843
16455946642
16455951158
16455959581
16455964281
16455970445
16455976122
16455980333
16455988329
16455993333
16455999925
16456003282
16456010789
16456015855
16456020494
16456025743
16456030809
16456036851
16456042284
16456047166
16456053575
16456058641
16456063096
16456068284
16456075120
16456080430
16456084398
16456090135
16456093980
16456098131
16456103502
16456107408
16456113023
16456117723
16456124803
16456132005
16456137254
16456144944
16456150499
16456155931
16456161241
16456169847
16456175584
16456182664
16456190110
16456195665
16456201341
16456206224
16456211778
16456217698
16456222642
16456228074
16456234666
16456239488
16456244676
16456250596
16456257188
16456261949
16456267625
16456272630
16456277635
16456283189
16456287888
16456294419
16456300462
16456305772
16456312058
16456316941
16456321824
16456327134
16456333115
16456339463
16456343857
16456350144
16456354600
16456360947
16456365464
16456371506
16456376206
16456381699
16456386582
16456391526
16456395798
16456399521
16456405137
16456412705
16456417527
16456424546
16456431626
16456438462
16456445481
16456452317
16456460373
16456468735
16456476609
16456483017
16456489975
16456498215
16456505051
16456511521
16456520554
16456526840
16456536301
16456541794
16456550705
16456557358
16456565537
16456571762
16456580551
16456588181
16456595749
16456604233
16456611313
16456619369
16456626266
16456635117
16456642624
16456650619
16456660446
16456670273
16456677658
16456688339
16456695114
16456704391
16456712448
16456722213
16456727401
16456736496
16456742965
16456752121
16456761215
16456770675
16456779708
16456791305
16456799301
16456807235
16456815292
16456824203
16456832015
16456843002
16456851302
16456858199
16456864730
16456873580
16456880538
16456886947
16456893050
16456900008
16456907821
16456914169
16456920150
16456928268
16456934371
16456940169
16456947494
16456954879
16456964339
16456971480
16456976729
16456985763
16456991805
16456998824
16457006026
16457013900
16457021163
16457028792
16457035384
16457042403
16457049117
16457056258
16457063765
16457071273
16457079879
16457087264
16457093123
16457100142
16457105696
16457114913
16457120650
16457128890
16457135604
16457145979
16457152266
16457157271
16457166365
16457173384
16457181563
16457189009
16457199446
16457205489
16457213423
16457222212
16457230025
16457238325
16457245405
16457252608
16457261091
16457268172
16457276411
16457283552
16457292097
16457298994
16457307112
16457314680
16457323652
16457330366
16457337141
16457346235
16457353559
16457362898
16457370588
16457378401
16457388533
16457396894
16457407514
16457412458
16457426985
16457433576
16457443098
16457452131
16457458540
16457467695
16457476179
16457483503
16457491438
16457496259
16457506635
16457513227
16457519697
16457530622
16457540388
16457550153
16457557233
16457568342
16457578473
16457585492
16457594770
16457603559
16457611982
16457619916
16457628888
16457637799
16457647443
16457655622
16457664106
16457672223
16457679608
16457686261
16457690961
16457700727
16457705731
16457715070
16457722394
16457728253
16457734662
16457743390
16457748639
16457756879
16457762494
16457771893
16457779034
16457786420
16457793011
16457799603
16457805829
16457814252
16457821210
16457829022
16457834454
16457838177
16457844830
16457851056
16457856671
16457860638
16457864667
16457870282
16457874737
16457880414
16457884686
16457890484
16457895184
16457900189
16457907330
16457911602
16457916485
16457922589
16457929120
16457933880
16457939557
16457944317
16457950238
16457955975
16457961468
16457964398
16457971539
16457976055
16457981549
16457988690
16457994244
16457999310
16458004498
16458011029
16458015789
16458020062
16458025494
16458031109
16458035992
16458041912
16458047405
16458053814
16458057842
16458063152
16458068157
16458073406
16458079998
16458084576
16458089092
16458094280
16458099834
16458105816
16458112164
16458118450
16458123333
16458127544
16458133709
16458139507
16458144817
16458149090
16458154949
16458161480
16458168438
16458174419
16458179058
16458185528
16458194866
16458203960
16458210979
16458217937
16458227214
16458231304
16458241008
16458247539
16458257000
16458262432
16458268352
16458273967
16458280254
16458285442
16458291362
16458296794
16458301677
16458306438
16458312297
16458317912
16458323589
16458329570
16458334514
16458340740
16458346050
16458352702
16458358379
16458363445
16458369975
16458376384
16458381145
16458387065
16458393169
16458398235
16458404704
16458409038
16458413188
16458421184
16458427592
16458432780
16458438457
16458445842
16458451335
16458459270
16458464763
16458471477
16458477336
16458483623
16458491374
16458496501
16458502726
16458508586
16458516703
16458520732
16458529094
16458534953
16458540263
16458546672
16458552897
16458558635
16458564433
16458570353
16458575480
16458582011
16458588237
16458596476
16458600810
16458607218
16458612956
16458617594
16458624491
16458629374
16458635661
16458642741
16458648234
16458655375
16458660258
16458666300
16458671549
16458677287
16458682536
16458689188
16458695597
16458699808
16458705180
16458710734
16458716410
16458724711
16458731242
16458737345
16458743082
16458749369
16458756327
16458762430
16458769144
16458776529
16458782877
16458788187
16458793802
16458800089
16458806803
16458811319
16458817240
16458822977
16458827555
16458833353
16458838053
16458844767
16458848246
16458855204
16458861185
16458867777
16458873392
16458880289
16458884195
16458891764
16458897989
16458905130
16458911112
16458916605
16458923013
16458929361
16458937479
16458945413
16458953165
16458962015
16458968851
16458977762
16458984781
16458992044
16458999551
16459007364
16459013711
16459021524
16459028299
16459036417
16459040384
16459054239
16459059488
16459069497
16459075479
16459083352
16459090371
16459098489
16459102701
16459113931
16459121682
16459129556
16459134195
16459143655
16459152627
16459157510
16459164712
16459175210
16459182229
16459189004
16459198648
16459207620
16459214517
16459224526
16459228982
16459239785
16459248513
16459257058
16459265054
16459273599
16459280984
16459289407
16459297829
16459303689
16459311013
16459318886
16459327492
16459336281
16459344460
16459350503
16459359292
16459365334
16459371987
16459382058
16459391945
16459397072
16459407448
16459412697
16459419838
16459432228
16459444497
16459455483
16459464455
16459471535
16459481056
16459486855
16459497414
16459504738
16459514809
16459522988
16459531960
16459537636
16459546730
16459553627
16459560890
16459570290
16459577614
16459585060
16459592140
16459599647
16459608803
16459616066
16459623634
16459631447
16459638710
16459647072
16459654457
16459662391
16459669594
16459677528
16459684608
16459693031
16459702858
16459708168
16459716224
16459723304
16459731300
16459738197
16459749305
16459754737
16459762794
16459770301
16459778114
16459786537
16459792518
16459801185
16459807228
16459813880
16459823768
16459831458
16459840980
16459847144
16459855872
16459862464
16459868690
16459879127
16459885230
16459894508
16459900184
16459909156
16459916297
16459923743
16459932532
16459939857
16459946631
16459957129
16459962623
16459972632
16459980140
16459987952
16459993812
16460001685
16460010535
16460017554
16460026709
16460035132
16460042212
16460050147
16460054480
16460064246
16460072730
16460080481
16460089881
16460098120
16460102271
16460112403
16460119116
16460127051
16460133948
16460143286
16460150427
16460159766
16460165991
16460175085
16460181433
16460188940
16460198950
16460204138
16460215735
16460224280
16460236182
16460244299
16460255469
16460262182
16460272680
16460282690
16460294470
16460301916
16460309668
16460321447
16460324194
16460330725
16460335608
16460340918
16460345556
16460350805
16460358313
16460364782
16460371862
16460377600
16460382727
16460388281
16460393469
16460398474
16460403356
16460408972
16460413732
16460420873
16460426000
16460431555
16460437048
16460442968
16460447973
16460453161
16460458471
16460462804
16460470800
16460476904
16460483007
16460486547
16460492651
16460497961
16460502294
16460507116
16460514623
16460519994
16460525671
16460531591
16460536718
16460542150
16460547643
16460553625
16460558813
16460563817
16460567846
16460574621
16460579137
16460584447
16460589147
16460595372
16460600560
16460607885
16460613439
16460618627
16460624425
16460631078
16460636083
16460641698
16460646337
16460652379
16460657079
16460663976
16460669835
16460675206
16460681859
16460687596
16460694188
16460700658
16460706822
16460711522
16460718358
16460723058
16460728246
16460734105
16460741002
16460747289
16460753148
16460758702
16460764500
16460769078
16460777013
16460783665
16460789525
16460795018
16460802220
16460808934
16460813756
16460824742
16460832127
16460838170
16460843419
16460849339
16460854039
16460860753
16460865696
16460872593
16460878148
16460885960
16460890843
16460896214
16460900364
16460907872
16460914830
16460921116
16460926487
16460932042
16460937657
16460942723
16460946873
16460952122
16460958775
16460964390
16460968724
16460973606
16460979466
16460984898
16460990025
16460996250
16461001499
16461005711
16461013279
16461018162
16461022862
16461027683
16461034763
16461039036
16461044041
16461048801
16461053989
16461060154
16461066135
16461071812
16461077061
16461083591
16461087620
16461094028
16461097813
16461105991
16461111118
16461117344
16461124729
16461129307
16461134678
16461141331
16461146702
16461153477
16461158359
16461163486
16461169773
16461175022
16461180820
16461187595
16461192600
16461198337
16461203830
16461209568
16461214817
16461221714
16461225864
16461233066
16461238498
16461244724
16461250034
16461257480
16461262851
16461267063
16461273410
16461279453
16461283786
16461290378
16461296176
16461300998
16461308078
16461313449
16461318881
16461324436
16461329501
16461335300
16461342014
16461347080
16461354343
16461359287
16461365390
16461370151
16461375644
16461380161
16461387118
16461392429
16461399631
16461406894
16461413364
16461419406
16461426791
16461434726
16461440463
16461447604
16461453891
16461459262
16461466891
16461472079
16461478305
16461485995
16461490756
16461496005
16461503024
16461510043
16461514560
16461520053
16461527621
16461531955
16461538302
16461546176
16461551852
16461557406
16461562594
16461567355
16461574191
16461579074
16461584750
16461589755
16461597140
16461601473
16461608859
16461613619
16461619479
16461626925
16461633029
16461641329
16461647128
16461653231
16461658358
16461663973
16461669527
16461674166
16461679964
16461687533
16461693514
16461698885
16461704439
16461710238
16461715975
16461721285
16461727450
16461733370
16461740694
16461744784
16461752047
16461757235
16461763765
16461769686
16461775667
16461780794
16461786959
16461792635
16461798250
16461803560
16461810213
16461815401
16461821016
16461828035
16461834139
16461840059
16461845613
16461850862
16461856539
16461862764
16461868563
16461876009
16461882295
16461888826
16461894563
16461900667
16461906465
16461909395
16461916963
16461924837
16461929537
16461934969
16461940706
16461946809
16461952730
16461959016
16461964754
16461969331
16461977205
16461984041
16461989778
16461994905
16461999605
16462005403
16462014558
16462020906
16462030305
16462036592
16462042024
16462049775
16462056733
16462065950
16462072419
16462079561
16462086702
16462092256
16462097871
16462103242
16462108674
16462114289
16462121614
16462127900
16462133454
16462139070
16462144380
16462149934
16462154939
16462160676
16462167695
16462173799
16462180390
16462186128
16462191560
16462195893
16462202363
16462208222
16462215180
16462221223
16462226899
16462232819
16462237153
16462244294
16462250581
16462256135
16462262421
16462268281
16462274445
16462282441
16462287324
16462295319
16462302705
16462308930
16462314973
16462321442
16462326569
16462331879
16462338166
16462343415
16462349885
16462355317
16462361481
16462367280
16462372895
16462378083
16462382843
16462389985
16462394623
16462400849
16462407257
16462414521
16462419526
16462425690
16462432526
16462439301
16462445099
16462453034
16462458893
16462463715
16462469940
16462474579
16462479889
16462485382
16462492645
16462498627
16462506439
16462511627
16462517792
16462523102
16462528656
16462536041
16462541779
16462547943
16462552338
16462559418
16462563629
16462571014
16462577057
16462585297
16462591400
16462598175
16462602875
16462610260
16462615692
16462621918
16462626190
16462634613
16462640167
16462647552
16462652191
16462660309
16462665375
16462672271
16462678253
16462684601
16462690338
16462696930
16462700653
16462707000
16462712188
16462718414
16462723358
16462730438
16462735260
16462744232
16462748992
16462756011
16462759429
16462770599
16462779327
16462787628
16462796966
16462805999
16462817840
16462826507
16462836700
16462844634
16462853973
16462862273
16462873016
16462879668
16462887176
16462894134
16462901092
16462907744
16462914641
16462921660
16462931243
16462939116
16462946502
16462953155
16462961333
16462969573
16462977996
16462987578
16462994597
16463002288
16463010100
16463014983
16463027190
16463034636
16463042510
16463052153
16463059905
16463068267
16463075652
16463082366
16463092375
16463099944
16463109404
16463115813
16463125395
16463133208
16463141997
16463150298
16463160246
16463167754
16463175017
16463184782
16463191435
16463200774
16463210234
16463218046
16463225554
16463233427
16463241057
16463250334
16463259245
16463264677
16463274199
16463281950
16463292570
16463300016
16463309111
16463320158
16463327055
16463340971
16463353056
16463363310
16463371488
16463379362
16463389250
16463399442
16463408781
16463415495
16463425993
16463433134
16463442716
16463450468
16463457914
16463467985
16463476041
16463483976
16463492155
16463499662
16463507719
16463515592
16463523527
16463531705
16463538846
16463548490
16463556913
16463567228
16463575712
16463584317
16463591703
16463599393
16463607450
16463614774
16463623014
16463631253
16463638578
16463647306
16463655057
16463662625
16463670682
16463677701
16463685819
16463693204
16463701016
16463709439
16463717923
16463724942
16463732327
16463739224
16463748257
16463755093
16463763211
16463772366
16463781094
16463787503
16463795682
16463802701
16463811368
16463821622
16463828152
16463836941
16463845181
16463851224
16463859219
16463868435
16463875943
16463886929
16463894558
16463903042
16463912930
16463921231
16463928311
16463937161
16463945950
16463954678
16463961209
16463971462
16463977444
16463985928
16463995144
16464002957
16464010769
16464019741
16464025478
16464035061
16464043362
16464050869
16464054958
16464061123
16464066921
16464073879
16464077846
16464085537
16464090969
16464097439
16464102260
16464108486
16464114834
16464120510
16464126369
16464131496
16464137600
16464141567
16464147304
16464152004
16464155910
16464160305
16464165432
16464169094
16464175808
16464182155
16464186000
16464190944
16464196010
16464200771
16464205654
16464210231
16464215541
16464221340
16464225002
16464230190
16464234462
16464238246
16464242763
16464246852
16464251918
16464257411
16464261562
16464268398
16464272914
16464277736
16464282314
16464287502
16464291530
16464295131
16464300502
16464304347
16464309841
16464314784
16464319606
16464325404
16464329738
16464334377
16464339381
16464343288
16464348354
16464352199
16464359035
16464363490
16464369716
16464374355
16464378749
16464383388
16464387782
16464393947
16464399562
16464405788
16464411708
16464416530
16464421351
16464428004
16464433070
16464440883
16464446864
16464451869
16464458400
16464463710
16464468898
16464473719
16464480006
16464485926
16464491542
16464496547
16464501857
16464508265
16464513087
16464518580
16464523402
16464529567
16464536036
16464542140
16464546839
16464552516
16464557887
16464563624
16464569483
16464575282
16464582728
16464593226
16464598841
16464603297
16464609461
16464613917
16464619349
16464625636
16464634669
16464640589
16464645289
16464649805
16464654688
16464659083
16464664027
16464669031
16464673792
16464679041
16464683924
16464688441
16464693323
16464698389
16464702845
16464710474
16464715235
16464721766
16464727930
16464733668
16464737391
16464743677
16464749293
16464755274
16464762232
16464767664
16464772425
16464778894
16464783716
16464789270
16464794886
16464800379
16464805384
16464810633
16464815271
16464821253
16464827906
16464832178
16464838953
16464844385
16464851465
16464855982
16464860742
16464866175
16464873682
16464877466
16464885034
16464891504
16464897302
16464901453
16464907739
16464914697
16464919153
16464925745
16464931116
16464935815
16464942651
16464948633
16464953760
16464962122
16464967310
16464973657
16464978479
16464984521
16464990137
16464996728
16465004419
16465010339
16465014917
16465021936
16465027124
16465033044
16465038354
16465043969
16465050073
16465056543
16465061792
16465067651
16465073755
16465079248
16465085046
16465089502
16465095605
16465101587
16465108483
16465112024
16465119226
16465124475
16465130090
16465136254
16465141931
16465149011
16465154443
16465161035
16465168115
16465176904
16465183618
16465190698
16465194238
16465204064
16465210961
16465216271
16465222436
16465227563
16465234887
16465240624
16465247033
16465254479
16465260339
16465267113
16465272912
16465276452
16465281701
16465288720
16465293481
16465299828
16465307030
16465313012
16465317589
16465323205
16465327355
16465334130
16465339562
16465342980
16465352257
16465358117
16465363427
16465368615
16465371544
16465377892
16465382286
16465387902
16465396019
16465401574
16465406273
16465412621
16465416710
16465423058
16465427208
16465431786
16465438683
16465443993
16465450768
16465454918
16465460839
16465465294
16465471764
16465476647
16465481774
16465487938
16465493736
16465499413
16465504540
16465508873
16465516441
16465520836
16465526756
16465532616
16465538841
16465545067
16465551109
16465555626
16465561668
16465566856
16465571617
16465579307
16465585289
16465590050
16465595055
16465601646
16465607689
16465612633
16465617332
16465623680
16465631431
16465637718
16465643455
16465648643
16465653160
16465659263
16465665428
16465671104
16465677879
16465683799
16465689415
16465693992
16465698387
16465705101
16465709983
16465715354
16465723594
16465730064
16465734581
16465741294
16465745689
16465751304
16465758323
16465764182
16465769737
16465776512
16465783836
16465789451
16465796714
16465801353
16465807578
16465813010
16465819541
16465825645
16465832786
16465838279
16465842979
16465847129
16465853660
16465859458
16465865684
16465871848
16465877280
16465883201
16465888267
16465892661
16465899070
16465903525
16465908958
16465914145
16465919761
16465925254
16465930503
16465935203
16465940391
16465946250
16465952414
16465959067
16465965964
16465970725
16465976584
16465983359
16465987387
16465993918
16465999900
16466003501
16466011924
16466016379
16466023337
16466027854
16466032614
16466039694
16466044211
16466051779
16466057273
16466063071
16466069235
16466074362
16466078330
16466085898
16466090720
16466096884
16466102622
16466108542
16466114279
16466120627
16466125754
16466131369
16466138510
16466143027
16466149008
16466156088
16466160849
16466167746
16466170859
16466177634
16466182211
16466186911
16466196921
16466203329
16466209677
16466215841
16466220907
16466226645
16466231344
16466237265
16466242941
16466248800
16466254416
16466258566
16466263815
16466269430
16466275778
16466281271
16466289328
16466294699
16466300375
16466308310
16466316122
16466321188
16466330709
16466339010
16466347128
16466354513
16466363302
16466370382
16466379110
16466385214
16466398458
16466405660
16466414877
16466422323
16466433675
16466440816
16466449545
16466455770
16466466024
16466472616
16466483297
16466487813
16466497945
16466505880
16466512533
16466517537
16466523214
16466531270
16466536580
16466540914
16466546468
16466552938
16466558675
16466564657
16466569844
16466575521
16466580526
16466587423
16466592794
16466599996
16466606343
16466612081
16466617818
16466624715
16466630147
16466635945
16466641255
16466647420
16466655049
16466659383
16466666829
16466671590
16466677510
16466683675
16466689290
16466694722
16466702413
16466708211
16466715108
16466721639
16466727315
16466733418
16466739278
16466744710
16466749409
16466756367
16466763936
16466768819
16466776021
16466781880
16466787617
16466793111
16466798115
16466805684
16466812276
16466818318
16466823811
16466830830
16466837300
16466843525
16466846943
16466854451
16466860737
16466867817
16466872944
16466878193
16466883686
16466890889
16466896809
16466902119
16466910237
16466915242
16466921406
16466927876
16466934284
16466937641
16466945515
16466951069
16466958760
16466963947
16466970783
16466975666
16466981403
16466988606
16466994221
16467000324
16467006245
16467013203
16467019672
16467027363
16467034687
16467039753
16467045734
16467054768
16467060749
16467067707
16467079121
16467087543
16467097736
16467110920
16467120075
16467128498
16467137470
16467144245
16467151142
16467159626
16467169025
16467178363
16467186420
16467194721
16467202472
16467207843
16467215290
16467221759
16467230121
16467235126
16467239398
16467246356
16467252887
16467256366
16467263629
16467268573
16467275958
16467281146
16467286823
16467293231
16467298358
16467303058
16467308734
16467314105
16467320758
16467324054
16467332660
16467338824
16467344318
16467349200
16467355304
16467360126
16467366962
16467373736
16467380084
16467384357
16467391009
16467395526
16467402667
16467407489
16467412738
16467419513
16467424701
16467432086
16467437030
16467443499
16467448626
16467453692
16467458758
16467466693
16467473224
16467478595
16467483783
16467489520
16467495013
16467500628
16467505206
16467511004
16467516864
16467523822
16467528338
16467535296
16467539752
16467545062
16467551592
16467556231
16467564654
16467571368
16467576983
16467583331
16467589007
16467593462
16467599078
16467605486
16467611956
16467617449
16467623797
16467629473
16467633929
16467641192
16467646136
16467651202
16467657732
16467667498
16467671831
16467679034
16467685992
16467690935
16467697832
16467703325
16467707537
16467714434
16467720598
16467729021
16467733477
16467740618
16467746965
16467754351
16467760881
16467764971
16467775164
16467781389
16467786333
16467791460
16467799089
16467804155
16467811052
16467816057
16467824907
16467830522
16467836016
16467842546
16467848223
16467853044
16467858721
16467864275
16467870867
16467876970
16467883318
16467889116
16467894182
16467899492
16467905534
16467910112
16467917314
16467923784
16467928117
16467933427
16467939836
16467946489
16467951494
16467957170
16467964067
16467969499
16467976518
16467982316
16467988237
16467993425
16467998613
16468004716
16468010698
16468015092
16468022905
16468028947
16468034746
16468039384
16468045366
16468051591
16468055986
16468062333
16468067277
16468073137
16468079850
16468084489
16468089677
16468096147
16468101762
16468107194
16468113237
16468120256
16468126298
16468132402
16468136796
16468141496
16468148210
16468153031
16468159928
16468166764
16468170365
16468177384
16468182450
16468188920
16468193253
16468200028
16468204484
16468212235
16468218034
16468224503
16468229874
16468235917
16468242448
16468248673
16468257706
16468263810
16468271012
16468277543
16468281022
16468289323
16468294938
16468298478
16468307145
16468312760
16468318558
16468325394
16468331070
16468336380
16468343216
16468349015
16468354081
16468358597
16468365799
16468373124
16468382523
16468388077
16468397293
16468403153
16468408646
16468413895
16468423600
16468433121
16468440323
16468446243
16468450699
16468456436
16468462662
16468467423
16468476578
16468482987
16468488785
16468494339
16468499283
16468505508
16468510269
16468516068
16468521683
16468529068
16468533707
16468539566
16468544754
16468550796
16468556168
16468562027
16468569290
16468575638
16468580948
16468586319
16468591446
16468597671
16468603531
16468608841
16468613235
16468618850
16468627395
16468633133
16468637222
16468641739
16468649246
16468654007
16468660232
16468666336
16468672195
16468679275
16468684890
16468691360
16468697219
16468702957
16468708328
16468714492
16468719985
16468726089
16468732009
16468737808
16468742996
16468748489
16468753005
16468759353
16468765029
16468772292
16468776809
16468783645
16468788162
16468794021
16468800918
16468806350
16468813064
16468820571
16468826675
16468832290
16468837417
16468842239
16468848525
16468854568
16468860793
16468867202
16468875136
16468880019
16468887099
16468893081
16468898696
16468903945
16468910293
16468916579
16468922805
16468928481
16468934096
16468937331
16468944594
16468950759
16468954421
16468961989
16468968581
16468973830
16468978530
16468985671
16468991713
16468997329
16469003615
16469010451
16469017836
16469025283
16469028823
16469036452
16469043166
16469050185
16469057143
16469063918
