16053219401
16053225932
16053230998
16053236613
16053241679
16053246928
16053252421
16053258036
16053262858
16053268717
16053274272
16053278727
16053283244
16053287638
16053292582
16053297099
16053302592
16053306925
16053312358
16053317851
16053322611
16053327555
16053335063
16053340861
16053345744
16053350138
16053355448
16053361796
16053366496
16053371989
16053376078
16053381022
16053385844
16053391337
16053396464
16053400858
16053406290
16053411295
16053417094
16053422221
16053427531
16053433207
16053437296
16053443033
16053447428
16053452799
16053459574
16053464701
16053468546
16053475443
16053480997
16053484964
16053489359
16053493937
16053499491
16053504862
16053510843
16053516275
16053521036
16053525919
16053530252
16053534403
16053539347
16053545084
16053549906
16053553934
16053559915
16053565409
16053569315
16053573709
16053578653
16053582498
16053587992
16053593851
16053598490
16053603555
16053610147
16053614481
16053620828
16053628885
16053634989
16053642923
16053648172
16053656229
16053662088
16053669107
16053674722
16053682962
16053689127
16053694131
16053703226
16053710001
16053716409
16053723001
16053732583
16053737955
16053745157
16053750589
16053758340
16053763894
16053769754
16053775857
16053783426
16053789956
16053798074
16053806253
16053813699
16053819802
16053825845
16053833352
16053839517
16053846048
16053852578
16053860818
16053866311
16053872476
16053879739
16053885232
16053891091
16053898599
16053904336
16053911416
16053917214
16053922769
16053929543
16053935586
16053943276
16053951211
16053956521
16053964639
16053972207
16053981606
16053988442
16053995156
16054002907
16054011208
16054020730
16054027199
16054036172
16054042702
16054050698
16054057595
16054064919
16054071206
16054078835
16054084816
16054091591
16054097695
16054103310
16054110756
16054116127
16054124428
16054131081
16054138955
16054143959
16054150917
16054156716
16054161293
16054169655
16054177468
16054183510
16054188759
16054195656
16054201515
16054207741
16054214821
16054220986
16054229591
16054235451
16054241127
16054248879
16054253761
16054261391
16054266274
16054274696
16054280922
16054290199
16054296669
16054302772
16054311012
16054317055
16054323646
16054330177
16054338051
16054345009
16054353370
16054359535
16054367225
16054373390
16054379188
16054388160
16054394569
16054401161
16054407997
16054415931
16054421974
16054429725
16054437110
16054444496
16054452674
16054459327
16054467384
16054473609
16054480079
16054487953
16054494666
16054502418
16054511268
16054517860
16054525062
16054531715
16054539466
16054545753
16054553870
16054560889
16054571998
16054579993
16054586951
16054595924
16054601417
16054608375
16054618629
16054625953
16054633826
16054638831
16054643775
16054649146
16054654090
16054660926
16054665076
16054670936
16054676001
16054682654
16054689978
16054699683
16054707129
16054713660
16054718665
16054723731
16054729346
16054733619
16054738990
16054743384
16054747779
16054752539
16054758399
16054763343
16054768164
16054774207
16054780310
16054785132
16054789832
16054797095
16054802588
16054808325
16054813635
16054818335
16054823767
16054830359
16054836646
16054842932
16054848242
16054852515
16054857459
16054862158
16054866919
16054872412
16054877966
16054886755
16054893103
16054898291
16054900793
16054906653
16054911230
16054916357
16054925696
16054931616
16054936377
16054941260
16054946142
16054951208
16054956030
16054960913
16054966589
16054972998
16054978796
16054983618
16054987951
16054992102
16054997351
16055003027
16055008093
16055015295
16055019384
16055024267
16055028601
16055032995
16055038305
16055044714
16055050024
16055055517
16055060156
16055065161
16055070227
16055074926
16055080847
16055088171
16055094702
16055099951
16055104406
16055109716
16055114477
16055119848
16055125280
16055130590
16055135717
16055140844
16055146703
16055150549
16055157690
16055163427
16055171728
16055178197
16055184301
16055190160
16055194433
16055209569
16055218236
16055223669
16055231115
16055237951
16055243505
16055247289
16055252599
16055259069
16055263891
16055268651
16055274816
16055279577
16055285863
16055291600
16055296117
16055301732
16055307836
16055315038
16055319799
16055325902
16055331395
16055335729
16055341954
16055347997
16055353795
16055359410
16055364720
16055370641
16055376500
16055382665
16055388158
16055392674
16055400365
16055406651
16055413548
16055419835
16055425816
16055431859
16055437291
16055443150
16055451390
16055456944
16055462437
16055467625
16055473119
16055479161
16055484532
16055491917
16055498082
16055503209
16055508702
16055513524
16055520543
16055525487
16055530858
16055537022
16055543736
16055549290
16055555150
16055560277
16055565403
16055569615
16055577549
16055582982
16055589390
16055595005
16055600682
16055605931
16055611424
16055616978
16055621922
16055630284
16055636998
16055641880
16055649388
16055653721
16055660252
16055666416
16055673191
16055681431
16055691441
16055698582
16055706211
16055717808
16055724949
16055733433
16055744968
16055752110
16055761570
16055771763
16055781345
16055789280
16055793858
16055804539
16055810825
16055821567
16055829319
16055836643
16055844211
16055852939
16055861301
16055867710
16055877964
16055885959
16055893467
16055900852
16055908847
16055917270
16055925388
16055934482
16055940952
16055950290
16055958347
16055965244
16055973484
16055980564
16055989108
16055997043
16056004123
16056012241
16056021274
16056028720
16056037021
16056044345
16056051425
16056061496
16056068698
16056077304
16056084567
16056092868
16056101352
16056107516
16056115268
16056123447
16056130160
16056139926
16056148532
16056153720
16056163241
16056171908
16056179232
16056187289
16056194857
16056203280
16056210971
16056218051
16056226107
16056233004
16056241244
16056250460
16056256747
16056267001
16056274996
16056282321
16056290560
16056296908
16056305453
16056313143
16056320223
16056331210
16056336825
16056347262
16056354037
16056362154
16056368929
16056377169
16056384310
16056392550
16056400423
16056408419
16056416964
16056425387
16056433321
16056438448
16056447909
16056456453
16056464388
16056473177
16056480867
16056487154
16056495272
16056502901
16056511568
16056518648
16056526827
16056537447
16056545381
16056551912
16056561190
16056567903
16056591097
16056600496
16056611055
16056622102
16056629732
16056636995
16056644380
16056650484
16056659456
16056667451
16056674165
16056681795
16056687593
16056696504
16056701997
16056708711
16056719758
16056726900
16056734102
16056740816
16056747529
16056755891
16056762788
16056770112
16056776216
16056785249
16056791902
16056797883
16056806001
16056812104
16056818696
16056826142
16056837251
16056843293
16056851411
16056859345
16056866731
16056874238
16056881623
16056890656
16056897431
16056906587
16056913972
16056921052
16056932038
16056936677
16056949006
16056957124
16056964509
16056972504
16056980195
16056990937
16056999238
16057004914
16057013459
16057020844
16057029084
16057036469
16057043610
16057051240
16057060334
16057068390
16057075654
16057085724
16057094086
16057101838
16057108246
16057114777
16057121247
16057129792
16057134980
16057141144
16057146515
16057150421
16057155304
16057161225
16057166168
16057172150
16057177765
16057182953
16057185700
16057191681
16057201630
16057206940
16057212616
16057216705
16057222504
16057227692
16057231964
16057237213
16057244659
16057250580
16057257538
16057265717
16057272736
16057278778
16057286102
16057292145
16057297394
16057301910
16057306976
16057312958
16057317779
16057322845
16057327667
16057335113
16057339386
16057343963
16057349334
16057354156
16057359222
16057365020
16057370880
16057377227
16057383392
16057389618
16057395782
16057400055
16057405975
16057412750
16057419708
16057423431
16057430999
16057436981
16057442596
16057448333
16057454742
16057458587
16057463897
16057470611
16057475860
16057481964
16057487335
16057493133
16057498626
16057503936
16057510528
16057517242
16057522979
16057528472
16057533660
16057540496
16057546233
16057550811
16057557098
16057562530
16057568328
16057571441
16057577972
16057583709
16057589080
16057593963
16057599456
16057604705
16057611846
16057618560
16057624358
16057629485
16057633025
16057639617
16057643950
16057650115
16057657500
16057664092
16057669341
16057675383
16057682097
16057688079
16057693572
16057699126
16057705657
16057711760
16057717192
16057722564
16057727507
16057734160
16057738555
16057743254
16057750090
16057757476
16057763152
16057768828
16057773284
16057778411
16057783599
16057789519
16057794951
16057801360
16057807402
16057812651
16057818999
16057825407
16057832976
16057842802
16057853850
16057863127
16057878935
16057887602
16057893645
16057902556
16057910612
16057915800
16057925505
16057930754
16057939299
16057947233
16057953215
16057960844
16057966398
16057972380
16057982389
16057991362
16057997770
16058006193
16058012419
16058018339
16058026579
16058034452
16058042570
16058050016
16058056120
16058065153
16058074796
16058080961
16058088102
16058097929
16058103483
16058112760
16058118559
16058125578
16058135526
16058144254
16058149931
16058160917
16058166410
16058174772
16058182096
16058188810
16058193815
16058202054
16058210782
16058220304
16058226346
16058235441
16058242704
16058247342
16058258329
16058266935
16058275419
16058283658
16058294217
16058300870
16058306729
16058314725
16058322049
16058329801
16058336270
16058340848
16058351834
16058361844
16058369412
16058379056
16058385831
16058392178
16058399686
16058407681
16058416287
16058423550
16058429959
16058441251
16058447293
16058455838
16058462430
16058471280
16058478482
16058485074
16058489651
16058501614
16058513455
16058526089
16058536770
16058543179
16058553982
16058564724
16058575955
16058585415
16058592678
16058603787
16058618008
16058629971
16058637600
16058649746
16058658901
16058670681
16058676968
16058690212
16058701748
16058715176
16058726772
16058735500
16058747402
16058756618
16058768032
16058774197
16058786526
16058797695
16058807644
16058823025
16058833523
16058845302
16058854763
16058867519
16058883266
16058893032
16058905727
16058915371
16058923366
16058933864
16058943141
16058953517
16058961757
16058971828
16058983547
16058994655
16059004482
16059014674
16059022670
16059032558
16059042018
16059052394
16059062404
16059072230
16059086635
16059093959
16059104091
16059114772
16059122523
16059135035
16059148707
16059161036
16059169642
16059180629
16059189662
16059199733
16059208216
16059215358
16059223292
16059231776
16059239588
16059247340
16059253932
16059260523
16059269251
16059274745
16059283778
16059292567
16059297389
16059307093
16059315028
16059322474
16059329066
16059336451
16059346705
16059353236
16059363184
16059370814
16059379481
16059386622
16059395472
16059403345
16059410792
16059422022
16059430506
16059438501
16059447657
16059455103
16059465235
16059473597
16059481104
16059489100
16059496485
16059504908
16059512537
16059520899
16059528528
16059536646
16059543909
16059552454
16059559656
16059567652
16059576196
16059583399
16059589929
16059600671
16059607813
16059618005
16059625391
16059633386
16059644922
16059651575
16059659448
16059666467
16059675073
16059682703
16059695459
16059705163
16059712854
16059723901
16059731408
16059738489
16059745752
16059752343
16059760034
16059768884
16059774438
16059782861
16059789819
16059796228
16059803918
16059811364
16059821313
16059828820
16059836083
16059844628
16059851708
16059858666
16059867028
16059877404
16059884789
16059893212
16059899987
16059907494
16059915795
16059922143
16059929223
16059939355
16059946191
16059952843
16059958459
16059967248
16059974694
16059983300
16059993737
16060002343
16060009484
16060017663
16060026208
16060034325
16060041649
16060046410
16060053978
16060060265
16060065636
16060071801
16060077172
16060083641
16060089562
16060094384
16060101647
16060108055
16060114708
16060119286
16060124962
16060129601
16060135338
16060141320
16060145775
16060152977
16060157860
16060163414
16060168907
16060173302
16060178673
16060184349
16060190575
16060196129
16060202660
16060207787
16060213707
16060219872
16060224510
16060231895
16060236046
16060241051
16060246544
16060252830
16060258507
16060262901
16060269005
16060276390
16060281578
16060286705
16060294029
16060299766
16060305687
16060310509
16060316246
16060323997
16060329735
16060338279
16060345360
16060353660
16060360801
16060367332
16060373497
16060379844
16060384788
16060390831
16060396019
16060401634
16060406578
16060412986
16060418113
16060422813
16060429710
16060434715
16060439659
16060444114
16060450889
16060455223
16060461204
16060467979
16060474021
16060479575
16060485679
16060490196
16060496543
16060502158
16060508201
16060513999
16060521445
16060526878
16060532676
16060539146
16060547874
16060553123
16060559043
16060566611
16060570579
16060580772
16060585959
16060590781
16060596152
16060603660
16060609458
16060614768
16060623130
16060628074
16060632895
16060638999
16060644309
16060651511
16060657431
16060662070
16060669944
16060674826
16060681357
16060687339
16060692893
16060698813
16060705954
16060709800
16060717307
16060722617
16060728537
16060733786
16060741599
16060746726
16060753012
16060758811
16060767111
16060772177
16060778281
16060784262
16060790427
16060796591
16060802573
16060808676
16060814597
16060820761
16060826926
16060832602
16060838034
16060844077
16060849692
16060857687
16060863730
16060871054
16060877157
16060884238
16060889975
16060897055
16060902548
16060908102
16060913534
16060920187
16060926901
16060933066
16060938498
16060944601
16060951071
16060956259
16060962851
16060970419
16060979757
16060987814
16060994162
16061002340
16061007650
16061013327
16061017111
16061023458
16061028097
16061032980
16061037069
16061042257
16061047994
16061051290
16061055685
16061060140
16061067037
16061071798
16061076559
16061082052
16061086691
16061091696
16061096456
16061101949
16061107504
16061112325
16061119711
16061125448
16061131612
16061137167
16061142538
16061150228
16061155355
16061161520
16061165304
16061169759
16061173788
16061179525
16061187093
16061191488
16061196187
16061200460
16061205160
16061209310
16061214681
16061222677
16061230916
16061237081
16061244039
16061252584
16061258504
16061264425
16061273824
16061281514
16061288655
16061296468
16061303426
16061310872
16061317586
16061325215
16061332173
16061341695
16061348897
16061355306
16061362020
16061369588
16061376058
16061380086
16061389546
16061396626
16061404500
16061411641
16061419881
16061426595
16061433430
16061443623
16061452412
16061459920
16061468587
16061477437
16061486958
16061494954
16061501668
16061509968
16061514851
16061523945
16061532063
16061537007
16061547322
16061556660
16061565144
16061572468
16061581807
16061591999
16061603779
16061616413
16061624470
16061630879
16061637776
16061644306
16061651203
16061658283
16061666340
16061674030
16061680866
16061687153
16061695332
16061701252
16061708088
16061716511
16061724262
16061732441
16061740009
16061747456
16061754536
16061762348
16061770100
16061777424
16061785724
16061799213
16061807880
16061815265
16061821125
16061827533
16061835651
16061843952
16061851703
16061857868
16061862934
16061871112
16061877033
16061882892
16061892047
16061899921
16061906757
16061913959
16061921649
16061928485
16061936176
16061943927
16061953205
16061960346
16061966937
16061973956
16061982807
16061990253
16061997333
16062004230
16062013263
16062021259
16062029376
16062037067
16062042743
16062051532
16062056842
16062066669
16062073260
16062080096
16062086932
16062094623
16062100299
16062107806
16062114703
16062124530
16062133380
16062138995
16062146930
16062154010
16062162677
16062170489
16062178057
16062186419
16062197650
16062205645
16062214251
16062222247
16062231463
16062238543
16062247759
16062254595
16062263873
16062271014
16062278277
16062286517
16062292986
16062300311
16062308978
16062318743
16062326128
16062338152
16062346697
16062354754
16062362383
16062369402
16062378130
16062386126
16062394060
16062401385
16062407732
16062414751
16062421343
16062428789
16062435320
16062442766
16062449358
16062457354
16062465105
16062472368
16062478960
16062486101
16062493364
16062501482
16062509478
16062515581
16062523271
16062526872
16062531450
16062536333
16062541704
16062547869
16062550737
16062557817
16062562578
16062568071
16062573686
16062578325
16062583574
16062589311
16062593950
16062599870
16062605791
16062610857
16062617143
16062621172
16062626360
16062631548
16062636797
16062642168
16062648027
16062652299
16062657365
16062662492
16062668352
16062675249
16062681230
16062685441
16062689714
16062694230
16062699846
16062704545
16062709550
16062716325
16062722490
16062728349
16062732072
16062738786
16062743303
16062747941
16062753495
16062758805
16062763932
16062769059
16062773881
16062779740
16062785478
16062790300
16062795426
16062800309
16062805925
16062812211
16062816911
16062822404
16062827592
16062833451
16062838700
16062843522
16062850541
16062855241
16062861833
16062867570
16062873490
16062878373
16062884843
16062891496
16062896989
16062902543
16062908097
16062914262
16062920304
16062924516
16062933427
16062939347
16062947648
16062954056
16062959916
16062964982
16062970414
16062974991
16062979447
16062986466
16062990494
16062998429
16063002823
16063008317
16063013566
16063019486
16063024552
16063029984
16063036210
16063039322
16063046891
16063052262
16063057206
16063063004
16063068009
16063073502
16063080094
16063085160
16063091141
16063097428
16063102372
16063107315
16063114273
16063120011
16063123978
16063130570
16063134537
16063140457
16063146256
16063152664
16063158707
16063163284
16063168289
16063175003
16063180069
16063186417
16063193314
16063198624
16063204910
16063209854
16063214249
16063220169
16063226456
16063232132
16063237503
16063242935
16063248184
16063252823
16063258987
16063265030
16063268326
16063275345
16063282059
16063286636
16063293350
16063298904
16063303726
16063308609
16063313675
16063320450
16063326614
16063331863
16063337600
16063342605
16063348037
16063353836
16063359817
16063365554
16063370254
16063377151
16063383133
16063389480
16063395584
16063401016
16063406082
16063411514
16063418655
16063425064
16063432327
16063437759
16063443435
16063449722
16063455154
16063461074
16063468215
16063474563
16063480789
16063487808
16063492385
16063497329
16063504348
16063510024
16063514297
16063521621
16063528457
16063534988
16063541396
16063552444
16063557876
16063564284
16063569900
16063574538
16063579909
16063584548
16063590224
16063594802
16063599807
16063604384
16063610061
16063615004
16063619277
16063624648
16063630629
16063636184
16063641188
16063646193
16063651076
16063656569
16063662062
16063667067
16063671706
16063677260
16063683303
16063690810
16063698134
16063706557
16063714308
16063722060
16063731276
16063736403
16063747206
16063752333
16063761672
16063769301
16063776930
16063784499
16063795058
16063800856
16063808852
16063817274
16063825758
16063832594
16063841444
16063849684
16063857741
16063865309
16063873793
16063881422
16063889357
16063896071
16063903761
16063911574
16063919874
16063928541
16063936781
16063941053
16063949537
16063957228
16063964125
16063971571
16063980848
16063988417
16063995619
16064005812
16064011671
16064019422
16064044142
16064051283
16064059339
16064065870
16064073255
16064080763
16064087476
16064095106
16064102552
16064110731
16064119337
16064125562
16064133009
16064139967
16064148084
16064155653
16064165540
16064171338
16064178663
16064187513
16064194776
16064202649
16064209974
16064216810
16064224012
16064232435
16064239698
16064247693
16064276258
16064285657
16064294751
16064299085
16064308911
16064315869
16064322034
16064330762
16064337049
16064343579
16064350720
16064357678
16064365979
16064373364
16064379224
16064388318
16064395398
16064404187
16064409070
16064418957
16064426160
16064432996
16064439831
16064447400
16064455456
16064462842
16064469678
16064476575
16064482434
16064489575
16064496472
16064504529
16064511059
16064518750
16064524914
16064532238
16064539868
16064547009
16064553967
16064561352
16064568249
16064574414
16064583386
16064588696
16064595410
16064603344
16064612072
16064619396
16064626232
16064633496
16064642468
16064650402
16064658520
16064664013
16064674877
16064679821
16064687267
16064697399
16064705395
16064712902
16064722607
16064729137
16064736217
16064745129
16064751049
16064758312
16064768505
16064776623
16064785900
16064790783
16064801098
16064808971
16064816112
16064823314
16064831066
16064839306
16064847301
16064855541
16064864452
16064871776
16064879406
16064887157
16064894786
16064902477
16064909252
16064916881
16064925060
16064933910
16064941295
16064949169
16064957774
16064963878
16064972484
16064980541
16064988841
16064997142
16065003978
16065012950
16065023692
16065032848
16065040782
16065049876
16065058971
16065066539
16065074290
16065082225
16065089915
16065095530
16065101573
16065107371
16065112925
16065116832
16065122508
16065128062
16065131968
16065139964
16065145152
16065150340
16065155650
16065161998
16065167857
16065173106
16065178111
16065183726
16065188609
16065194590
16065199961
16065208201
16065215037
16065220286
16065225718
16065233225
16065238658
16065243784
16065248789
16065253489
16065259409
16065264781
16065270396
16065274851
16065281138
16065285105
16065292063
16065297800
16065302988
16065308726
16065314158
16065318919
16065324046
16065329233
16065333750
16065339426
16065345530
16065351755
16065355845
16065364023
16065369883
16065377939
16065384226
16065388498
16065400278
16065418039
16065428354
16065436533
16065446299
16065455210
16065462534
16065470530
16065479502
16065488047
16065494272
16065499216
16065504587
16065509531
16065514353
16065519602
16065525827
16065531076
16065536814
16065542429
16065548227
16065553415
16065558603
16065564096
16065570993
16065576303
16065583017
16065588144
16065592844
16065597421
16065602792
16065609628
16065617136
16065622324
16065626962
16065634042
16065639596
16065647409
16065652963
16065658822
16065664499
16065669748
16065675363
16065680612
16065686166
16065690378
16065694650
16065700876
16065705392
16065710702
16065715158
16065720895
16065724740
16065728524
16065733102
16065739450
16065745126
16065749276
16065752938
16065757638
16065760568
16065766122
16065770639
16065776193
16065783395
16065787179
16065791757
16065797067
16065802621
16065808297
16065814523
16065820199
16065824594
16065830941
16065834359
16065838937
16065844064
16065850350
16065857552
16065862496
16065868600
16065873971
16065878854
16065885384
16065891488
16065897103
16065901803
16065907967
16065912606
16065919076
16065924752
16065930367
16065936654
16065942696
16065948067
16065954171
16065960091
16065965157
16065970528
16065979622
16065985604
16065989022
16065996285
16066001839
16066005806
16066012520
16066017830
16066024666
16066031258
16066036690
16066043038
16066050179
16066055184
16066062508
16066068001
16066075936
16066082527
16066087654
16066093697
16066099251
16066104195
16066110176
16066114693
16066121712
16066128182
16066134468
16066140389
16066146736
16066152596
16066158821
16066165535
16066173592
16066179390
16066187141
16066193916
16066200752
16066207039
16066212959
16066217720
16066225593
16066231758
16066238289
16066246651
16066253242
16066261909
16066269356
16066276192
16066284614
16066291450
16066299019
16066305732
16066312507
16066323982
16066331611
16066339058
16066346748
16066354194
16066360603
16066367866
16066375556
16066382087
16066387397
16066396858
16066403511
16066411384
16066417243
16066426948
16066433662
16066439033
16066446052
16066454841
16066465034
16066471687
16066480537
16066486213
16066493293
16066500129
16066507880
16066515754
16066524299
16066532477
16066539558
16066547004
16066555305
16066563544
16066571235
16066578010
16066586677
16066595466
16066602179
16066611030
16066618903
16066625129
16066633979
16066641364
16066647345
16066658454
16066666938
16066671271
16066678595
16066687384
16066695197
16066703192
16066709296
16066717841
16066725592
16066734381
16066742072
16066747931
16066756293
16066765021
16066772162
16066776984
16066787054
16066795599
16066801520
16066809210
16066816840
16066824530
16066832281
16066839117
16066849493
16066856085
16066864691
16066874090
16066882574
16066890082
16066895880
16066904120
16066913092
16066920782
16066929266
16066936407
16066946173
16066952764
16066961798
16066970953
16066979559
16066987310
16066994329
16067001348
16067008489
16067015569
16067022772
16067030584
16067038641
16067046758
16067055181
16067062200
16067069891
16067077276
16067085943
16067093328
16067100896
16067109991
16067115850
16067124334
16067130010
16067136846
16067145757
16067152288
16067158697
16067167303
16067174322
16067179998
16067186895
16067193181
16067201177
16067208867
16067216924
16067224859
16067232915
16067239934
16067246831
16067255010
16067261724
16067269170
16067274480
16067284001
16067291020
16067298345
16067305852
16067314885
16067321172
16067327458
16067333196
16067341313
16067350041
16067357854
16067364629
16067372197
16067379704
16067388432
16067395085
16067404240
16067412846
16067420232
16067426640
16067433842
16067441472
16067449345
16067458989
16067468510
16067475529
16067484440
16067491093
16067497746
16067507878
16067514592
16067521061
16067531254
16067538639
16067547001
16067554509
16067562748
16067570072
16067577885
16067587712
16067596012
16067603947
16067612553
16067620060
16067625797
16067630985
16067637089
16067642155
16067650211
16067658390
16067664249
16067669621
16067676151
16067681644
16067690739
16067701237
16067708439
16067713566
16067719364
16067724979
16067729435
16067734623
16067738346
16067743717
16067747806
16067753422
16067758243
16067762333
16067767643
16067772403
16067777530
16067782596
16067786686
16067793522
16067800602
16067805362
16067810672
16067818729
16067823246
16067828617
16067833438
16067839420
16067845096
16067849674
16067855289
16067860233
16067864749
16067870853
16067875858
16067883243
16067887821
16067892948
16067899356
16067904544
16067909488
16067914737
16067920474
16067927127
16067932376
16067937808
16067942813
16067949527
16067953616
16067960880
16067964969
16067971805
16067976260
16067983218
16067987857
16067995059
16067999026
16068006900
16068011844
16068018985
16068023563
16068029117
16068034976
16068040408
16068046084
16068051944
16068057071
16068063846
16068069949
16068075015
16068081180
16068086368
16068093570
16068101504
16068107058
16068112429
16068119204
16068123965
16068130923
16068136538
16068142703
16068148318
16068154422
16068159182
16068167117
16068172732
16068178286
16068183963
16068191897
16068197451
16068202456
16068212222
16068219546
16068228091
16068235903
16068245120
16068250735
16068255496
16068260867
16068265017
16068271975
16068276980
16068281985
16068288210
16068294802
16068298647
16068305544
16068310183
16068315310
16068321596
16068326296
16068331667
16068336367
16068342776
16068348452
16068354189
16068360048
16068365359
16068369875
16068376894
16068381472
16068386843
16068391848
16068399050
16068405092
16068412294
16068420839
16068425844
16068432558
16068437624
16068443239
16068448061
16068453554
16068459963
16068465334
16068471498
16068477785
16068483827
16068489015
16068494997
16068499758
16068504946
16068511110
16068518739
16068523622
16068531374
16068537904
16068544252
16068549989
16068555177
16068561525
16068566469
16068572389
16068577821
16068585207
16068591554
16068598146
16068603639
16068609010
16068615236
16068621339
16068627260
16068633241
16068638795
16068645753
16068651124
16068655824
16068660829
16068666566
16068673402
16068679445
16068685182
16068690431
16068698671
16068707948
16068715333
16068723146
16068731691
16068740846
16068748841
16068756166
16068764222
16068771363
16068781556
16068789247
16068799073
16068807313
16068827577
16068838014
16068846619
16068853089
16068860169
16068866517
16068873475
16068879823
16068887269
16068893616
16068901612
16068910035
16068917054
16068923829
16068930848
16068939454
16068947693
16068957032
16068963685
16068973450
16068981812
16068989319
16068997254
16069003846
16069012757
16069021058
16069031739
16069037415
16069045349
16069052491
16069063355
16069070618
16069078369
16069086365
16069095276
16069104187
16069114502
16069119568
16069129273
16069134155
16069143372
16069150574
16069161743
16069169251
16069177307
16069182251
16069191772
16069199524
16069207031
16069214783
16069222778
16069230286
16069239441
16069247070
16069254211
16069264343
16069270324
16069279663
16069286743
16069295471
16069305969
16069313049
16069322448
16069332458
16069339843
16069347106
16069354309
16069365356
16069373352
16069382507
16069389343
16069396423
16069404418
16069415649
16069424255
16069431762
16069439819
16069447387
16069455383
16069462707
16069470763
16069477782
16069488586
16069495910
16069503722
16069510619
16069519408
16069526244
16069534240
16069542418
16069550902
16069560058
16069571288
16069579711
16069588500
16069602416
16069608641
16069617247
16069625121
16069634154
16069642211
16069649901
16069658080
16069667113
16069674987
16069687010
16069695738
16069702818
16069710204
16069719969
16069728636
16069736083
16069743773
16069747923
16069756957
16069764403
16069772643
16069779662
16069786497
16069793333
16069802000
16069808531
16069814940
16069824705
16069831846
16069839232
16069845823
16069853636
16069860045
16069867674
16069875303
16069883970
16069890562
16069900511
16069907408
16069915220
16069922422
16069929136
16069938230
16069943174
16069951109
16069959104
16069965940
16069974302
16069982359
16069990232
16069997251
16070004331
16070012083
16070019712
16070028379
16070035520
16070043089
16070049925
16070058653
16070062925
16070070066
16070075864
16070081174
16070087827
16070094358
16070100156
16070106016
16070110593
16070116453
16070121519
16070125608
16070134275
16070138669
16070144040
16070149778
16070154844
16070159971
16070165525
16070170652
16070174375
16070180600
16070186460
16070191282
16070196347
16070202024
16070207456
16070213498
16070218442
16070224118
16070230344
16070235898
16070241086
16070246884
16070252622
16070257077
16070262265
16070268003
16070284177
16070294797
16070297605
16070303952
16070309201
16070314694
16070318845
16070322934
16070326901
16070331296
16070334348
16070339352
16070345212
16070349240
16070352902
16070356747
16070360410
16070365048
16070370297
16070373898
16070378903
16070382993
16070385678
16070390500
16070395566
16070400204
16070406308
16070411191
16070416806
16070422116
16070427182
16070433652
16070438595
16070443661
16070450619
16070456051
16070461484
16070467648
16070473507
16070479367
16070484982
16070489804
16070495114
16070499997
16070505368
16070509945
16070515744
16070520504
16070525570
16070531185
16070537289
16070542172
16070547238
16070552609
16070558712
16070563168
16070567257
16070575558
16070581967
16070588070
16070594357
16070600765
16070606869
16070613033
16070618771
16070625851
16070630062
16070637386
16070642941
16070649410
16070654903
16070660336
16070666378
16070674129
16070677425
16070683102
16070687862
16070693417
16070698482
16070703609
16070710628
16070716061
16070722530
16070726131
16070732235
16070737728
16070742916
16070748226
16070754879
16070760494
16070764766
16070770076
16070776180
16070782772
16070786495
16070794796
16070803402
16070813655
16070817928
16070824215
16070828243
16070833553
16070838924
16070845027
16070849666
16070856380
16070859493
16070865169
16070869197
16070874874
16070878658
16070883602
16070889217
16070895381
16070898555
16070903865
16070909541
16070915279
16070919673
16070924800
16070930354
16070935848
16070940730
16070947566
16070952876
16070958308
16070963252
16070966975
16070973140
16070980098
16070985408
16070991084
16070996883
16071001094
16071006099
16071011897
16071016597
16071023006
16071029597
16071034846
16071040523
16071045955
16071051326
16071057857
16071064265
16071072383
16071079036
16071084956
16071090754
16071095088
16071101924
16071107173
16071113398
16071119075
16071124751
16071130122
16071136653
16071143794
16071151911
16071160823
16071168818
16071177058
16071185053
16071194392
16071202632
16071212641
16071222041
16071230219
16071241206
16071249567
16071258479
16071268122
16071276850
16071285029
16071296564
16071304743
16071312128
16071322077
16071329828
16071338618
16071346430
16071356196
16071364740
16071371943
16071381525
16071390619
16071399530
16071409296
16071417292
16071426325
16071434381
16071443293
16071452082
16071469171
16071478693
16071487787
16071496576
16071506647
16071514337
16071522028
16071528742
16071539301
16071545831
16071553888
16071563837
16071571710
16071579095
16071587335
16071594598
16071604730
16071611200
16071619379
16071627313
16071635675
16071644159
16071651971
16071660638
16071666864
16071676935
16071681939
16071689508
16071698541
16071705743
16071713311
16071723809
16071730950
16071738214
16071746270
16071755426
16071763238
16071771478
16071779534
16071788384
16071796441
16071806390
16071814874
16071821526
16071832330
16071843377
16071851922
16071859612
16071869134
16071877679
16071885003
16071893304
16071900689
16071908318
16071915520
16071922600
16071932549
16071940117
16071947320
16071955559
16071962761
16071975213
16071985405
16071993584
16072001213
16072009087
16072017571
16072023491
16072031304
16072039421
16072049004
16072057305
16072066033
16072074822
16072083672
16072092522
16072100945
16072111748
16072120354
16072127739
16072134148
16072143913
16072152092
16072159660
16072167778
16072176262
16072184441
16072193657
16072202202
16072210258
16072217216
16072225639
16072236259
16072244316
16072251640
16072261406
16072268852
16072276298
16072285515
16072294792
16072312797
16072322258
16072329765
16072337699
16072346794
16072354057
16072364006
16072371757
16072379630
16072389091
16072397514
16072405326
16072414665
16072422355
16072429557
16072437919
16072447623
16072455863
16072463126
16072472221
16072479667
16072487418
16072494559
16072501212
16072512015
16072519767
16072527396
16072533866
16072544120
16072552482
16072560111
16072566520
16072575309
16072585257
16072593131
16072601065
16072607596
16072613639
16072619437
16072626700
16072632987
16072638724
16072644339
16072650077
16072655753
16072661612
16072669303
16072675650
16072682059
16072688040
16072693778
16072700003
16072708121
16072714224
16072719779
16072726187
16072732352
16072738882
16072744376
16072750723
16072756277
16072762320
16072769095
16072774893
16072781302
16072787039
16072792776
16072800162
16072804251
16072811758
16072817923
16072824515
16072830374
16072835745
16072841421
16072846060
16072853811
16072859366
16072866079
16072871817
16072879446
16072882803
16072891104
16072897207
16072903006
16072908194
16072915884
16072923391
16072929800
16072935415
16072941458
16072947622
16072954092
16072959341
16072966726
16072975393
16072980337
16073005056
16073022451
16073027517
16073032217
16073037893
16073042837
16073047536
16073052236
16073058279
16073063467
16073068349
16073072744
16073077688
16073082815
16073088064
16073093740
16073098440
16073103567
16073107961
16073112478
16073118459
16073123464
16073128164
16073132558
16073136098
16073142690
16073148183
16073153432
16073159047
16073163686
16073168935
16073175649
16073181264
16073187368
16073193776
16073199392
16073205922
16073210988
16073215444
16073220815
16073226247
16073230397
16073236501
16073242787
16073247548
16073251638
16073256093
16073261037
16073266713
16073271840
16073277455
16073284108
16073289723
16073295461
16073304006
16073309987
16073314748
16073319447
16073324330
16073330190
16073335622
16073340566
16073346059
16073351430
16073357472
16073362172
16073367970
16073372975
16073378529
16073384083
16073390309
16073395314
16073400624
16073404591
16073410512
16073416676
16073422108
16073427540
16073433583
16073438832
16073444813
16073450490
16073454945
16073461110
16073467457
16073473622
16073479176
16073486012
16073493946
16073501454
16073507862
16073511769
16073517933
16073525746
16073531056
16073536549
16073541249
16073547840
16073552784
16073560230
16073563709
16073568653
16073574085
16073578663
16073583241
16073588246
16073594227
16073599110
16073605763
16073611683
16073618031
16073623890
16073628285
16073633839
16073641041
16073647327
16073652271
16073660511
16073666553
16073676563
16073681568
16073688404
16073692982
16073697071
16073704944
16073710255
16073717151
16073724537
16073731251
16073737903
16073745044
16073751392
16073758106
16073764881
16073771045
16073778919
16073786304
16073792347
16073798328
16073809192
16073817005
16073822864
16073829334
16073836048
16073843433
16073850818
16073856861
16073862415
16073868518
16073875965
16073882068
16073889209
16073894641
16073900379
16073908313
16073913989
16073920032
16073927356
16073934009
16073939258
16073948596
16073956042
16073963428
16073973193
16073980823
16073990832
16073997668
16074005847
16074010608
16074019763
16074025805
16074031787
16074041797
16074049182
16074056201
16074064319
16074071704
16074079150
16074087268
16074094348
16074101733
16074108630
16074117968
16074127978
16074139636
16074147692
16074162707
16074169787
16074179064
16074185595
16074193285
16074201647
16074209216
16074217089
16074224841
16074232775
16074240099
16074247546
16074254443
16074260241
16074269274
16074276354
16074284777
16074291430
16074297350
16074303698
16074309801
16074317064
16074323534
16074330187
16074340441
16074348681
16074356371
16074363024
16074368822
16074375292
16074383165
16074391100
16074397448
16074407091
16074413500
16074418871
16074426500
16074433336
16074440782
16074447618
16074455004
16074461839
16074471910
16074478624
16074485765
16074493273
16074499071
16074505235
16074516222
16074520616
16074533617
16074543382
16074551866
16074564256
16074576402
16074588548
16074602403
16074614671
16074629442
16074639329
16074648973
16074661424
16074670396
16074678636
16074689012
16074697801
16074706895
16074716172
16074728257
16074739305
16074749558
16074759446
16074769517
16074779221
16074792771
16074802903
16074813096
16074823594
16074833054
16074842393
16074851853
16074861069
16074871995
16074881272
16074890183
16074900620
16074908249
16074918809
16074928818
16074941147
16074952317
16074961289
16074973008
16074983078
16074992112
16075001877
16075012314
16075022446
16075030991
16075041367
16075050217
16075059433
16075069931
16075078720
16075087875
16075097153
16075107468
16075116989
16075125595
16075134750
16075145370
16075154709
16075162582
16075172165
16075180038
16075187485
16075197189
16075203903
16075213852
16075220932
16075228256
16075236801
16075243637
16075253158
16075262191
16075269882
16075279281
16075286728
16075292282
16075301925
16075308639
16075316207
16075325180
16075332321
16075343002
16075347274
16075356063
16075365096
16075373641
16075377303
16075387435
16075395004
16075404159
16075411239
16075418380
16075427901
16075437972
16075444686
16075452682
16075458663
16075466354
16075474410
16075482223
16075490401
16075497298
16075505660
16075513778
16075521285
16075529464
16075535689
16075542708
16075551680
16075561141
16075570113
16075577376
16075584761
16075592330
16075599654
16075607466
16075618331
16075626143
16075634200
16075641463
16075649275
16075655867
16075663619
16075670455
16075685835
16075696639
16075708662
16075724165
16075730757
16075739912
16075749190
16075757552
16075765303
16075773543
16075784773
16075791670
16075810042
16075822493
16075830061
16075838728
16075848188
16075856306
16075865767
16075873701
16075882124
16075889814
16075898603
16075907148
16075913740
16075921369
16075929243
16075937300
16075943403
16075948713
16075952131
16075957868
16075963178
16075967024
16075972578
16075977949
16075984297
16075988264
16075992780
16075996626
16076002790
16076006330
16076011457
16076021284
16076028059
16076039106
16076044721
16076050153
16076055952
16076063398
16076067487
16076073286
16076077680
16076082380
16076086896
16076092084
16076096967
16076101606
16076105634
16076111860
16076119062
16076125287
16076131940
16076137433
16076142804
16076147809
16076153302
16076158612
16076163862
16076169049
16076173993
16076178754
16076184491
16076190839
16076195172
16076200605
16076205182
16076211103
16076216474
16076223065
16076228925
16076235822
16076242353
16076249860
16076256696
16076264203
16076268659
16076276532
16076280499
16076286298
16076291119
16076296307
16076301740
16076306256
16076311688
16076316083
16076321698
16076327802
16076333539
16076339581
16076344220
16076350873
16076356000
16076362225
16076366681
16076371869
16076377972
16076385968
16076394818
16076401349
16076410992
16076418255
16076424969
16076432782
16076439312
16076447552
16076456341
16076463055
16076469647
16076476422
16076486065
16076493756
16076500531
16076508038
16076516522
16076523785
16076531170
16076538616
16076544781
16076554241
16076561199
16076569134
16076576946
16076584881
16076593304
16076601177
16076608807
16076616680
16076626202
16076634075
16076642315
16076649822
16076658001
16076665996
16076670635
16076682659
16076689251
16076697185
16076704937
16076712993
16076720623
16076730327
16076738079
16076746013
16076754314
16076762127
16076770122
16076778118
16076786113
16076794109
16076801738
16076811870
16076820903
16076828716
16076837078
16076845195
16076853130
16076861003
16076868633
16076876567
16076885417
16076893413
16076901775
16076909892
16076921001
16076928813
16076937236
16076945354
16076955302
16076963664
16076974040
16076992900
16077000468
16077010722
16077019389
16077029033
16077037272
16077045024
16077052470
16077060344
16077068156
16077075663
16077083293
16077093058
16077097819
16077107524
16077114360
16077122111
16077129252
16077136943
16077145609
16077151164
16077159464
16077166972
16077173930
16077181681
16077188517
16077196085
16077205302
16077212809
16077219828
16077227335
16077235209
16077242716
16077250101
16077256632
16077264445
16077271952
16077281351
16077288309
16077295328
16077302897
16077309611
16077317545
16077324625
16077331766
16077341532
16077348795
16077355692
16077362711
16077370096
16077377665
16077385843
16077395304
16077402811
16077411051
16077418558
16077425272
16077433023
16077440286
16077448587
16077458536
16077465860
16077472635
16077482828
16077489298
16077497965
16077504434
16077515360
16077522623
16077530069
16077537149
16077548013
16077554361
16077562356
16077569742
16077578165
16077587869
16077595132
16077601907
16077610635
16077619607
16077625833
16077634805
16077643167
16077651834
16077659951
16077668313
16077676675
16077684671
16077692849
16077700601
16077705545
16077713723
16077723001
16077732583
16077739846
16077747170
16077756936
16077762612
16077773232
16077782327
16077792519
16077801308
16077810159
16077817239
16077821267
16077826394
16077832497
16077837136
16077844399
16077850930
16077855508
16077861855
16077867776
16077873757
16077879799
16077885171
16077890664
16077896340
16077901772
16077906045
16077911294
16077919167
16077926796
16077930520
16077938942
16077945107
16077950295
16077955605
16077960366
16077964333
16077971169
16077976296
16077981606
16077985085
16077989846
16077995705
16078001442
16078008400
16078013649
16078019264
16078024880
16078029335
16078034950
16078042336
16078048622
16078053383
16078059059
16078064369
16078070168
16078075966
16078082375
16078088539
16078094704
16078099831
16078103615
16078109596
16078116615
16078122963
16078129311
16078134438
16078139503
16078146217
16078151588
16078157753
16078163917
16078170997
16078175392
16078181312
16078187782
16078194435
16078199257
16078205360
16078210853
16078218971
16078225258
16078232399
16078238624
16078243446
16078250160
16078255287
16078261879
16078269203
16078274086
16078279274
16078284339
16078290138
16078297828
16078305946
16078311866
16078318824
16078326026
16078334144
16078341285
16078347694
16078354713
16078361488
16078367469
16078372779
16078383033
16078388587
16078397804
16078405006
16078410926
16078419654
16078423743
16078432655
16078438575
16078444373
16078449561
16078455970
16078461402
16078466224
16078472571
16078480506
16078486182
16078490211
16078495704
16078500525
16078507483
16078513465
16078519385
16078527320
16078532813
16078537879
16078543372
16078549781
16078555701
16078561683
16078567786
16078573401
16078578894
16078583594
16078590735
16078597449
16078602637
16078606970
16078614478
16078620398
16078625708
16078630896
16078638526
16078642737
16078650244
16078654090
16078661841
16078666663
16078673865
16078679114
16078686621
16078692236
16078698706
16078706458
16078712012
16078716956
16078722571
16078730200
16078733801
16078739966
16078748144
16078755286
16078760474
16078765356
16078770544
16078777441
16078782751
16078788367
16078796423
16078802405
16078807654
16078814978
16078820837
16078826147
16078831884
16078837561
16078843603
16078850988
16078855566
16078862646
16078868261
16078874731
16078884130
16078889990
16078898168
16078903479
16078911047
16078918737
16078926672
16078934118
16078942297
16078948522
16078958044
16078965673
16078971410
16078981481
16078987341
16078995886
16079009496
16079020605
16079029577
16079039648
16079049352
16079060705
16079066747
16079075841
16079083959
16079089940
16079098241
16079104406
16079114538
16079120031
16079128942
16079135717
16079143712
16079151952
16079156835
16079168676
16079176183
16079183080
16079189183
16079197240
16079204259
16079212743
16079220006
16079225499
16079233983
16079243199
16079252233
16079262303
16079270543
16079277806
16079285313
16079292516
16079299962
16079304662
16079314427
16079322972
16079331029
16079337926
16079346471
16079353551
16079362279
16079371922
16079381322
16079390172
16079400303
16079408055
16079415257
16079425511
16079433445
16079441929
16079448704
16079459080
16079466343
16079475254
16079483006
16079488438
16079496678
16079503147
16079514256
16079520237
16079529637
16079539646
16079546482
16079554783
16079563877
16079569676
16079578098
16079588047
16079595982
16079603733
16079613010
16079619175
16079629063
16079633518
16079641880
16079650181
16079658848
16079667026
16079672703
16079681797
16079692905
16079700351
16079707065
16079715854
16079724827
16079730808
16079739353
16079747043
16079761997
16079767490
16079776523
16079784580
16079792331
16079800449
16079808628
16079817539
16079827304
16079833347
16079841525
16079851291
16079858859
16079863681
16079872348
16079881076
16079889499
16079896457
16079903049
16079914828
16079923679
16079928378
16079936435
16079945773
16079953769
16079965304
16079975619
16079985263
16079994784
16079999911
16080009250
16080016147
16080022494
16080028109
16080036776
16080040744
16080048495
16080053317
16080058749
16080064181
16080071505
16080075900
16080082492
16080086764
16080093417
16080098544
16080103427
16080109591
16080114840
16080121005
16080126132
16080132479
16080140597
16080146273
16080151827
16080157992
16080163363
16080170077
16080175082
16080182345
16080189120
16080194491
16080199801
16080205355
16080212069
16080217135
16080224581
16080229952
16080235873
16080242159
16080247591
16080253207
16080260287
16080265414
16080272860
16080278963
16080285311
16080291964
16080298922
16080304598
16080310396
16080316073
16080321383
16080328035
16080333345
16080339205
16080346163
16080352022
16080357454
16080362642
16080367525
16080373323
16080381441
16080387484
16080393099
16080398348
16080404268
16080409517
16080415865
16080424776
16080430574
16080435823
16080441316
16080449068
16080454378
16080459932
16080467195
16080478182
16080485628
16080492036
16080499055
16080505342
16080510469
16080516634
16080524324
16080530061
16080535432
16080541231
16080544343
16080552339
16080560274
16080565584
16080573823
16080586397
16080594148
16080600679
16080604463
16080612886
16080618135
16080621797
16080631013
16080636567
16080641572
16080647737
16080650605
16080656831
16080661592
16080667024
16080674165
16080679048
16080684053
16080689607
16080694673
16080699922
16080706208
16080711701
16080717317
16080723237
16080729157
16080736299
16080742158
16080746674
16080755769
16080763032
16080769196
16080775361
16080781037
16080787080
16080793061
16080797700
16080803681
16080810090
16080815949
16080822602
16080827851
16080835114
16080840363
16080844697
16080851899
16080857575
16080864228
16080869843
16080877106
16080883393
16080887848
16080895051
16080900849
16080905793
16080911713
16080918793
16080923310
16080930695
16080936554
16080941803
16080948212
16080959381
16080967011
16080973420
16080978913
16080986115
16080992401
16080998139
16081005829
16081011078
16081016876
16081024201
16081032440
16081036408
16081044159
16081048615
16081057037
16081061859
16081070587
16081075531
16081082977
16081087372
16081093536
16081099457
16081104828
16081110565
16081115326
16081121918
16081129974
16081136017
16081141693
16081148468
16081153961
16081160370
16081166778
16081174164
16081181305
16081189361
16081197784
16081206756
16081215179
16081221832
16081232391
16081238189
16081242828
16081247528
16081252594
16081259063
16081264495
16081272369
16081277374
16081282135
16081287200
16081291778
16081296905
16081302093
16081306915
16081312713
16081318267
16081322784
16081328277
16081333587
16081338592
16081343047
16081347930
16081354583
16081360565
16081365264
16081370513
16081377166
16081382903
16081387969
16081393584
16081400054
16081405791
16081410918
16081417266
16081422393
16081427947
16081433868
16081439300
16081444121
16081449431
16081454131
16081459685
16081465056
16081470916
16081476348
16081482268
16081488860
16081494658
16081500213
16081505462
16081510955
16081516143
16081522368
16081530913
16081537505
16081543303
16081549041
16081554351
16081560271
16081565764
16081571074
16081579375
16081585051
16081588103
16081595488
16081600310
16081606352
16081611235
16081617339
16081623503
16081629668
16081635161
16081641570
16081647063
16081653288
16081658537
16081665190
16081671050
16081676421
16081682341
16081687834
16081693755
16081699614
16081704497
16081711211
16081715544
16081721403
16081727202
16081732024
16081738188
16081744658
16081748991
16081754484
16081760344
16081769133
16081776518
16081783842
16081791105
16081800200
16081805937
16081811735
16081817289
16081822783
16081828642
16081832365
16081837919
16081844999
16081849760
16081854826
16081859770
16081864408
16081869535
16081875456
16081880766
16081886625
16081891813
16081899015
16081905485
16081910856
16081915861
16081920622
16081925566
16081931852
16081936735
16081941435
16081948271
16081953214
16081958219
16081964445
16081969816
16081976896
16081980070
16081988859
16081996183
16082002897
16082008085
16082013761
16082020048
16082024625
16082032438
16082037687
16082044340
16082050565
16082055814
16082061551
16082067289
16082074369
16082081144
16082086393
16082093656
16082100431
16082106717
16082111905
16082117460
16082122281
16082129422
16082135709
16082141996
16082147184
16082152799
16082157254
16082165311
16082170560
16082176358
16082181668
16082186551
16082194486
16082200894
16082205777
16082211148
16082214322
16082221158
16082226102
16082232388
16082238370
16082245938
16082251553
16082256253
16082262112
16082268826
16082273709
16082279202
16082285428
16082291653
16082297757
16082302640
16082309415
16082316373
16082324002
16082332791
16082338406
16082346341
16082355069
16082362942
16082371121
16082380826
16082391324
16082401089
16082411892
16082421902
16082428433
16082444058
16082449612
16082459927
16082468716
16082474636
16082483853
16082491726
16082498135
16082507900
16082516934
16082521023
16082530544
16082538174
16082548428
16082555630
16082563931
16082570034
16082574978
16082588345
16082592434
16082602383
16082609646
16082614407
16082623928
16082629238
16082638454
16082647243
16082656582
16082664882
16082672573
16082681545
16082686428
16082696377
16082705959
16082714870
16082725368
16082731533
16082742275
16082750698
16082757412
16082766201
16082776088
16082782863
16082792201
16082799953
16082809657
16082815517
16082825343
16082833339
16082841762
16082848354
16082857875
16082862575
16082869289
16082882838
16082888087
16082897914
16082905421
16082912196
16082920863
16082928004
16082938380
16082946620
16082953822
16082962123
16082968593
16082978053
16082986903
16082997584
16083004908
16083010829
16083017238
16083028163
16083037379
16083045253
16083052211
16083061183
16083067774
16083076991
16083083644
16083091761
16083100855
16083106959
16083116664
16083122279
16083133448
16083141016
16083148890
16083158839
16083165003
16083173304
16083180140
16083188990
16083197108
16083207362
16083215113
16083221033
16083231043
16083237574
16083243006
16083252039
16083262720
16083271753
16083279749
16083288904
16083297266
16083302698
16083311121
16083321192
16083326685
16083337244
16083343836
16083354944
16083363306
16083372705
16083385523
16083394007
16083405847
16083413843
16083421350
16083430139
16083439905
16083444971
16083453394
16083460596
16083468469
16083475855
16083484155
16083490930
16083499109
16083507043
16083516138
16083520227
16083528100
16083537317
16083544702
16083551111
16083555993
16083566553
16083576867
16083584314
16083593835
16083602258
16083608728
16083618127
16083629052
16083635400
16083643945
16083650659
16083659631
16083669213
16083677453
16083685205
16083690820
16083699975
16083706017
16083714807
16083725305
16083735436
16083742700
16083752709
16083759484
16083765832
16083774316
16083783227
16083791711
16083798852
16083808800
16083818566
16083826317
16083831139
16083841820
16083850365
16083857689
16083866967
16083873864
16083880150
16083889367
16083896691
16083906273
16083914269
16083921593
16083926476
16083939171
16083945519
16083952660
16083963402
16083972496
16083981957
16083987633
16083997643
16084006432
16084011376
16084021202
16084031151
16084038719
16084053856
16084063499
16084071983
16084077599
16084085960
16084096519
16084105431
16084113975
16084123436
16084133629
16084141014
16084145775
16084158104
16084162803
16084177330
16084186668
16084195579
16084204796
16084213157
16084223106
16084230918
16084240562
16084248863
16084258140
16084266563
16084276267
16084286155
16084292442
16084302268
16084310325
16084331138
16084340110
16084353721
16084362388
16084374778
16084382163
16084390647
16084398460
16084406882
16084415732
16084422080
16084432761
16084438987
16084446921
16084455039
16084459617
16084467185
16084475608
16084482932
16084491904
16084499717
16084506064
16084512107
16084518027
16084522971
16084528891
16084534140
16084540366
16084546714
16084553183
16084559897
16084566062
16084571616
16084577597
16084584067
16084589438
16084598776
16084605429
16084611777
16084617880
16084621115
16084628195
16084633933
16084639792
16084646262
16084650839
16084656516
16084662558
16084669638
16084673605
16084679953
16084687765
16084695944
16084700583
16084706747
16084713583
16084719382
16084726156
16084732809
16084739340
16084745627
16084752829
16084758627
16084764242
16084770102
16084775900
16084783285
16084789389
16084794088
16084802816
16084809897
16084815634
16084821798
16084827353
16084833822
16084840353
16084847311
16084854696
16084861410
16084866232
16084873068
16084878256
16084882650
16084888998
16084895956
16084903219
16084910482
16084915975
16084921591
16084929342
16084933859
16084942403
16084949178
16084954427
16084959982
16084966817
16084973287
16084978963
16084985677
16084993307
16085005270
16085011068
16085019002
16085026510
16085032003
16085037557
16085042562
16085048971
16085054098
16085059347
16085066244
16085070150
16085077657
16085082845
16085088216
16085094930
16085100240
16085105977
16085111287
16085115621
16085124105
16085130025
16085137227
16085142781
16085149434
16085156453
16085162435
16085167989
16085174092
16085180867
16085186177
16085191915
16085197286
16085203145
16085208699
16085214925
16085220845
16085226888
16085233479
16085240865
16085246846
16085252583
16085258809
16085263875
16085273152
16085279317
16085285908
16085291219
16085298787
16085303242
16085308980
16085314900
16085321309
16085326680
16085331746
16085339863
16085345357
16085352437
16085357808
16085364338
16085370503
16085378315
16085383992
16085389912
16085396199
16085401692
16085407856
16085414204
16085418904
16085426228
16085432331
16085438130
16085444172
16085452473
16085458149
16085463642
16085471150
16085476826
16085483235
16085488484
16085494343
16085501240
16085507343
16085513569
16085519489
16085526203
16085531757
16085537800
16085544087
16085552143
16085558369
16085564411
16085570576
16085577900
16085583637
16085590107
16085602558
16085608845
16085613788
16085620624
16085627460
16085633625
16085639606
16085645160
16085651020
16085656635
16085662311
16085667377
16085673115
16085679340
16085685199
16085690509
16085696064
16085702778
16085708698
16085714069
16085719806
16085724933
16085730915
16085735675
16085742328
16085747638
16085754291
16085758136
16085765216
16085768939
16085777057
16085783466
16085788593
16085794574
16085800922
16085805866
16085811847
16085817035
16085823688
16085831989
16085837482
16085841815
16085848834
16085854144
16085859454
16085865070
16085870746
16085877521
16085882770
16085888263
16085893573
16085900409
16085906573
16085911700
16085917865
16085924762
16085930194
16085936114
16085941546
16085946368
16085954059
16085960589
16085966998
16085971698
16085979571
16085985614
16085990924
16085996600
16086001849
16086007037
16086013079
16086017352
16086024859
16086029986
16086036212
16086043414
16086049273
16086054034
16086062152
16086069110
16086072039
16086080157
16086085589
16086092486
16086098773
16086104632
16086111651
16086117327
16086123492
16086129961
16086136736
16086142657
16086150896
16086157488
16086164202
16086171893
16086179400
16086188067
16086194842
16086201128
16086206072
16086211199
16086219500
16086226336
16086231951
16086237688
16086244890
16086250200
16086257647
16086262957
16086268877
16086276201
16086282610
16086289019
16086295549
16086301470
16086306841
16086312700
16086320635
16086326311
16086331926
16086337847
16086344377
16086349993
16086356462
16086361650
16086368852
16086373674
16086378740
16086386675
16086392168
16086398393
16086404253
16086410356
16086416094
16086421831
16086430010
16086435564
16086441301
16086447282
16086452531
16086461748
16086467424
16086473527
16086479509
16086485857
16086493059
16086497026
16086504777
16086510820
16086514604
16086524309
16086531206
16086537126
16086543474
16086549333
16086555742
16086561906
16086568498
16086574601
16086581743
16086588517
16086594621
16086600724
16086608293
16086614091
16086619584
16086626786
16086634782
16086641069
16086647843
16086653459
16086658952
16086666520
16086671220
16086678422
16086684159
16086691728
16086697465
16086702531
16086707536
16086713456
16086719865
16086726884
16086732255
16086738480
16086744889
16086751664
16086759476
16086767655
16086774247
16086780473
16086788407
16086796281
16086800065
16086805680
16086813248
16086817277
16086823319
16086828812
16086834916
16086840348
16086845475
16086850968
16086857804
16086863846
16086869401
16086875809
16086881974
16086887772
16086895401
16086900772
16086906571
16086911820
16086916947
16086922928
16086929520
16086935746
16086940201
16086946610
16086953995
16086959732
16086964493
16086971207
16086976639
16086984574
16086988602
16086999222
16087004776
16087010147
16087015885
16087021744
16087029862
16087035782
16087040421
16087046036
16087051651
16087059647
16087065628
16087071182
16087077835
16087083145
16087088394
16087095474
16087101456
16087107132
16087110916
16087119156
16087126236
16087132156
16087139725
16087144851
16087151260
16087157364
16087163894
16087170608
16087176468
16087181472
16087188369
16087195755
16087202163
16087207473
16087214187
16087220718
16087226944
16087232376
16087239151
16087245986
16087252456
16087256912
16087262588
16087270034
16087274734
16087280349
16087286147
16087294387
16087301101
16087307754
16087316055
16087322952
16087328140
16087334060
16087340774
16087347244
16087350784
16087358779
16087368545
16087372878
16087387038
16087392593
16087400649
16087406936
16087414077
16087418716
16087426406
16087432265
16087437209
16087442580
16087447463
16087453505
16087458816
16087464431
16087469558
16087475051
16087480483
16087487563
16087493483
16087500258
16087505751
16087512770
16087518630
16087524916
16087530898
16087538466
16087543593
16087550490
16087556716
16087562880
16087570998
16087575209
16087581191
16087588332
16087593520
16087599745
16087605177
16087610854
16087616652
16087623732
16087629591
16087635878
16087641188
16087646376
16087651991
16087658888
16087664198
16087670058
16087676222
16087682204
16087687453
16087693556
16087698866
