16400992070
16400996770
16401003057
16401007818
16401012395
16401017644
16401024480
16401028814
16401034612
16401039312
16401043889
16401049016
16401055120
16401060308
16401065740
16401071477
16401075566
16401080998
16401086247
16401091496
16401097478
16401103154
16401108586
16401112859
16401119084
16401124455
16401128972
16401134404
16401140569
16401145207
16401150456
16401156010
16401160222
16401165410
16401171452
16401177251
16401182744
16401187566
16401193730
16401199162
16401204961
16401210454
16401216191
16401222478
16401227177
16401236699
16401243229
16401249638
16401259526
16401268559
16401275517
16401282048
16401288334
16401295964
16401301823
16401308110
16401314518
16401321537
16401328495
16401336247
16401342411
16401350041
16401353459
16401363102
16401369023
16401375004
16401381230
16401388310
16401395146
16401400639
16401407902
16401412907
16401420841
16401426945
16401433170
16401441288
16401446110
16401453251
16401459599
16401466740
16401471989
16401479130
16401484501
16401493717
16401499760
16401506657
16401513859
16401518497
16401525822
16401534122
16401542606
16401548954
16401556766
16401563480
16401568546
16401575626
16401584781
16401592655
16401601810
16401609562
16401618106
16401625980
16401634708
16401644474
16401652164
16401658817
16401664737
16401671146
16401676700
16401686344
16401692996
16401700321
16401707279
16401715640
16401721866
16401728946
16401735782
16401742191
16401749088
16401756656
16401761661
16401769595
16401773318
16401781924
16401792239
16401799930
16401806155
16401815677
16401823184
16401828982
16401836612
16401846255
16401853091
16401859622
16401865909
16401875247
16401880069
16401887393
16401892398
16401900637
16401906497
16401913821
16401922122
16401928958
16401935366
16401940066
16401947268
16401953799
16401960940
16401968814
16401976382
16401983828
16401991213
16401997805
16402004336
16402011294
16402018618
16402024966
16402032473
16402041628
16402046633
16402053530
16402060488
16402067324
16402072329
16402080080
16402087466
16402092470
16402100527
16402106814
16402113283
16402119753
16402126833
16402132998
16402138613
16402145388
16402152468
16402157107
16402163576
16402171145
16402177797
16402184755
16402191408
16402200258
16402207094
16402212954
16402220644
16402229189
16402235842
16402242311
16402250551
16402258364
16402267580
16402274660
16402282106
16402288515
16402295839
16402302675
16402307680
16402315248
16402323549
16402329347
16402338197
16402346498
16402352480
16402360414
16402366273
16402373781
16402381044
16402386720
16402393434
16402398866
16402404420
16402411195
16402414491
16402420412
16402426393
16402433351
16402435853
16402443178
16402449342
16402454103
16402458803
16402464784
16402469301
16402474244
16402478456
16402484376
16402487794
16402494447
16402500428
16402505128
16402509706
16402514405
16402519777
16402523622
16402529603
16402537599
16402542970
16402547670
16402551332
16402554628
16402562379
16402567384
16402571595
16402577394
16402582093
16402587159
16402593385
16402599122
16402604310
16402609864
16402614869
16402619142
16402625062
16402631043
16402636598
16402641114
16402645997
16402651795
16402656739
16402661317
16402668153
16402673463
16402678956
16402683533
16402689149
16402694215
16402698548
16402705201
16402710084
16402716614
16402720582
16402727418
16402734070
16402739564
16402744690
16402752381
16402756959
16402763123
16402768006
16402775330
16402780640
16402787781
16402793824
16402800721
16402802857
16402813355
16402819641
16402824646
16402831910
16402837281
16402844483
16402851685
16402857056
16402861573
16402867554
16402874146
16402876587
16402884522
16402888794
16402897949
16402902344
16402910523
16402915466
16402924194
16402928772
16402935486
16402941650
16402949402
16402956787
16402962952
16402968750
16402976135
16402980957
16402987244
16402993042
16402998596
16403003357
16403009766
16403015686
16403021850
16403026916
16403032898
16403038208
16403043640
16403048828
16403052978
16403056335
16403063537
16403068420
16403076233
16403081787
16403085815
16403088745
16403098083
16403101440
16403107971
16403115600
16403121276
16403124511
16403131042
16403136657
16403142578
16403145629
16403153015
16403159728
16403165710
16403169860
16403176574
16403182250
16403187255
16403192138
16403199340
16403203430
16403211425
16403216186
16403222472
16403228515
16403235595
16403239684
16403246825
16403250671
16403258666
16403262267
16403270202
16403273925
16403280883
16403285705
16403291625
16403298522
16403305419
16403311217
16403316833
16403321288
16403327270
16403331542
16403338439
16403343200
16403350707
16403355468
16403360778
16403366454
16403372680
16403377318
16403380614
16403388793
16403396300
16403401610
16403404967
16403413573
16403417052
16403425231
16403430419
16403439574
16403443236
16403453063
16403457030
16403464476
16403468260
16403476256
16403482054
16403489928
16403495543
16403508727
16403518126
16403525450
16403536131
16403543028
16403552123
16403561339
16403572996
16403582030
16403588805
16403598143
16403602537
16403612974
16403619322
16403626280
16403633787
16403641417
16403647886
16403655516
16403663206
16403670775
16403680174
16403687376
16403695066
16403702269
16403710447
16403714964
16403724607
16403734129
16403742674
16403751097
16403757994
16403766905
16403774778
16403783933
16403789976
16403801267
16403807676
16403814512
16403823240
16403831175
16403839231
16403846006
16403853635
16403861692
16403869932
16403877439
16403884092
16403894285
16403900571
16403908994
16403918516
16403924131
16403932493
16403937192
16403947690
16403954831
16403962949
16403972471
16403979184
16403988340
16403996946
16404004392
16404015073
16404022397
16404032407
16404039792
16404048520
16404054196
16404065244
16404071225
16404081601
16404090390
16404098996
16404106992
16404114194
16404123654
16404137326
16404144894
16404152280
16404160702
16404169492
16404176633
16404184262
16404192136
16404203671
16404211484
16404219357
16404224240
16404234433
16404243283
16404248776
16404259579
16404267270
16404276669
16404283993
16404291073
16404297848
16404308041
16404317013
16404324215
16404330868
16404337948
16404345700
16404352841
16404360104
16404365963
16404375424
16404381588
16404388790
16404394711
16404403378
16404409542
16404417111
16404427731
16404434506
16404442562
16404451351
16404458858
16404465511
16404475643
16404481258
16404491817
16404497921
16404505001
16404512447
16404519955
16404527462
16404534176
16404543514
16404552852
16404562069
16404569759
16404574825
16404587459
16404595211
16404606319
16404614070
16404621761
16404630306
16404637996
16404648372
16404656734
16404664546
16404674129
16404679378
16404691524
16404699581
16404709834
16404717830
16404725459
16404735591
16404742793
16404752437
16404758052
16404768489
16404776668
16404785030
16404794002
16404800471
16404808955
16404814509
16404819148
16404825801
16404833125
16404840022
16404845088
16404849849
16404855159
16404859614
16404866572
16404872615
16404877314
16404882380
16404887080
16404894343
16404900691
16404911616
16404917048
16404924006
16404929194
16404936518
16404944575
16404949519
16404955744
16404962214
16404969294
16404974909
16404986506
16404996150
16405002558
16405012751
16405019892
16405027277
16405034174
16405042414
16405054072
16405061274
16405067927
16405075190
16405082148
16405089411
16405096857
16405107233
16405115107
16405122370
16405129389
16405135370
16405143854
16405152399
16405160334
16405169123
16405176752
16405184443
16405192438
16405201593
16405208796
16405217218
16405225824
16405234064
16405241571
16405250055
16405257929
16405266901
16405275263
16405283136
16405292291
16405300714
16405307550
16405316095
16405324884
16405331659
16405341669
16405349603
16405357355
16405365839
16405373529
16405381525
16405389459
16405398004
16405406610
16405415399
16405421991
16405433282
16405441156
16405449701
16405458307
16405469903
16405478143
16405484857
16405494989
16405499566
16405510186
16405518304
16405526666
16405536370
16405542718
16405551202
16405559381
16405569207
16405576409
16405586907
16405592034
16405603265
16405612298
16405620538
16405632134
16405642754
16405650628
16405660027
16405666741
16405674737
16405682427
16405690789
16405702325
16405710564
16405718987
16405727044
16405735528
16405744072
16405752495
16405761712
16405771111
16405778557
16405787163
16405795586
16405803582
16405810967
16405819084
16405827874
16405835869
16405844536
16405852471
16405860527
16405868462
16405873406
16405882683
16405891228
16405899101
16405905693
16405913445
16405922051
16405930717
16405937798
16405946648
16405956047
16405963005
16405971489
16405977837
16405986809
16405993950
16406005180
16406013908
16406021782
16406029106
16406036979
16406044792
16406052910
16406059440
16406067497
16406075920
16406083671
16406091789
16406100700
16406109245
16406116142
16406125419
16406132560
16406140251
16406146720
16406158073
16406167900
16406175346
16406182670
16406188773
16406198722
16406207633
16406214408
16406217216
16406225333
16406232108
16406239555
16406245658
16406251517
16406257804
16406263480
16406271537
16406278495
16406284171
16406292228
16406297233
16406304801
16406311942
16406318534
16406325248
16406331717
16406341300
16406347770
16406353263
16406360526
16406368033
16406374442
16406382193
16406388846
16406397208
16406402030
16406412345
16406416861
16406423575
16406430960
16406436087
16406446341
16406452506
16406458365
16406465323
16406471854
16406477225
16406483756
16406489493
16406497244
16406503348
16406510245
16406516348
16406523489
16406529593
16406536917
16406542960
16406550833
16406554983
16406563223
16406567007
16406574942
16406578848
16406587088
16406595572
16406602713
16406608572
16406615530
16406622610
16406630545
16406636770
16406642813
16406651175
16406658194
16406663809
16406670645
16406677359
16406682791
16406690542
16406696646
16406701223
16406711294
16406719900
16406726858
16406731375
16406742178
16406749563
16406754385
16406759329
16406770071
16406774709
16406785085
16406790090
16406798635
16406804983
16406812978
16406820303
16406828848
16406836355
16406845754
16406852346
16406859426
16406865957
16406873220
16406882986
16406888906
16406897817
16406905202
16406910879
16406919118
16406926198
16406934804
16406944387
16406951650
16406960256
16406967458
16406976125
16406984487
16406993398
16407000844
16407009633
16407017385
16407025930
16407031179
16407044545
16407049245
16407061940
16407066884
16407077931
16407083974
16407092763
16407097585
16407109059
16407117604
16407125661
16407130544
16407140919
16407149770
16407158009
16407162526
16407173329
16407177663
16407187367
16407194935
16407205495
16407213490
16407221669
16407228566
16407235890
16407243397
16407250721
16407256947
16407265187
16407274037
16407281788
16407288990
16407295765
16407304798
16407310780
16407318409
16407326649
16407336170
16407342701
16407349781
16407359303
16407366810
16407374378
16407380909
16407388294
16407395557
16407405262
16407412098
16407419788
16407425953
16407434071
16407442005
16407448719
16407458057
16407468616
16407475086
16407483936
16407490589
16407498646
16407506580
16407513660
16407519947
16407530628
16407537586
16407545826
16407552234
16407556995
16407568531
16407573536
16407582264
16407588794
16407594715
16407599231
16407604663
16407610279
16407614368
16407620838
16407625843
16407632495
16407637927
16407643421
16407648548
16407655383
16407660633
16407665576
16407670581
16407678333
16407682666
16407689868
16407694141
16407701465
16407707996
16407713184
16407719897
16407726672
16407731433
16407738269
16407743945
16407749194
16407754871
16407762317
16407768725
16407774829
16407781970
16407787463
16407795398
16407800891
16407805896
16407814197
16407821643
16407826892
16407836841
16407841784
16407845691
16407848803
16407856494
16407861621
16407866870
16407871875
16407877185
16407882067
16407888293
16407893725
16407900012
16407906176
16407911120
16407917163
16407921252
16407926135
16407931933
16407936877
16407943164
16407949206
16407954394
16407957873
16407965380
16407971362
16407975939
16407981921
16407988451
16407996142
16408000475
16408006030
16408010668
16408016039
16408022082
16408027087
16408031969
16408038073
16408044543
16408049120
16408054980
16408060534
16408065234
16408071398
16408077013
16408082323
16408089648
16408095446
16408101000
16408110155
16408115038
16408121691
16408125841
16408130968
16408139574
16408145006
16408149828
16408156481
16408162584
16408167772
16408172960
16408178759
16408184984
16408189989
16408194750
16408199694
16408206163
16408210558
16408215746
16408222765
16408228807
16408235338
16408240343
16408244554
16408250475
16408255785
16408259447
16408268175
16408274278
16408279711
16408283190
16408289842
16408293565
16408301073
16408306993
16408311632
16408319566
16408324754
16408329454
16408335191
16408341112
16408347032
16408353014
16408358751
16408367601
16408374986
16408380418
16408386339
16408391771
16408398240
16408402879
16408410570
16408417283
16408423692
16408429307
16408434678
16408441026
16408445176
16408450853
16408454576
16408458726
16408465562
16408471055
16408475755
16408481675
16408486436
16408491563
16408496629
16408501207
16408506028
16408511033
16408518663
16408523118
16408527940
16408533250
16408537889
16408543626
16408548448
16408554551
16408560655
16408564378
16408571885
16408575974
16408584397
16408586350
16408595689
16408601426
16408606431
16408611008
16408616990
16408622910
16408628526
16408637742
16408642319
16408648240
16408654343
16408659775
16408665391
16408670457
16408675339
16408681992
16408687729
16408693711
16408698655
16408704148
16408709641
16408713730
16408720322
16408728928
16408737900
16408745041
16408754013
16408762070
16408769394
16408777146
16408784226
16408792160
16408798447
16408807175
16408813584
16408822617
16408829880
16408839401
16408846298
16408855393
16408861679
16408870346
16408877731
16408886643
16408892990
16408901230
16408908127
16408914413
16408925705
16408930710
16408938339
16408944870
16408954513
16408961227
16408970016
16408977218
16408985214
16408994064
16409004074
16409012008
16409021164
16409028366
16409036361
16409046432
16409054672
16409062484
16409072372
16409080307
16409087081
16409094650
16409102706
16409110275
16409117660
16409124923
16409132736
16409139633
16409147994
16409154281
16409162826
16409170577
16409178695
16409186569
16409194503
16409202132
16409209884
16409215499
16409225631
16409232650
16409240340
16409246871
16409255294
16409263717
16409271529
16409278243
16409286666
16409294967
16409300887
16409308333
16409316268
16409323836
16409331649
16409339034
16409347518
16409353438
16409363814
16409371627
16409378585
16409385237
16409394393
16409399092
16409408309
16409417708
16409425032
16409433577
16409439986
16409448775
16409455428
16409464400
16409473250
16409480757
16409490157
16409496809
16409505476
16409512068
16409521223
16409528304
16409538435
16409545149
16409554671
16409563521
16409570235
16409578779
16409584944
16409595442
16409601729
16409612959
16409619795
16409629683
16409634932
16409645430
16409650679
16409660749
16409668013
16409676435
16409683821
16409693891
16409701704
16409709272
16409715620
16409724836
16409733503
16409740705
16409749677
16409759077
16409765669
16409770551
16409781660
16409786359
16409797224
16409805647
16409814191
16409823896
16409833173
16409841108
16409848798
16409856733
16409864484
16409872297
16409880659
16409888776
16409894880
16409902448
16409909772
16409917524
16409925275
16409932843
16409941144
16409949567
16409955854
16409963117
16409970929
16409978192
16409985578
16409991620
16409999250
16410007611
16410013532
16410018659
16410027936
16410033185
16410042768
16410046918
16410057843
16410066510
16410075116
16410082013
16410090497
16410098126
16410104230
16410110822
16410120587
16410126202
16410136761
16410144147
16410149213
16410153912
16410159100
16410164471
16410170758
16410177228
16410183880
16410189801
16410194745
16410199933
16410205853
16410210125
16410216351
16410222455
16410228985
16410235272
16410237286
16410245709
16410250348
16410255963
16410259686
16410267315
16410271832
16410280133
16410283673
16410289471
16410294476
16410300701
16410305889
16410311077
16410318524
16410325299
16410330609
16410335674
16410340191
16410346966
16410351788
16410357586
16410362957
16410369793
16410375225
16410382122
16410388958
16410394695
16410399578
16410408367
16410414959
16410421185
16410427715
16410433697
16410439312
16410445354
16410451336
16410458660
16410465313
16410472576
16410477215
16410483867
16410488384
16410496502
16410500652
16410510967
16410520061
16410527446
16410537761
16410544048
16410550945
16410556804
16410563274
16410567852
16410571392
16410576824
16410581462
16410586101
16410591655
16410596721
16410602031
16410606792
16410613323
16410618144
16410623271
16410627849
16410634868
16410638286
16410645000
16410648296
16410654094
16410658367
16410663310
16410667888
16410673381
16410678630
16410684978
16410689861
16410694072
16410699443
16410704326
16410708598
16410713969
16410719829
16410725566
16410730205
16410735332
16410741008
16410746196
16410752544
16410758342
16410763896
16410770183
16410775249
16410780986
16410786906
16410790385
16410798259
16410804057
16410809428
16410816386
16410820537
16410827067
16410832499
16410839030
16410844340
16410848796
16410854777
16410859904
16410867228
16410871440
16410877848
16410883586
16410889567
16410893840
16410897502
16410906962
16410913493
16410918009
16410923625
16410928691
16410934062
16410940409
16410946757
16410953288
16410959757
16410965861
16410971354
16410977946
16410982829
16410989176
16410994303
16410999979
16411005534
16411012064
16411017252
16411023905
16411028971
16411037028
16411044962
16411052164
16411059305
16411067423
16411072916
16411080118
16411088358
16411095316
16411102945
16411107096
16411112345
16411117533
16411122660
16411127970
16411133524
16411140360
16411146097
16411151835
16411158060
16411162210
16411168436
16411172464
16411178080
16411183756
16411188394
16411194010
16411200052
16411206034
16411210916
16411216287
16411221659
16411227823
16411232401
16411239420
16411243570
16411249735
16411254862
16411260355
16411263590
16411270303
16411275675
16411281351
16411288553
16411297159
16411304117
16411313089
16411320169
16411328226
16411336648
16411345254
16411352518
16411360452
16411366800
16411375955
16411384378
16411392923
16411403238
16411411050
16411420266
16411428933
16411435342
16411440286
16411452798
16411461709
16411468118
16411475747
16411485391
16411493081
16411502175
16411509194
16411518289
16411525613
16411534463
16411541055
16411549722
16411556741
16411566628
16411575051
16411581704
16411590188
16411596597
16411607766
16411613992
16411622964
16411635232
16411642617
16411649880
16411657876
16411663674
16411675210
16411683571
16411690285
16411698708
16411706337
16411710976
16411722268
16411727395
16411736611
16411744057
16411756569
16411767495
16411773842
16411782814
16411793434
16411800148
16411811013
16411820412
16411830910
16411839943
16411847023
16411856056
16411863503
16411872475
16411878944
16411888466
16411893349
16411904152
16411911781
16411921913
16411928749
16411936561
16411944191
16411950233
16411958168
16411966469
16411971107
16411982155
16411990455
16411998512
16412004738
16412012733
16412020546
16412028724
16412033424
16412044288
16412048988
16412059059
16412063942
16412074256
16412081764
16412088844
16412095680
16412104225
16412111915
16412121498
16412128272
16412135719
16412142616
16412152564
16412159278
16412167274
16412174232
16412183692
16412189979
16412197852
16412204871
16412214149
16412222327
16412231910
16412237952
16412248511
16412256873
16412265540
16412274268
16412282874
16412288794
16412297828
16412308387
16412314917
16412324744
16412331092
16412340918
16412347327
16412356787
16412363868
16412373511
16412380225
16412389075
16412395362
16412405188
16412412024
16412419837
16412429053
16412437842
16412445166
16412453650
16412460852
16412468420
16412475684
16412485449
16412492834
16412503210
16412512549
16412521826
16412528845
16412537573
16412543066
16412555151
16412569189
16412577368
16412587134
16412594824
16412602942
16412612646
16412619299
16412629309
16412638647
16412645422
16412653479
16412659704
16412668615
16412677465
16412683569
16412692358
16412700353
16412706335
16412714331
16412720373
16412729711
16412735815
16412743810
16412750402
16412756078
16412760412
16412767309
16412772375
16412778783
16412783239
16412788671
16412794592
16412800024
16412804418
16412807714
16412815527
16412821325
16412827978
16412831640
16412838781
16412844823
16412851598
16412855321
16412861669
16412867467
16412874181
16412879918
16412887304
16412893895
16412899755
16412905126
16412910924
16412916600
16412923742
16412928624
16412934484
16412942235
16412944432
16412953893
16412960790
16412965856
16412969701
16412976537
16412980077
16412990270
16412995030
16413009130
16413012975
16413021276
16413025304
16413031529
16413036595
16413043309
16413050389
16413057225
16413062718
16413068700
16413074315
16413080235
16413085851
16413092686
16413098546
16413103307
16413106908
16413114415
16413120335
16413124791
16413131139
16413136510
16413143773
16413149815
16413155247
16413159642
16413165318
16413170933
16413175511
16413181614
16413187169
16413192296
16413201207
16413206639
16413214146
16413221531
16413228733
16413234410
16413242955
16413247898
16413256321
16413262303
16413270848
16413275669
16413281163
16413288853
16413294651
16413300083
16413305393
16413309788
16413315830
16413319981
16413325840
16413330113
16413336704
16413341465
16413346653
16413350926
16413355137
16413360630
16413365269
16413370396
16413375828
16413382053
16413387669
16413392796
16413398167
16413402439
16413407688
16413412327
16413417881
16413423313
16413429905
16413435398
16413443699
16413447971
16413455173
16413462314
16413470310
16413475559
16413482822
16413487400
16413494541
16413499790
16413504917
16413511936
16413516208
16413523716
16413529453
16413534153
16413540744
16413547763
16413553989
16413561985
16413567112
16413572055
16413578220
16413582187
16413587558
16413594333
16413599704
16413605625
16413612888
16413619419
16413625156
16413630771
16413635410
16413639621
16413642978
16413652316
16413656711
16413664768
16413670383
16413675571
16413682162
16413686435
16413691562
16413696994
16413703342
16413707980
16413714694
16413719211
16413723910
16413729159
16413734775
16413744662
16413752841
16413758456
16413765414
16413769809
16413773349
16413781650
16413785922
16413795382
16413800570
16413813266
16413819491
16413826754
16413832492
16413837619
16413844027
16413849520
16413856845
16413861666
16413868075
16413872531
16413879061
16413884188
16413889498
16413896639
16413901034
16413905551
16413911349
16413916049
16413921847
16413926669
16413935519
16413942965
16413951022
16413958773
16413964205
16413972323
16413979708
16413984286
16413993746
16414001925
16414009737
16414015108
16414024508
16414030062
16414040011
16414047640
16414053683
16414063570
16414070101
16414077730
16414085116
16414091829
16414101473
16414109102
16414115999
16414123507
16414133638
16414140352
16414147737
16414154390
16414161776
16414170504
16414176973
16414187349
16414196016
16414203401
16414212313
16414218294
16414226717
16414232698
16414246492
16414255342
16414261995
16414268709
16414277498
16414284151
16414291841
16414298494
16414306673
16414313936
16414324190
16414329256
16414339815
16414344636
16414354280
16414359041
16414369356
16414377778
16414385713
16414392671
16414400789
16414408235
16414416230
16414424958
16414431855
16414441560
16414450715
16414457978
16414466889
16414476106
16414482087
16414491670
16414499238
16414507478
16414514924
16414526765
16414533479
16414545014
16414553437
16414562165
16414571992
16414579255
16414587678
16414596223
16414610993
16414618684
16414624787
16414633027
16414641755
16414649384
16414655854
16414664704
16414672394
16414680146
16414686799
16414695771
16414703705
16414711274
16414719208
16414727326
16414735749
16414743195
16414751313
16414757782
16414766815
16414771210
16414780548
16414787506
16414794770
16414803131
16414809845
16414817291
16414826813
16414833710
16414842438
16414849030
16414857941
16414866852
16414874970
16414883820
16414890961
16414898407
16414904755
16414914215
16414922577
16414931854
16414937225
16414946441
16414952972
16414963287
16414971466
16414977569
16414987640
16414994842
16415004059
16415012787
16415019867
16415026092
16415032562
16415041961
16415050872
16415057403
16415065765
16415072357
16415079925
16415086151
16415093353
16415102020
16415110381
16415116790
16415125884
16415133514
16415144866
16415150176
16415160552
16415170135
16415178680
16415183868
16415194183
16415202544
16415210967
16415216521
16415227569
16415235015
16415242583
16415249175
16415258086
16415267791
16415275908
16415282561
16415291716
16415302153
16415311126
16415320281
16415329436
16415336272
16415343779
16415349822
16415356963
16415363433
16415370757
16415374968
16415379790
16415384612
16415390044
16415394499
16415399382
16415403411
16415409453
16415413786
16415418669
16415424773
16415429106
16415434966
16415439848
16415444792
16415451262
16415456267
16415462920
16415467009
16415473723
16415478362
16415483611
16415489836
16415495024
16415499174
16415506865
16415512602
16415517668
16415522612
16415528227
16415533415
16415538908
16415543242
16415548796
16415554045
16415560759
16415567228
16415572355
16415578337
16415585844
16415590727
16415596037
16415602324
16415608671
16415613920
16415617704
16415625395
16415630339
16415637541
16415641813
16415650358
16415654325
16415661039
16415665495
16415673735
16415679350
16415686186
16415690336
16415698698
16415704679
16415711454
16415717008
16415722868
16415728056
16415735685
16415741605
16415747770
16415752470
16415758634
16415764677
16415769010
16415779081
16415783659
16415789823
16415793424
16415800199
16415806486
16415813200
16415818815
16415826444
16415831449
16415839200
16415845060
16415850248
16415857084
16415862638
16415868863
16415876371
16415881559
16415888028
16415891691
16415899198
16415906217
16415911405
16415917752
16415924466
16415931729
16415937833
16415943387
16415948636
16415957181
16415963163
16415969754
16415974820
16415980924
16415986783
16415992703
16415998197
16416003140
16416010953
16416014981
16416023648
16416029874
16416035489
16416039700
16416043973
16416050443
16416054105
16416061185
16416064481
16416070950
16416074124
16416083157
16416087674
16416097562
16416102322
16416110501
16416118924
16416124173
16416130154
16416136929
16416142239
16416147610
16416153287
16416157132
16416162991
16416168362
16416173001
16416177517
16416183072
16416188992
16416194241
16416197049
16416202786
16416205655
16416211331
16416214261
16416220791
16416226895
16416230557
16416236050
16416240017
16416244717
16416249111
16416254727
16416259060
16416266568
16416269558
16416275662
16416280972
16416287197
16416289150
16416296719
16416303982
16416310208
16416314419
16416319790
16416323879
16416328457
16416334683
16416342556
16416346645
16416351467
16416357632
16416362820
16416368862
16416374844
16416379787
16416385830
16416390041
16416395718
16416400295
16416406826
16416411037
16416418301
16416423611
16416431606
16416436245
16416443020
16416450222
16416457790
16416465603
16416476589
16416484585
16416493862
16416500332
16416507595
16416513637
16416522304
16416528896
16416536464
16416543300
16416555446
16416560390
16416570339
16416575099
16416585475
16416590175
16416599635
16416606471
16416614589
16416621425
16416630824
16416637660
16416645412
16416652614
16416660670
16416669399
16416676967
16416683620
16416690639
16416699306
16416707301
16416714381
16416723720
16416730861
16416741603
16416748378
16416757655
16416764308
16416773036
16416781947
16416790797
16416799891
16416807399
16416816188
16416823817
16416832423
16416837672
16416848536
16416853846
16416863185
16416871119
16416880458
16416887782
16416896571
16416904139
16416912074
16416921717
16416928797
16416935450
16416944849
16416953761
16416960658
16416969813
16416978785
16416985377
16416993616
16417002772
16417011622
16417018275
16417026453
16417034571
16417041956
16417047999
16417055750
16417063746
16417069117
16417080774
16417085596
16417096216
16417104212
16417110559
16417117579
16417125391
16417135889
16417141626
16417148157
16417157190
16417166407
16417174707
16417181604
16417191004
16417200830
16417207300
16417215601
16417224756
16417231653
16417240320
16417250269
16417256433
16417265771
16417275415
16417283166
16417292505
16417300439
16417307519
16417316064
16417323633
16417332483
16417340600
16417347986
16417357873
16417362756
16417371850
16417380395
16417388818
16417395593
16417403283
16417410913
16417419763
16417427270
16417434106
16417443444
16417450891
16417458215
16417466882
16417474572
16417481469
16417489465
16417497582
16417506860
16417514367
16417521020
16417529443
16417536767
16417546105
16417555138
16417562707
16417570702
16417576684
16417585961
16417592370
16417600976
16417609765
16417620202
16417625939
16417637597
16417642785
16417653893
16417659203
16417670434
16417677941
16417686730
16417695885
16417703087
16417712120
16417718895
16417727929
16417737999
16417746056
16417753380
16417761681
16417769249
16417779198
16417784691
16417795494
16417801293
16417812279
16417821495
16417827965
16417836388
16417842918
16417848228
16417859703
16417865685
16417871849
16417877342
16417883141
16417890465
16417896263
16417902794
16417908409
16417915794
16417921409
16417927208
16417932274
16417938499
16417942894
16417951439
16417959984
16417964744
16417971336
16417978965
16417983543
16417989952
16417995872
16418002037
16418009544
16418012901
16418019676
16418025779
16418030845
16418034935
16418040123
16418045921
16418049644
16418055564
16418061790
16418067466
16418072471
16418077903
16418082725
16418087119
16418093040
16418097007
16418104575
16418109825
16418113487
16418119773
16418125327
16418131248
16418136619
16418142722
16418148154
16418151633
16418160423
16418166038
16418171714
16418178489
16418184470
16418190696
16418196555
16418201560
16418207969
16418215659
16418222068
16418227195
16418233542
16418238303
16418242331
16418250144
16418257163
16418262534
16418268332
16418274436
16418279990
16418285849
16418292502
16418298728
16418305320
16418310691
16418316733
16418323020
16418328452
16418335044
16418340476
16418346701
16418351096
16418358115
16418364157
16418371237
16418375815
16418382834
16418387534
16418395712
16418402548
16418407736
16418414633
16418419638
16418426230
16418432456
16418439536
16418445029
16418451804
16418457053
16418463034
16418469138
16418477560
16418484274
16418492087
16418496420
16418503683
16418511496
16418516501
16418525107
16418530661
16418537802
16418544089
16418552206
16418557516
16418566855
16418572043
16418578695
16418584189
16418590536
16418595053
16418600485
16418606527
16418611654
16418616964
16418624227
16418630514
16418636007
16418641561
16418647421
16418652853
16418657980
16418663290
16418669699
16418675436
16418680197
16418686544
16418691915
16418698995
16418704794
16418710958
16418715353
16418723226
16418729147
16418735311
16418741110
16418747274
16418754232
16418761434
16418766500
16418772054
16418777792
16418784017
16418786520
16418793294
16418801595
16418808431
16418812826
16418818441
16418821798
16418828390
16418831563
16418839925
16418848104
16418853109
16418856283
16418864583
16418868001
16418874349
16418878682
16418884420
16418890645
16418896444
16418901082
16418907430
16418913228
16418919027
16418924215
16418930562
16418936177
16418941671
16418944966
16418952291
16418956075
16418962667
16418967488
16418973104
16418980611
16418988851
16418996419
16419005818
16419013326
16419023763
16419032124
16419039754
16419047871
16419057637
16419065633
16419073933
16419084370
16419091206
16419098347
16419108113
16419119099
16419128865
16419138142
16419146016
16419153035
16419162190
16419171467
16419178303
16419187642
16419198384
16419206196
16419213826
16419222248
16419229695
16419239826
16419247273
16419255818
16419262409
16419272663
16419279255
16419287922
16419297138
16419304646
16419312641
16419319965
16419328022
16419336018
16419342487
16419348774
16419359577
16419366474
16419374226
16419378925
16419390827
16419397602
16419406818
16419411884
16419423847
16419429035
16419439045
16419448078
16419456012
16419463703
16419472065
16419479572
16419490192
16419495502
16419504596
16419511615
16419521259
16419529987
16419538776
16419545429
16419556354
16419563068
16419570941
16419578876
16419586322
16419595294
16419602802
16419610675
16419618305
16419624408
16419633380
16419640033
16419645038
16419659503
16419667071
16419675861
16419683917
16419690631
16419700030
16419706805
16419714129
16419724261
16419732440
16419740069
16419747577
16419757525
16419765643
16419773211
16419782733
16419790606
16419798175
16419807208
16419813861
16419823565
16419830157
16419838641
16419847369
16419856219
16419862811
16419871783
16419880389
16419888079
16419895037
16419904009
16419912676
16419920672
16419930499
16419938799
16419947649
16419955950
16419965960
16419969012
16419982073
16419987139
16420000139
16420009600
16420017779
16420024737
16420033526
16420039629
16420049944
16420055254
16420066240
16420075029
16420081377
16420089373
16420096758
16420103533
16420112871
16420117632
16420127703
16420132463
16420142168
16420148882
16420158586
16420166765
16420172869
16420179704
16420189592
16420196733
16420204607
16420211321
16420219927
16420226701
16420234514
16420240617
16420248918
16420258440
16420266069
16420272172
16420281694
16420287614
16420295671
16420303789
16420312028
16420318315
16420327653
16420336442
16420343217
16420352250
16420358781
16420369828
16420376115
16420385942
16420392045
16420402055
16420409501
16420418901
16420426164
16420434831
16420442582
16420450578
16420460465
16420469071
16420476396
16420483964
16420489701
16420497086
16420503800
16420505875
16420515397
16420521745
16420526078
16420530045
16420539384
16420545060
16420549393
16420552689
16420559953
16420566605
16420572037
16420576310
16420581864
16420583634
16420593156
16420598099
16420604264
16420612076
16420617386
16420621781
16420627274
16420632767
16420638871
16420644547
16420649796
16420656815
16420662430
16420667069
16420672623
16420676102
16420682755
16420688126
16420696671
16420704483
16420712784
16420716568
16420725296
16420731827
16420738175
16420742508
16420749466
16420755631
16420762222
16420768082
16420772537
16420778580
16420784256
16420789200
16420794998
16420801285
16420805374
16420810440
16420814591
16420819779
16420825699
16420830521
16420834915
16420841812
16420845718
16420851028
16420855972
16420859940
16420865372
16420870010
16420875626
16420880020
16420884476
16420890091
16420895828
16420900406
16420904861
16420911026
16420916580
16420922561
16420926163
16420931350
16420937393
16420944046
16420948806
16420954788
16420961136
16420968094
16420974380
16420979324
16420985122
16420988845
16420996048
16421000930
16421007949
16421012039
16421018997
16421024978
16421031753
16421037796
16421043167
16421048110
16421053726
16421058731
16421066604
16421071792
16421077773
16421084548
16421090652
16421095107
16421101577
16421106277
16421110854
16421118606
16421123245
16421129836
16421135513
16421139907
16421145278
16421152358
16421158767
16421165481
16421169082
16421176406
16421181777
16421188186
16421194778
16421200881
16421206740
16421212722
16421217971
16421225844
16421230605
16421236342
16421242080
16421248732
16421254531
16421262465
16421267714
16421274794
16421280959
16421286269
16421292739
16421299453
16421305129
16421311721
16421319228
16421325453
16421331435
16421336379
16421342116
16421346694
16421354689
16421360793
16421365126
16421371413
16421377333
16421382338
16421387892
16421391066
16421398757
16421402785
16421409682
16421415236
16421419386
16421425124
16421430556
16421433852
16421440077
16421446303
16421452711
16421459181
16421463637
16421468764
16421474257
16421480299
16421486281
16421492201
16421498305
16421503309
16421509169
16421513746
16421519667
16421523207
16421532545
16421539198
16421543654
16421548720
16421556349
16421559767
16421566847
16421571791
16421578444
16421585341
16421591871
16421598768
16421609632
16421616407
16421624891
16421628309
16421634657
16421638197
16421645704
16421649122
16421656751
16421661451
16421673475
16421681043
16421688734
16421693372
16421704969
16421709791
16421718641
16421725294
16421732801
16421739881
16421748426
16421756849
16421767835
16421773328
16421784009
16421792737
16421799634
16421807020
16421814710
16421822584
16421832654
16421839673
16421847303
16421854383
16421862378
16421869092
16421876722
16421886304
16421895215
16421901868
16421912000
16421918164
16421924817
16421933423
16421940808
16421949536
16421961621
16421971631
16421979993
16421988477
16421998303
16422005994
16422015637
16422027661
16422036938
16422045789
16422054639
16422061047
16422069653
16422078137
16422085461
16422092785
16422101452
16422107983
16422116223
16422122754
16422131482
16422139966
16422147595
16422157055
16422164807
16422173657
16422181469
16422187756
16422197827
16422206250
16422213024
16422221203
16422230114
16422236096
16422243786
16422251782
16422260082
16422266430
16422275463
16422283703
16422290722
16422298718
16422306103
16422312084
16422320934
16422327099
16422332653
16422344921
16422353100
16422361401
16422367504
16422375622
16422380993
16422391186
16422399059
16422406872
16422414806
16422422619
16422428844
16422436535
16422445263
16422451183
16422460521
16422466503
16422474865
16422483593
16422491527
16422497570
16422506237
16422514843
16422522472
16422529003
16422537425
16422544078
16422552684
16422562145
16422569164
16422576976
16422585094
16422591441
16422602184
16422607127
16422618846
16422624095
16422634959
16422644298
16422652721
16422661449
16422668040
16422677196
16422683848
16422692454
16422702586
16422711497
16422718699
16422726634
16422734202
16422745433
16422751170
16422763499
16422773570
16422779795
16422789866
16422796641
16422806041
16422813731
16422823863
16422828929
16422838755
16422848338
16422854991
16422863291
16422871409
16422877879
16422885752
16422893565
16422902964
16422910532
16422918711
16422926524
16422933360
16422942820
16422948679
16422958445
16422967783
16422973887
16422981699
16422989695
16422997263
16423003367
16423013132
16423020273
16423030039
16423037485
16423043833
16423050913
16423060373
16423068186
16423072580
16423076365
16423084543
16423089792
16423094431
16423101755
16423107920
16423114572
16423119028
16423126047
16423129892
16423136850
16423141001
16423149240
16423154917
16423161508
16423167673
16423172251
16423178537
16423183969
16423190256
16423195688
16423200754
16423206613
16423213937
16423220224
16423226266
16423230417
16423239206
16423245187
16423250375
16423255624
16423262399
16423266061
16423274728
16423278512
16423285104
16423292978
16423299997
16423306222
16423311960
16423316659
16423324960
16423329233
16423338632
16423344735
16423352365
16423358468
16423363473
16423368783
16423374520
16423379037
16423384896
16423389474
16423396676
16423401498
16423408578
16423415536
16423420480
16423426339
16423431039
16423437814
16423445809
16423449716
16423457467
16423463815
16423469552
16423471383
16423480477
16423486031
16423491280
16423496713
16423500802
16423507027
16423511544
16423517526
16423522775
16423528451
16423535409
16423540475
16423545968
16423550851
16423556710
16423562997
16423568673
16423576241
16423581124
16423587166
16423592476
16423594369
16423601937
16423605111
16423612313
16423617806
16423626412
16423629464
16423636483
16423640999
16423646737
16423651986
16423656380
16423663582
16423669991
16423674508
16423680184
16423685311
16423691170
16423696785
16423701302
16423707833
16423713326
16423717903
16423723152
16423727730
16423733528
16423738899
16423743965
16423748726
16423755074
16423759712
16423765389
16423770821
16423775276
16423780892
16423785225
16423791939
16423797005
16423803108
16423806953
16423813179
16423816475
16423823311
16423829109
16423834358
16423841804
16423850532
16423854256
16423861153
16423866096
16423871162
16423875862
16423882576
16423889656
16423895454
16423900398
16423906441
16423911567
16423916572
16423920601
16423927437
16423933296
16423939888
16423946846
16423951545
16423956123
16423965156
16423970955
16423976081
16423984077
16423991645
16423997200
16424002265
16424007820
16424013435
16424019111
16424025581
16424030342
16424036079
16424042243
16424046882
16424051216
16424056159
16424060493
16424067085
16424072517
16424079048
16424081977
16424087898
16424092109
16424097907
16424103706
16424109870
16424116462
16424120734
16424126167
16424130134
16424134711
16424140266
16424145209
16424150825
16424159492
16424164008
16424170051
16424174689
16424179450
16424185859
16424190742
16424196601
16424203437
16424210090
16424217658
16424225409
16424232795
16424238593
16424245429
16424254401
16424262946
16424271369
16424277411
16424285468
16424294562
16424301276
16424309088
16424316474
16424322760
16424333136
16424339728
16424348700
16424354743
16424362616
16424370734
16424377875
16424386176
16424395148
16424401617
16424406378
16424418402
16424425665
16424433539
16424438300
16424448675
16424458563
16424466864
16424474798
16424480780
16424488714
16424497076
16424504584
16424511664
16424521124
16424529852
16424535101
16424544745
16424551519
16424559759
16424566351
16424575384
16424584356
16424592779
16424599981
16424607855
16424616339
16424622747
16424631231
16424637579
16424647222
16424655340
16424664984
16424674017
16424681585
16424690313
16424696478
16424705816
16424713201
16424724981
16424731817
16424740606
16424749334
16424755987
16424763982
16424772039
16424778997
16424787298
16424796026
16424801885
16424811101
16424819280
16424825383
16424833257
16424841924
16424852971
16424861394
16424867498
16424874761
16424881780
16424893254
16424899968
16424908513
16424913762
16424926030
16424934514
16424943364
16424953496
16424961003
16424971135
16424979009
16424989201
16424998479
16425007268
16425017278
16425023991
16425033452
16425043523
16425052800
16425060368
16425071599
16425076726
16425088872
16425097722
16425106389
16425119023
16425126469
16425136174
16425144169
16425151921
16425160038
16425166813
16425175724
16425185185
16425190373
16425201542
16425209965
16425218754
16425224369
16425235783
16425240910
16425250492
16425257694
16425268498
16425273625
16425285038
16425290104
16425301029
16425308598
16425317814
16425325077
16425334049
16425341251
16425349674
16425356876
16425367679
16425375797
16425386417
16425391788
16425401981
16425409244
16425417545
16425424930
16425435184
16425442508
16425452091
16425459415
16425467228
16425476871
16425485843
16425493656
16425504276
16425515018
16425523197
16425534183
16425541446
16425551456
16425562015
16425569888
16425578311
16425587283
16425593570
16425601871
16425610049
16425618289
16425624454
16425634586
16425641421
16425650882
16425656802
16425665103
16425672183
16425678287
16425683963
16425689456
16425694156
16425700442
16425705630
16425712527
16425716128
16425722781
16425728640
16425734683
16425743106
16425749148
16425755008
16425759829
16425766116
16425771609
16425775271
16425783023
16425788821
16425795108
16425801028
16425806704
16425812442
16425819277
16425825442
16425831057
16425835818
16425841921
16425849001
16425855471
16425861147
16425868166
16425873293
16425879214
16425886416
16425891299
16425898013
16425900149
16425910281
16425914126
16425920412
16425926150
16425932619
16425938906
16425945193
16425951479
16425956606
16425961855
16425967715
16425973391
16425980776
16425986086
16425992922
16425998293
16426004641
16426011416
16426016298
16426021120
16426028566
16426034304
16426041323
16426047304
16426052370
16426058535
16426062563
16426069887
16426076357
16426082766
16426087343
16426093080
16426097719
16426103334
16426108217
16426114015
16426119692
16426126345
16426136354
16426142397
16426148439
16426154176
16426162233
16426167482
16426173219
16426179933
16426185854
16426193239
16426199525
16426206667
16426211732
16426218446
16426222169
16426229188
16426235719
16426241518
16426245790
16426251039
16426257020
16426262269
16426268800
16426274354
16426281740
16426288270
16426291932
16426299135
16426305116
16426312745
16426316652
16426323243
16426329652
16426335206
16426340944
16426346803
16426354371
16426359681
16426364564
16426371156
16426376222
16426383119
16426390016
16426394715
16426401002
16426406800
16426412171
16426418946
16426426515
16426432252
16426439759
16426443971
16426451112
16426454896
16426462586
16426468873
16426473328
16426479798
16426484864
16426490052
16426497010
16426501405
16426506593
16426512452
16426514405
16426523988
16426529725
16426536561
16426541932
16426548096
16426553712
16426560120
16426564332
16426571961
16426578065
16426584473
16426589478
16426593506
16426598939
16426604737
16426609009
16426614197
16426622742
16426628296
16426635437
16426641785
16426647950
16426655701
16426661988
16426669251
16426677613
16426682923
16426697632
16426706055
16426714600
16426721924
16426732178
16426739929
16426749146
16426756714
16426762817
16426771790
16426782349
16426785584
16426800537
16426807007
16426814453
16426825806
16426833496
16426840271
16426847595
16426857422
16426865356
16426872925
16426880493
16426887878
16426895996
16426901794
16426908386
16426913147
16426919128
16426923279
16426928894
16426935730
16426941955
16426946411
16426952758
16426956848
16426962463
16426968078
16426972717
16426978942
16426984436
16426990783
16426995178
16427000549
16427006408
16427011169
16427017517
16427023620
16427029418
16427035766
16427040099
16427046142
16427051940
16427055908
16427061950
16427067992
16427073180
16427079589
16427085387
16427089965
16427096191
16427101257
16427107177
16427113341
16427119811
16427124450
16427128051
16427135802
16427139892
16427147826
16427153197
16427158324
16427164001
16427171935
16427177733
16427184447
16427191710
16427197509
16427203185
16427209960
16427216002
16427220763
16427226134
16427233153
16427239440
16427244323
16427250548
16427255919
16427264281
16427269896
16427273436
16427281371
16427286132
16427294066
16427304869
16427311400
16427318541
16427325377
16427330077
16427336608
16427342589
16427348998
16427354491
16427361876
16427368651
16427373473
16427378233
16427385008
16427389159
16427398558
16427402464
16427408324
16427415831
16427420653
16427429625
16427435606
16427443968
16427448668
16427456053
16427461424
16427467161
16427472594
16427480345
16427485594
16427491026
16427495726
16427502195
16427507139
16427514280
16427519529
16427525572
16427531004
16427536924
16427541502
16427548277
16427554869
16427559385
16427563536
16427569700
16427574278
16427580076
16427584410
16427590513
16427598204
16427603147
16427608824
16427614927
16427620298
16427626280
16427632200
16427637327
16427643247
16427647398
16427653013
16427658018
16427664488
16427669309
16427676939
16427681699
16427687864
16427693784
16427699094
16427703428
16427712156
16427718992
16427723875
16427727598
16427735166
16427739072
16427746946
16427751584
16427759458
16427764585
16427770017
16427776182
16427782834
16427788633
16427794004
16427800046
16427805967
16427810605
16427817258
16427823301
16427827329
16427836789
16427841611
16427850217
16427855039
16427859861
16427866696
16427872861
16427879575
16427886594
16427892392
16427899594
16427906064
16427910642
16427917539
16427923459
16427927182
16427935117
16427942929
16427949338
16427955380
16427960141
16427965817
16427971982
16427977170
16427984067
16427990598
16427996518
16428001340
16428008054
16428012997
16428019345
16428025326
16428033383
16428038571
16428045468
16428051327
16428055783
16428064755
16428071896
16428078061
16428082516
16428092099
16428096066
16428101925
16428106625
16428112484
16428118222
16428123898
16428129452
16428136105
16428142880
16428147335
16428152096
16428157345
16428164242
16428170468
16428175839
16428181088
16428187680
16428193783
16428198605
16428204586
16428209164
16428215023
16428219479
16428225277
16428232052
16428238278
16428243832
16428250057
16428256832
16428261837
16428267757
16428273495
16428280941
16428286129
16428292660
16428299252
16428305965
16428310787
16428316830
16428322628
16428327877
16428335384
16428342220
16428349850
16428355648
16428359310
16428369442
16428373287
16428380184
16428388668
16428398006
16428405819
16428412655
16428421444
16428428890
16428433406
16428438594
16428444027
16428449031
16428453182
16428457943
16428462886
16428468013
16428474422
16428479732
16428485225
16428489803
16428495052
16428500484
16428506099
16428511714
16428518794
16428524410
16428527217
16428535518
16428540828
16428547725
16428551814
16428558528
16428562740
16428569148
16428574336
16428579097
16428584407
16428589412
16428594905
16428601131
16428606441
16428613826
16428618343
16428623897
16428629939
16428635432
16428642940
16428648860
16428654353
16428660457
16428666011
16428670344
16428674556
16428681392
16428686946
16428693538
16428699214
16428703914
16428708857
16428714595
16428720454
16428726680
16428731746
16428736445
16428741267
16428746577
16428753108
16428756892
16428762812
16428769099
16428773005
16428777766
16428785273
16428791804
16428795588
16428802302
16428807002
16428813593
16428818354
16428823786
16428829035
16428834590
16428839167
16428844538
16428849482
16428855708
16428861872
16428866572
16428872187
16428876643
16428882197
16428888300
16428893366
16428900019
16428905085
16428910456
16428915644
16428921076
16428931757
16428938044
16428945734
16428951105
16428956476
16428960810
16428966669
16428972346
16428978693
16428982294
16428989740
16428994379
16429000483
16429002863
16429010370
16429016779
16429021112
16429026300
16429030085
16429033075
16429041681
16429047846
16429051935
16429059809
16429066584
16429072260
16429076288
16429081537
16429085565
16429088800
16429096979
16429103571
16429108576
16429114862
16429120783
16429123956
16429131952
16429138300
16429143488
16429151666
16429157160
16429162470
16429166193
16429172174
16429176996
16429182916
16429187311
16429193781
16429198724
16429204217
16429209344
16429213068
16429217767
16429224542
16429228631
16429234796
16429239801
16429244073
16429248773
16429252496
16429257867
16429263727
16429268915
16429273370
16429278497
16429282708
16429288324
16429293268
16429299066
16429304620
16429310357
16429315728
16429320245
16429324762
16429331048
16429336786
16429343743
16429350030
16429355218
16429359979
16429366082
16429370477
16429375726
16429381097
16429387261
16429393365
16429400323
16429404168
16429411859
16429415948
16429423882
16429427972
16429436517
16429441216
16429448968
16429450921
16429458062
16429461480
16429469598
16429473138
16429479302
16429486749
16429491204
16429495049
16429502618
16429507439
16429512017
16429517327
16429523614
16429529351
16429535577
16429540642
16429546197
16429550530
16429557183
16429562066
16429568474
16429573052
16429579217
16429584038
16429590081
16429594170
16429599480
16429604363
16429608269
16429615654
16429622063
16429627678
16429630974
16429639092
16429642571
16429649041
16429654656
16429660332
16429665398
16429671807
16429677788
16429686638
16429690972
16429701592
16429707817
16429713799
16429718376
16429728935
16429734673
16429741264
16429747063
16429751152
16429754265
16429761589
16429767937
16429772820
16429776115
16429782829
16429785881
16429792412
16429795891
16429802055
16429810722
16429816765
16429822075
16429827019
16429830131
16429836906
16429840507
16429846611
16429855583
16429859733
16429865898
16429870781
16429873955
16429881950
16429885185
16429892570
16429896354
16429902641
16429907219
16429913444
16429917411
16429925285
16429928825
16429934562
16429940055
16429945915
16429951164
16429957267
16429963249
16429969596
16429973930
16429981010
16429987052
16429992973
16429998344
16430005180
16430014518
16430020194
16430027763
16430037834
16430048698
16430054679
16430061210
16430065788
16430069450
16430078239
16430083305
16430090263
16430096366
16430101798
16430108939
16430114371
16430120963
16430126212
16430133353
16430138907
16430145621
16430151725
16430156425
16430163505
16430169669
16430176261
16430181998
16430190360
16430195731
16430199820
16430207999
16430213614
16430218314
16430223868
16430230826
16430237113
16430242667
16430249686
16430255240
16430260367
16430269889
16430278128
16430286551
16430290579
16430299552
16430306937
16430312064
16430318411
16430325064
16430330863
16430334830
16430340872
16430345328
16430350516
16430354910
16430360709
16430365225
16430372061
16430377066
16430383841
16430390433
16430394888
16430400687
16430405203
16430410879
16430417593
16430424307
16430430228
16430434805
16430440298
16430444571
16430447989
16430456900
16430462149
16430468863
16430472403
16430479483
16430482962
16430489981
16430493765
16430501700
16430506216
16430514029
16430519644
16430526175
16430531179
16430536245
16430542593
16430548452
16430553274
16430559622
16430565237
16430572439
16430577261
16430583364
16430589590
16430595449
16430603079
16430608450
16430614492
16430619436
16430624929
16430632131
16430637075
16430640859
16430647695
16430653738
16430660513
16430666372
16430673269
16430678335
16430683096
16430689931
16430696340
16430703298
16430710866
16430715688
16430721914
16430726919
16430733938
16430738882
16430744863
16430749868
16430755910
16430762380
16430772146
16430780691
16430784719
16430792531
16430798085
16430803518
16430808339
16430814199
16430819020
16430826284
16430833425
16430838674
16430843312
16430849904
16430856008
16430860097
16430869191
16430873891
16430881887
16430885915
16430894704
16430901174
16430907338
16430917043
16430921681
16430927724
16430934865
16430940724
16430947133
16430952870
16430957448
16430961964
16430968922
16430972829
16430980153
16430985341
16430991627
16430997060
16431001332
16431007008
16431013234
16431018605
16431025685
16431030446
16431036610
16431042042
16431047108
16431053151
16431059132
16431075978
16431082631
16431089283
16431093922
16431098683
16431103810
16431109730
16431115406
16431120167
16431124684
16431130604
16431135853
16431142506
16431148548
16431154225
16431160755
16431166127
16431171925
16431176747
16431183644
16431192005
16431198109
16431203480
16431209461
16431215504
16431222035
16431227772
16431232899
16431239185
16431245045
16431250660
16431258045
16431262806
16431267994
16431275318
16431280872
16431287281
16431292591
16431299732
16431305775
16431312672
16431318409
16431324390
16431329273
16431335743
16431340565
16431347095
16431352344
16431358509
16431364856
16431370411
16431376087
16431379627
16431388782
16431392505
16431400562
16431404407
16431411609
16431417774
16431424183
16431429920
16431435535
16431441455
16431448535
16431453907
16431459827
16431466419
16431468616
16431479724
16431486926
16431491931
16431502124
16431508655
16431515857
16431521961
16431529163
16431535571
16431541614
16431547473
16431554004
16431559680
16431565601
16431570300
16431577380
16431582385
16431588489
16431594958
16431601916
16431607104
16431613452
16431619861
16431621814
16431629993
16431634875
16431641467
16431646289
16431651843
16431656360
16431662646
16431666919
16431673388
16431678393
16431684131
16431689258
16431694507
16431700061
16431707385
16431714160
16431719958
16431725940
16431733569
16431740283
16431747302
16431753283
16431761035
16431766528
16431774645
16431779894
16431787707
16431793139
16431797534
16431807665
16431812365
16431818286
16431824511
16431828967
16431835192
16431841357
16431846423
16431854968
16431858385
16431864611
16431869799
16431876635
16431881029
16431888354
16431893725
16431898424
16431904711
16431909472
16431915331
16431921496
16431928332
16431930346
16431939379
16431944933
16431951037
16431954638
16431963610
16431967089
16431973253
16431978441
16431985033
16431990587
16431996569
16432001574
16432007494
16432012682
16432019030
16432023973
16432029161
16432036180
16432042345
16432047594
16432053759
16432058519
16432064196
16432070726
16432076097
16432082811
16432087755
16432093675
16432098253
16432107286
16432113329
16432118028
16432121629
16432129991
16432138536
16432145677
16432152757
16432156114
16432163316
16432167894
16432173875
16432180650
16432186021
16432190599
16432196275
16432201158
16432207323
16432212144
16432218248
16432223802
16432230272
16432235460
16432241136
16432245653
16432251878
16432257005
16432263170
16432269700
16432276902
16432282029
16432287584
16432292283
16432299546
16432303514
16432311204
16432315171
16432322007
16432326829
16432334092
16432340562
16432347154
16432353440
16432359117
16432366014
16432372056
16432378221
16432384141
16432387864
16432397691
16432401536
16432408616
16432415818
16432421311
16432428269
16432435105
16432439378
16432447495
16432451341
16432457749
16432463242
16432469041
16432475205
16432482529
16432487900
16432496995
16432503892
16432510667
16432516160
16432524155
16432529099
16432534897
16432539658
16432546006
16432552964
16432559434
16432565171
16432571579
16432575425
16432582993
16432586838
16432594651
16432601120
16432612168
16432623581
16432632798
16432642807
16432652695
16432661484
16432670456
16432679123
16432689926
16432699997
16432708664
16432717819
16432725815
16432736008
16432744675
16432754196
16432765976
16432774460
16432781723
16432788498
16432797836
16432807541
16432816086
16432824509
16432832809
16432841293
16432849167
16432856918
16432864914
16432875534
16432884201
16432892685
16432899948
16432907943
16432915756
16432923629
16432929916
16432939743
16432947555
16432955551
16432960433
16432971420
16432978927
16432987289
16432996627
16433002792
16433011947
16433018478
16433028610
16433035507
16433044357
16433051681
16433060287
16433067855
16433075607
16433080245
16433091781
16433101241
16433110580
16433119552
16433126632
16433134322
16433143050
16433151656
16433158431
16433168380
16433180343
16433189498
16433196151
16433204451
16433214034
16433221480
16433231246
16433240828
16433247664
16433257552
16433266036
16433273726
16433282576
16433290999
16433299849
16433305464
16433317671
16433324873
16433334029
16433343855
16433350630
16433361067
16433369734
16433377058
16433384993
16433393294
16433401839
16433409834
16433417158
16433426802
16433437666
16433444807
16433451582
16433458784
16433466658
16433474348
16433482283
16433490828
16433500105
16433507185
16433516890
16433526228
16433536421
16433546858
16433556379
16433569380
16433578413
16433587507
16433596418
16433605024
16433613203
16433622541
16433630598
16433638776
16433647138
16433656049
16433664838
16433671979
16433680280
16433689008
16433697187
16433702375
16433714582
16433719526
16433730146
16433738080
16433747114
16433751813
16433763959
16433772748
16433780805
16433788312
16433796308
16433804303
16433812970
16433821576
16433830426
16433837873
16433844709
16433854840
16433861676
16433871137
16433880170
16433888104
16433892926
16433902936
16433911176
16433919110
16433928693
16433936261
16433940717
16433948529
16433953534
16433959027
16433964459
16433969403
16433974896
16433980267
16433984601
16433990216
16433994549
16434000531
16434004986
16434009930
16434015301
16434019635
16434024823
16434027997
16434035626
16434040936
16434046795
16434052350
16434055401
16434061749
16434066693
16434071698
16434077130
16434081646
16434087994
16434092816
16434097882
16434103497
16434108746
16434113812
16434119915
16434125653
16434130596
16434135052
16434139691
16434144451
16434149945
16434157879
16434164898
16434170025
16434176861
16434181317
16434186810
16434191509
16434197857
16434203533
16434210919
16434215740
16434220379
16434225079
16434229656
16434234539
16434238384
16434244427
16434248638
16434253155
16434257977
16434263348
16434268230
16434273418
16434278484
16434283672
16434288616
16434293682
16434298748
16434303509
16434308452
16434313152
16434318462
16434325054
16434329632
16434334331
16434338787
16434342571
16434347576
16434352581
16434360088
16434364544
16434369549
16434374798
16434380291
16434382244
16434391643
16434397869
16434403789
16434408489
16434414959
16434420635
16434424724
16434433086
16434439189
16434446758
16434451519
16434456829
16434461406
16434468730
16434474101
16434485759
16434490825
16434495342
16434503520
16434507121
16434514873
16434518596
16434526286
16434530925
16434537822
16434541301
16434549480
16434555827
16434560222
16434565715
16434572551
16434576396
16434584575
16434588542
16434596721
16434600139
16434607585
