183937221624
183937225896
183937228826
183937232610
183937235174
183937238225
183937241949
183937245733
183937249578
183937252996
183937256109
183937259893
183937263433
183937266057
183937269048
183937271795
183937275701
183937279973
183937283208
183937287603
183937291814
183937296514
183937301824
183937305852
183937311223
183937314885
183937319280
183937324102
183937328374
183937332647
183937337346
183937341802
183937347051
183937351262
183937355291
183937359746
183937363408
183937368718
183937373296
183937377935
183937381902
183937386540
183937389836
183937394048
183937398870
183937403935
183937409001
183937413030
183937417241
183937420964
183937424870
183937429509
183937433476
183937437444
183937441655
183937445622
183937449773
183937454472
183937457524
183937462102
183937467168
183937471623
183937475896
183937483220
183937487736
183937493169
183937497929
183937503422
183937508733
183937512578
183937517155
183937522099
183937526066
183937531010
183937535161
183937540349
183937544682
183937548771
183937553532
183937557866
183937562321
183937566533
183937570439
183937576237
183937580143
183937584660
183937589360
183937593205
183937596806
183937602299
183937606999
183937611577
183937615727
183937620121
183937624272
183937629216
183937633244
183937637089
183937641850
183937646611
183937651188
183937654423
183937659672
183937662846
183937667729
183937671208
183937677189
183937680912
183937685551
183937690373
183937695194
183937699528
183937703983
183937708866
183937712345
183937717716
183937721440
183937726078
183937730473
183937734440
183937738834
183937743656
183937747440
183937753422
183937758854
183937763432
183937767521
183937773197
183937778751
183937783817
183937788212
183937792789
183937798649
183937802921
183937809757
183937815617
183937819523
183937825382
183937829044
183937834110
183937839420
183937844425
183937849369
183937854984
183937859501
183937865238
183937869755
183937874210
183937877140
183937881839
183937887821
183937894291
183937897831
183937902042
183937906131
183937911197
183937915714
183937919864
183937928775
183937934818
183937939090
183937945499
183937950321
183937953861
183937958194
183937963932
183937968387
183937972782
183937976139
183937981204
183937984806
183937989994
183937993778
183937999454
183938003909
183938008365
183938012760
183938017764
183938021304
183938027408
183938030887
183938035953
183938040469
183938045047
183938049136
183938054324
183938058414
183938062869
183938067264
183938071719
183938075748
183938081485
183938086246
183938091556
183938095401
183938099307
183938103397
183938108951
183938114322
183938119266
183938123660
183938128177
183938133243
183938137576
183938142520
183938146976
183938151858
183938155398
183938160159
183938165042
183938169925
183938174502
183938178348
183938185061
183938191043
183938195498
183938199344
183938203982
183938208865
183938211917
183938216800
183938223147
183938228823
183938233401
183938237124
183938243228
183938249087
183938252505
183938257693
183938263308
183938269168
183938274356
183938278079
183938282778
183938287661
183938292361
183938296694
183938302493
183938306643
183938311465
183938316897
183938321291
183938324893
183938329470
183938334902
183938340090
183938345583
183938351077
183938356753
183938362002
183938365481
183938369570
183938374392
183938378909
183938384646
183938389162
183938394106
183938397219
183938402346
183938406557
183938411928
183938416872
183938422732
183938427553
183938432375
183938435915
183938440920
183938444704
183938449709
183938453860
183938462221
183938466311
183938471743
183938475466
183938480532
183938485842
183938490725
183938494936
183938501528
183938505983
183938510927
183938515749
183938519350
183938524111
183938528627
183938532961
183938539553
183938545046
183938548647
183938553591
183938557253
183938563051
183938567324
183938570986
183938577822
183938582521
183938587282
183938592104
183938597475
183938601991
183938606691
183938610964
183938616152
183938620485
183938625063
183938629701
183938632814
183938639040
183938643495
183938647646
183938654115
183938659547
183938664247
183938669435
183938673158
183938678896
183938683168
183938687135
183938691774
183938697389
183938701540
183938706850
183938711427
183938715944
183938719545
183938725099
183938729371
183938735231
183938739686
183938743104
183938749269
183938752504
183938757570
183938761293
183938766176
183938771791
183938776735
183938781617
183938787538
183938791139
183938796998
183938800538
183938804811
183938811280
183938816774
183938820314
183938825319
183938829591
183938834230
183938837526
183938843873
183938849916
183938854554
183938859864
183938864076
183938868775
183938872499
183938876527
183938881349
183938887086
183938893128
183938897950
183938902955
183938906495
183938912843
183938916810
183938921754
183938929994
183938933961
183938938111
183938942933
183938947877
183938952149
183938956361
183938961488
183938968568
183938977662
183938984071
183938992127
183938999818
183939009217
183939017213
183939026124
183939033448
183939043030
183939050599
183939057496
183939066102
183939073426
183939078492
183939086670
183939099244
183939105835
183939116211
183939124024
183939132996
183939137574
183939147339
183939155213
183939162293
183939171570
183939179444
183939187500
183939193237
183939198914
183939203125
183939207886
183939212525
183939216736
183939220825
183939224976
183939231079
183939235352
183939239258
183939243713
183939247498
183939252197
183939256348
183939261841
183939267395
183939271667
183939275269
183939279968
183939283203
183939289551
183939292541
183939297974
183939302124
183939306213
183939310486
183939316101
183939320251
183939325439
183939330810
183939337036
183939340881
183939345215
183939349548
183939354065
183939358581
183939362488
183939368225
183939372436
183939376648
183939380249
183939385498
183939390075
183939394043
183939399231
183939403503
183939408264
183939412963
183939416442
183939420837
183939425048
183939430358
183939436279
183939441406
183939445495
183939450439
183939455871
183939459655
183939465820
183939470581
183939476318
183939480163
183939484558
183939489196
183939496337
183939501586
183939508911
183939514282
183939519103
183939522704
183939527709
183939533019
183939536926
183939542053
183939547546
183939552428
183939555663
183939561645
183939565368
183939571227
183939576965
183939583068
183939588134
183939592712
183939598205
183939601684
183939607787
183939612121
183939617065
183939622985
183939626464
183939632812
183939636840
183939642272
183939646361
183939653258
183939657653
183939662475
183939667602
183939672057
183939676024
183939680724
183939685668
183939691039
183939697326
183939702269
183939706359
183939711791
183939716613
183939721251
183939727538
183939732665
183939737242
183939742125
183939747191
183939752379
183939755492
183939761595
183939766722
183939770934
183939776610
183939781005
183939785155
183939790892
183939794798
183939801329
183939806334
183939811461
183939816283
183939821410
183939826598
183939829894
183939836974
183939843382
183939848387
183939853392
183939857970
183939863219
183939867735
183939872252
183939878233
183939884642
183939889891
183939893858
183939899168
183939903319
183939908812
183939914671
183939919981
183939924559
183939929808
183939934202
183939939085
183939942503
183939947325
183939953856
183939958800
183939964537
183939969359
183939975157
183939979796
183939984312
183939990110
183939996031
183940002317
183940006407
183940011412
183940015562
183940021177
183940027159
183940032530
183940035887
183940041014
183940045530
183940050230
183940054869
183940060484
183940065672
183940070127
183940075743
183940080381
183940084898
183940090086
183940094785
183940099729
183940105589
183940109068
183940115110
183940118650
183940124815
183940129881
183940135130
183940140257
183940146299
183940150510
183940155088
183940159788
183940164487
183940170164
183940176633
183940181211
183940186826
183940190794
183940195798
183940200010
183940205137
183940210447
183940216672
183940219968
183940224973
183940229307
183940233945
183940239438
183940244077
183940251157
183940255796
183940262082
183940266660
183940270688
183940275266
183940279905
183940286435
183940290220
183940296262
183940300290
183940304929
183940308957
183940313962
183940320371
183940325010
183940329770
183940334531
183940339170
183940343991
183940348630
183940354673
183940359433
183940365964
183940370236
183940374265
183940379880
183940384213
183940388730
183940395017
183940399411
183940404721
183940408566
183940414365
183940418149
183940424008
183940429623
183940435361
183940441403
183940446286
183940450925
183940455136
183940458859
183940464597
183940468259
183940475095
183940480710
183940484860
183940489499
183940493466
183940499325
183940505978
183940511044
183940515866
183940521054
183940524167
183940530392
183940535336
183940539792
183940544858
183940551571
183940556393
183940561276
183940565854
183940570248
183940575131
183940581967
183940587216
183940592587
183940596310
183940601925
183940606991
183940611081
183940617428
183940622311
183940627133
183940631771
183940636227
183940641415
183940644955
183940651608
183940657101
183940661862
183940667477
183940671383
183940676205
183940680538
183940686276
183940691342
183940699032
183940704830
183940710629
183940715939
183940720455
183940725704
183940730343
183940735836
183940740414
183940746883
183940751583
183940756466
183940761166
183940766964
183940770687
183940777340
183940782040
183940786129
183940792171
183940796749
183940801510
183940806393
183940811031
183940815914
183940820675
183940825313
183940830135
183940835567
183940840267
183940847469
183940851436
183940857906
183940862972
183940869075
183940874141
183940879757
183940883968
183940890377
183940894649
183940900020
183940906551
183940911068
183940917965
183940923153
183940929256
183940934383
183940940303
183940944698
183940950191
183940955745
183940961055
183940966304
183940971492
183940976497
183940983394
183940987911
183940994136
183941000240
183941004756
183941010188
183941016353
183941021602
183941026180
183941031368
183941036494
183941046931
183941056453
183941063228
183941073054
183941081966
183941093623
183941102779
183941113277
183941122249
183941129146
183941138789
183941146113
183941154902
183941165522
183941173091
183941185054
183941191279
183941195796
183941201472
183941206782
183941210810
183941215693
183941221492
183941226374
183941231257
183941236811
183941240596
183941245356
183941249934
183941254328
183941261225
183941265986
183941269953
183941275141
183941281062
183941285578
183941290034
183941296320
183941300654
183941304011
183941309077
183941313105
183941317805
183941321528
183941327143
183941331965
183941335932
183941341914
183941346247
183941351130
183941356257
183941359919
183941366511
183941371333
183941376032
183941381403
183941386469
183941391962
183941397089
183941401606
183941407099
183941413386
183941417963
183941424250
183941428278
183941435602
183941441340
183941447687
183941452936
183941457880
183941463862
183941469050
183941475031
183941480280
183941487055
183941492487
183941497187
183941503534
183941509455
183941514582
183941519648
183941525141
183941531366
183941537531
183941542963
183941548151
183941553705
183941558161
183941564447
183941569757
183941576410
183941581171
183941587152
183941592218
183941598566
183941604730
183941609064
183941616510
183941622858
183941627557
183941634210
183941638605
183941646539
183941650995
183941656671
183941663995
183941669672
183941674554
183941679925
183941685236
183941690607
183941696039
183941702142
183941707391
183941712945
183941719476
183941724847
183941730340
183941736139
183941741327
183941747247
183941752557
183941758050
183941763299
183941768792
183941774774
183941778985
183941786004
183941790460
183941796807
183941803399
183941807977
183941814264
183941818841
183941824639
183941831475
183941836480
183941842828
183941848077
183941852716
183941860345
183941865289
183941870233
183941876702
183941882440
183941887200
183941891839
183941896539
183941902581
183941905816
183941911492
183941917535
183941922601
183941927911
183941932855
183941938226
183941942864
183941948785
183941953973
183941960686
183941965874
183941971184
183941976861
183941982598
183941988030
183941993645
183941998406
183942005669
183942010735
183942016839
183942020379
183942028130
183942033623
183942039177
183942045403
183942051262
183942056939
183942062554
183942068108
183942073967
183942079400
183942084649
183942090386
183942096306
183942101799
183942106499
183942112053
183942117607
183942122673
183942127617
183942133171
183942137444
183942142693
183942148369
183942152336
183942158745
183942162468
183942170464
183942176201
183942181450
183942187004
183942191460
183942198113
183942203301
183942208489
183942214897
183942220329
183942226799
183942233025
183942237175
183942244072
183942248283
183942254082
183942260124
183942265984
183942269401
183942277397
183942282890
183942287285
183942292717
183942299736
183942305290
183942310661
183942315239
183942320305
183942326042
183942331901
183942337333
183942341972
183942346550
183942352653
183942358024
183942362419
183942367363
183942373771
183942378898
183942384269
183942390739
183942395195
183942401603
183942406242
183942412407
183942418144
183942422843
183942427482
183942432853
183942437187
183942442924
183942447807
183942452629
183942457633
183942463981
183942469108
183942474845
183942478080
183942484672
183942489799
183942494987
183942501029
183942505546
183942510185
183942515800
183942520561
183942525199
183942530265
183942534171
183942539420
183942545036
183942550285
183942555839
183942559745
183942566276
183942570060
183942575126
183942580619
183942585502
183942590690
183942596122
183942601493
183942605643
183942610709
183942616141
183942622672
183942626945
183942630057
183942637137
183942641471
183942646171
183942651542
183942657157
183942662894
183942667289
183942672232
183942676322
183942682853
183942687735
183942692801
183942700675
183942705558
183942712394
183942717154
183942722159
183942726432
183942730887
183942734732
183942740592
183942746451
183942750907
183942757376
183942762747
183942766837
183942771903
183942778617
183942785147
183942789908
183942795889
183942800589
183942806265
183942810843
183942817252
183942822928
183942829520
183942834097
183942838065
183942842581
183942847769
183942851248
183942857413
183942862662
183942867117
183942873587
183942877981
183942883414
183942889151
183942893301
183942898855
183942903860
183942908743
183942915274
183942919913
183942924856
183942929556
183942933706
183942941702
183942947500
183942951712
183942957144
183942962210
183942967581
183942970938
183942976004
183942981619
183942989004
183942993948
183942998098
183943003653
183943007986
183943013174
183943018484
183943023428
183943029959
183943034964
183943040213
183943045034
183943050466
183943055288
183943061514
183943066030
183943071523
183943077871
183943081655
183943086904
183943091909
183943097707
183943103628
183943108022
183943114919
183943119497
183943124319
183943128896
183943135244
183943141531
183943146658
183943151357
183943157522
183943161611
183943167043
183943171804
183943176870
183943183095
183943188711
183943193655
183943199758
183943204214
183943209463
183943214223
183943219533
183943225698
183943231923
183943239187
183943249013
183943255849
183943264821
183943272512
183943283010
183943292043
183943301931
183943311330
183943320424
183943328725
183943338002
183943345693
183943355092
183943364186
183943371633
183943381459
183943386647
183943392018
183943396779
183943403249
183943408437
183943412587
183943418568
183943423207
183943428639
183943432179
183943437489
183943442433
183943447682
183943452992
183943456654
183943461903
183943465749
183943470814
183943476674
183943482960
183943487233
183943492116
183943496571
183943500233
183943505726
183943510670
183943515370
183943519826
183943525380
183943530934
183943535023
183943540028
183943547352
183943551442
183943556386
183943562733
183943566456
183943571644
183943576588
183943581532
183943588063
183943592945
183943598194
183943604786
183943609486
183943615528
183943619984
183943628590
183943633351
183943640248
183943644215
183943649281
183943654530
183943659474
183943664417
183943669789
183943675587
183943680103
183943686634
183943692066
183943696278
183943702686
183943708729
183943714771
183943719288
183943725208
183943730213
183943735584
183943738819
183943744678
183943750660
183943757313
183943762745
183943767994
183943773243
183943779346
183943783253
183943788990
183943795521
183943801441
183943806873
183943811146
183943817615
183943822071
183943826954
183943834705
183943839649
183943845203
183943851490
183943856617
183943861194
183943865833
183943871814
183943877247
183943883838
183943888904
183943893909
183943899219
183943903431
183943908435
183943915088
183943921619
183943927539
183943931690
183943937915
183943943103
183943947620
183943950916
183943956226
183943962512
183943967761
183943973255
183943977832
183943983753
183943988208
183943994312
183944000903
183944006458
183944011585
183944017078
183944021838
183944027698
183944031726
183944038379
183944043872
183944050281
183944054980
183944059131
183944064624
183944069385
183944074817
183944080493
183944085681
183944090625
183944096484
183944100940
183944107226
183944112353
183944116687
183944123950
183944130420
183944135669
183944140674
183944145617
183944150134
183944155200
183944160449
183944166430
183944172229
183944177905
183944181689
183944188037
183944192187
183944197192
183944204699
183944209704
183944214587
183944221179
183944226245
183944232409
183944237658
183944242602
183944249804
183944255114
183944259020
183944264575
183944269641
183944274035
183944278979
183944283740
183944291186
183944296679
183944302416
183944306994
183944312548
183944317065
183944322375
183944327502
183944333971
183944339342
183944344347
183944349596
183944355395
183944360644
183944365588
183944370898
183944376757
183944381090
183944387926
183944391466
183944397936
183944403307
183944408556
183944414477
183944418932
183944425646
183944430712
183944436510
183944441576
183944446276
183944453661
183944459398
183944465380
183944469957
183944475023
183944479540
183944484667
183944489183
183944496263
183944502001
183944508715
183944512987
183944518724
183944522875
183944529283
183944534349
183944540514
183944545519
183944552599
183944557726
183944561998
183944567003
183944572252
183944578417
183944584886
183944589037
183944594896
183944598741
183944605211
183944611009
183944615709
183944621874
183944627794
183944632249
183944638170
183944643297
183944647874
183944652757
183944657640
183944664354
183944669908
183944674974
183944680101
183944686143
183944691453
183944696641
183944701829
183944707078
183944712266
183944717698
183944722703
183944726304
183944731004
183944735460
183944742784
183944747728
183944752855
183944756639
183944761705
183944767076
183944771104
183944777879
183944782823
183944788194
183944794419
183944799546
183944805101
183944808457
183944814561
183944820176
183944826158
183944831101
183944836106
183944841233
183944845445
183944848863
183944856065
183944862046
183944868943
183944873948
183944878159
183944882554
183944887010
183944892930
183944897935
183944903794
183944909470
183944914353
183944919419
183944924790
183944929673
183944933762
183944940659
183944946702
183944952500
183944956162
183944961289
183944965440
183944971665
183944976365
183944981919
183944986619
183944992783
183944997300
183945003831
183945007920
183945012742
183945017869
183945024399
183945029954
183945035264
183945040268
183945044480
183945049485
183945054795
183945060410
183945067368
183945070908
183945077988
183945081528
183945088242
183945093674
183945098374
183945104111
183945109543
183945115036
183945119553
183945125778
183945130722
183945135117
183945142990
183945147995
183945154160
183945160202
183945163986
183945169907
183945173752
183945179733
183945186447
183945193039
183945197495
183945201584
183945208359
183945212753
183945217636
183945223312
183945228989
183945235886
183945240158
183945244858
183945250473
183945255661
183945261398
183945268661
183945273483
183945278671
183945284042
183945289108
183945293197
183945298141
183945303818
183945310226
183945314926
183945318283
183945325607
183945330185
183945336044
183945340988
183945346054
183945351547
183945358444
183945363144
183945367721
183945372726
183945377792
183945382797
183945388168
183945393905
183945398971
183945404281
183945415573
183945423141
183945432296
183945442001
183945452133
183945462692
183945471481
183945480331
183945493820
183945502670
183945511153
183945516525
183945530013
183945538680
183945548446
183945557296
183945564254
183945570907
183945574447
183945581283
183945585738
183945591048
183945596236
183945600753
183945605941
183945610579
183945616378
183945620955
183945626937
183945631576
183945636031
183945640059
183945645858
183945651473
183945656600
183945661177
183945666671
183945671065
183945674788
183945679122
183945683699
183945690230
183945694075
183945698653
183945703353
183945707747
183945712630
183945717391
183945723860
183945728682
183945734419
183945739485
183945743636
183945748641
183945754866
183945760420
183945765914
183945769942
183945776961
183945780684
183945785506
183945790633
183945795271
183945800398
183945804732
183945813765
183945818221
183945823653
183945829573
183945835005
183945839583
183945844588
183945850020
183945855147
183945860091
183945865156
183945869429
183945875838
183945881026
183945885725
183945891768
183945896467
183945901655
183945907026
183945911909
183945915938
183945923323
183945927900
183945933638
183945938093
183945942854
183945949934
183945955488
183945960432
183945966536
183945971968
183945977156
183945982161
183945987349
183945992475
183945997969
183946004988
183946009687
183946015425
183946020735
183946026838
183946031599
183946037641
183946043073
183946048384
183946053388
183946058882
183946063825
183946069319
183946074079
183946080305
183946085432
183946090070
183946096723
183946102888
183946108015
183946113752
183946119794
183946125593
183946129743
183946136823
183946142133
183946147993
183946152082
183946158185
183946162397
183946169660
183946175580
183946180829
183946186567
183946190351
183946196515
183946202497
183946207258
183946213910
183946219282
183946224653
183946230024
183946236188
183946240217
183946246747
183946252362
183946257856
183946263715
183946269941
183946275983
183946280622
183946285993
183946292035
183946298017
183946303083
183946309064
183946313947
183946320111
183946325360
183946330243
183946337018
183946343610
183946347577
183946352948
183946359235
183946365521
183946371442
183946376325
183946382306
183946386273
183946393903
183946399762
183946404828
183946409833
183946414532
183946421185
183946426739
183946432843
183946438275
183946443951
183946449506
183946455853
183946460675
183946466412
183946472638
183946478558
183946484295
183946489422
183946494732
183946499310
183946505353
183946511822
183946517743
183946522381
183946528119
183946534344
183946539288
183946545453
183946550641
183946556073
183946561444
183946566876
183946571576
183946577984
183946582562
183946589825
183946595929
183946600567
183946607098
183946611431
183946618878
183946623211
183946630718
183946635052
183946639874
183946646649
183946652630
183946657940
183946663799
183946668560
183946675274
183946680950
183946686993
183946693585
183946698406
183946702862
183946709759
183946715313
183946721966
183946727642
183946731792
183946737286
183946744060
183946748089
183946755413
183946761089
183946766277
183946772320
183946777569
183946783428
183946788738
183946794414
183946800701
183946805828
183946811565
183946817180
183946822796
183946828594
183946833843
183946839153
183946843792
183946849102
183946855693
183946860759
183946865703
183946870708
183946877300
183946881511
183946887920
183946893169
183946898052
183946903850
183946909893
183946914775
183946920696
183946926372
183946931255
183946936870
183946941387
183946946941
183946951274
183946958171
183946963603
183946968364
183946972942
183946979717
183946984660
183946990337
183946995891
183947001750
183947007610
183947012370
183947017436
183947022929
183947029765
183947034282
183947038310
183947043803
183947051067
183947056804
183947061809
183947066814
183947072612
183947077556
183947083659
183947089458
183947096232
183947102092
183947107280
183947111857
183947117900
183947122050
183947127787
183947133342
183947137919
183947144328
183947149821
183947155070
183947161723
183947166972
183947172526
183947177531
183947182780
183947188639
183947192729
183947198954
183947204325
183947208781
183947214579
183947221354
183947225688
183947231242
183947237467
183947241740
183947248332
183947254801
183947260417
183947265849
183947270670
183947276286
183947281779
183947287638
183947292826
183947298197
183947303019
183947308146
183947314799
183947318522
183947324198
183947327921
183947333414
183947341044
183947345805
183947350687
183947356242
183947360514
183947367228
183947372355
183947377787
183947384745
183947389384
183947394633
183947400248
183947406229
183947411478
183947417093
183947422831
183947427836
183947434061
183947439920
183947445780
183947451395
183947457071
183947462748
183947469034
183947473368
183947480020
183947485514
183947491373
183947496988
183947502176
183947507547
183947512674
183947518839
183947524515
183947531473
183947535929
183947542581
183947547586
183947551920
183947558206
183947563028
183947568826
183947575235
183947582132
183947587625
183947592264
183947599527
183947603555
183947610818
183947616190
183947620523
183947625955
183947635660
183947643350
183947653238
183947663125
183947671670
183947684244
183947693338
183947704019
183947712076
183947719339
183947726968
183947734109
183947741616
183947750650
183947758523
183947767312
183947776529
183947782449
183947787027
183947790811
183947797158
183947801492
183947806619
183947812905
183947817544
183947821450
183947826272
183947831399
183947836404
183947840127
183947845620
183947849526
183947855935
183947860391
183947865273
183947869180
183947874307
183947878152
183947882851
183947889382
183947893960
183947898049
183947903298
183947907204
183947912759
183947917153
183947921670
183947927712
183947932473
183947938454
183947943642
183947948159
183947953347
183947957925
183947961587
183947966592
183947971963
183947978554
183947982033
183947988686
183947994423
183947998818
183948004067
183948009255
183948014992
183948020913
183948026406
183948031228
183948036660
183948042153
183948045449
183948052346
183948059426
183948064186
183948069130
183948075356
183948080544
183948085915
183948089943
183948094094
183948102577
183948108071
183948112831
183948119301
183948123574
183948128823
183948134316
183948139931
183948145058
183948151650
183948156716
183948162026
183948167824
183948171120
183948177467
183948182594
183948188515
183948194740
183948201149
183948205971
183948209572
183948215126
183948220619
183948226540
183948231972
183948236854
183948242653
183948249367
183948253334
183948258705
183948264259
183948268959
183948273781
183948280128
183948287452
183948293129
183948296974
183948304909
183948309913
183948315468
183948320595
183948327125
183948332618
183948336525
183948342933
183948348487
183948353981
183948360694
183948365394
183948371803
183948376075
183948382057
183948386940
183948392616
183948399147
183948402931
183948409278
183948414527
183948420753
183948425575
183948431495
183948436073
183948442298
183948447425
183948452003
183948457679
183948463233
183948468177
183948474708
183948480689
183948485389
183948491065
183948496009
183948501929
183948507911
183948513526
183948519752
183948523780
183948530189
183948537269
183948542701
183948548011
183948552650
183948558936
183948563697
183948570411
183948575843
183948582862
183948587501
183948592505
183948597205
183948603126
183948608375
183948614600
183948622168
183948627173
183948632911
183948637305
183948642432
183948648658
183948654456
183948659949
183948664893
183948670081
183948674720
183948679419
183948684058
183948688086
183948693579
183948701148
183948705969
183948710181
183948716162
183948720496
183948724219
183948730383
183948735571
183948739478
183948745093
183948749610
183948753882
183948758399
183948763403
183948768958
183948774817
183948779456
183948783850
183948789343
183948793433
183948798987
183948805518
183948811133
183948814795
183948819739
183948824255
183948828772
183948833594
183948837927
183948844885
183948849951
183948854590
183948859656
183948865515
183948870032
183948875525
183948881811
183948888037
183948891943
183948897864
183948902868
183948907568
183948912512
183948917883
183948924780
183948930761
183948936194
183948940710
183948945898
183948949926
183948955603
183948960852
183948967688
183948972631
183948978308
183948982946
183948988501
183948993078
183948998754
183949003637
183949009374
183949014685
183949021276
183949026037
183949030554
183949035253
183949040869
183949046850
183949052587
183949057775
183949063390
183949069006
183949073034
183949079015
183949083227
183949089758
183949094701
183949100622
183949105199
183949110082
183949114721
183949120519
183949127843
183949133092
183949138158
183949142553
183949147802
183949152807
183949157934
183949163488
183949169225
183949174718
183949179784
183949184789
183949191076
183949195165
183949200658
183949206456
183949212438
183949216893
183949222387
183949226903
183949231359
183949236486
183949241552
183949249120
183949254186
183949259130
183949264135
183949269200
183949274205
183949279515
183949283971
183949291844
183949296178
183949301427
183949305760
183949310887
183949315099
183949320104
183949325414
183949331944
183949337560
183949342259
183949347875
183949353307
183949358495
183949364720
183949369603
183949375157
183949381261
183949385594
183949390843
183949396642
183949400609
183949408238
183949413853
183949418553
183949424168
183949428319
183949433995
183949437169
183949442967
183949448277
183949454930
183949460057
183949465062
183949470189
183949474705
183949479832
183949485386
183949492283
183949497227
183949502598
183949507237
183949513218
183949517857
183949523106
183949528416
183949533726
183949540684
183949545750
183949549168
183949554966
183949560032
183949566258
183949571751
183949576451
183949581394
183949586460
183949591221
183949596531
183949601353
183949605503
183949611485
183949618321
183949624180
183949628514
183949633213
183949638828
183949643284
183949648289
183949655003
183949660069
183949664585
183949670445
183949675755
183949680576
183949684300
183949691074
183949697971
183949704014
183949710361
183949715000
183949719212
183949725071
183949731296
183949737095
183949742954
183949748630
183949751987
183949758518
183949763706
183949767978
183949775181
183949779819
183949784763
183949790500
183949795383
183949800266
183949804844
183949810154
183949817661
183949824924
183949834018
183949840183
183949845859
183949853183
183949861362
183949868015
183949874546
183949884250
183949891880
183949904392
