11086247803
11086254211
11086261169
11086269836
11086277283
11086284973
11086294372
11086301575
11086308533
11086314453
11086320556
11086333435
11086340210
11086347839
11086356872
11086364502
11086371277
11086379882
11086388000
11086394165
11086401672
11086406494
11086414184
11086420654
11086426757
11086434448
11086440795
11086448913
11086455566
11086464538
11086470947
11086477722
11086486572
11086492553
11086501525
11086508117
11086515136
11086522765
11086529540
11086538085
11086546142
11086551635
11086557067
11086566955
11086573852
11086580993
11086588744
11086595397
11086603576
11086610839
11086617309
11086624022
11086630248
11086636107
11086641173
11086649230
11086653258
11086662841
11086669799
11086674315
11086681456
11086689391
11086696593
11086702269
11086709960
11086716490
11086723693
11086729430
11086735961
11086743224
11086749816
11086757018
11086762511
11086768797
11086775023
11086781493
11086787596
11086792601
11086800658
11086806456
11086812438
11086819457
11086824034
11086830870
11086837706
11086844298
11086850645
11086856200
11086861876
11086868162
11086874510
11086882811
11086890257
11086896971
11086903136
11086907591
11086914732
11086920958
11086926939
11086934752
11086941771
11086947264
11086953734
11086959898
11086965147
11086971067
11086978758
11086985838
11086994810
11087002745
11087011106
11087020994
11087027159
11087034056
11087041441
11087049620
11087057066
11087064207
11087070738
11087077268
11087083555
11087090269
11087098142
11087106321
11087113096
11087120115
11087127195
11087136045
11087142454
11087149778
11087155759
11087161497
11087170713
11087175474
11087185483
11087193357
11087202939
11087210813
11087217039
11087224729
11087229917
11087240232
11087247312
11087255491
11087262693
11087270749
11087277646
11087284299
11087293393
11087298520
11087308469
11087316709
11087322446
11087332089
11087339780
11087348630
11087353269
11087362973
11087370114
11087377500
11087384213
11087392453
11087401608
11087407651
11087416684
11087420895
11087430417
11087435422
11087446225
11087452817
11087462155
11087470700
11087477597
11087487607
11087495663
11087507016
11087515500
11087525509
11087534482
11087543637
11087554074
11087558285
11087573056
11087576962
11087591793
11087599118
11087610897
11087621212
11087629391
11087638119
11087646054
11087657650
11087664303
11087674862
11087684384
11087694759
11087706478
11087715511
11087725582
11087732723
11087752315
11087765316
11087773250
11087789730
11087800533
11087812252
11087822384
11087835018
11087844661
11087855037
11087863765
11087871761
11087884883
11087895504
11087904659
11087913509
11087921871
11087932308
11087942073
11087952022
11087961238
11087965999
11087983638
11087992244
11088003047
11088009029
11088021297
11088030391
11088039119
11088049739
11088060603
11088070430
11088079402
11088089107
11088097835
11088109614
11088116389
11088124751
11088135005
11088143733
11088151729
11088167598
11088175166
11088185298
11088194331
11088202815
11088214106
11088221186
11088231501
11088240351
11088250666
11088264155
11088271540
11088284541
11088294734
11088304560
11088313715
11088322443
11088331477
11088341853
11088351740
11088361872
11088370234
11088382380
11088391047
11088402704
11088411677
11088422419
11088431391
11088439325
11088453852
11088460383
11088472895
11088482050
11088490473
11088501215
11088507318
11088520563
11088529352
11088538385
11088550592
11088558588
11088570001
11088579157
11088588617
11088597955
11088607965
11088618524
11088627985
11088639276
11088648798
11088655756
11088669000
11088674982
11088687738
11088696710
11088705255
11088716241
11088722223
11088736383
11088745904
11088754693
11088765252
11088772332
11088784539
11088793512
11088802667
11088811700
11088822869
11088833123
11088842889
11088853265
11088862664
11088869927
11088884637
11088890679
11088902825
11088911980
11088919854
11088937554
11088948296
11088961724
11088975579
11088989190
11089003045
11089013482
11089024041
11089033501
11089044426
11089053521
11089063897
11089073845
11089084404
11089093438
11089097771
11089113091
11089120598
11089136528
11089147637
11089155144
11089164238
11089171623
11089184380
11089194695
11089203667
11089212761
11089226006
11089236748
11089245109
11089259209
11089269096
11089282524
11089293937
11089303825
11089313835
11089325004
11089335258
11089343315
11089356254
11089366996
11089380058
11089390922
11089396232
11089409538
11089417350
11089432365
11089443412
11089454582
11089465568
11089469962
11089483939
11089494560
11089507499
11089517692
11089529838
11089540397
11089552604
11089561881
11089568961
11089580375
11089589713
11089593741
11089608024
11089615592
11089629386
11089640067
11089647696
11089656974
11089668814
11089677787
11089687918
11089696768
11089705863
11089713553
11089726370
11089737601
11089745719
11089754874
11089767081
11089776541
11089783804
11089795096
11089804190
11089816519
11089826651
11089833670
11089845511
11089855948
11089865347
11089874380
11089882925
11089894583
11089900686
11089914969
11089924551
11089928885
11089944754
11089951956
11089961782
11089970938
11089979666
11089990164
11090003225
11090013906
11090024954
11090032461
11090041921
11090054312
11090063467
11090070852
11090082388
11090091360
11090096182
11090113271
11090121999
11090135488
11090146291
11090159841
11090171865
11090182302
11090193349
11090203481
11090219045
11090227407
11090242177
11090253286
11090264211
11090274953
11090289296
11090298879
11090314443
11090324575
11090332997
11090345021
11090352284
11090361440
11090374562
11090378652
11090391469
11090398122
11090409901
11090418996
11090428700
11090439870
11090447804
11090457631
11090467030
11090476735
11090485951
11090497365
11090510487
11090520070
11090529957
11090536183
11090546803
11090558766
11090567311
11090577259
11090588673
11090602650
11090610157
11090622425
11090631092
11090637623
11090650807
11090657032
11090667164
11090675099
11090688160
11090696766
11090704090
11090715443
11090721546
11090730885
11090738697
11090749927
11090757618
11090765858
11090777149
11090784473
11090796558
11090806873
11090816944
11090827564
11090836536
11090846485
11090852832
11090868213
11090878101
11090886646
11090900135
11090907520
11090918140
11090927356
11090938220
11090947803
11090955737
11090967822
11090979175
11090989185
11090997913
11091005969
11091016284
11091026355
11091034228
11091046802
11091059314
11091067615
11091079822
11091089404
11091101306
11091112414
11091123279
11091134326
11091145312
11091151599
11091167346
11091175769
11091187670
11091194689
11091206958
11091212939
11091221545
11091235278
11091243273
11091255602
11091266772
11091278002
11091287280
11091296069
11091305102
11091316149
11091327563
11091336962
11091349963
11091359850
11091368334
11091383227
11091394579
11091402575
11091415575
11091420275
11091436632
11091444201
11091456774
11091467516
11091476183
11091484545
11091492601
11091501879
11091511278
11091522508
11091531175
11091535448
11091552538
11091559801
11091570421
11091579759
11091589708
11091598375
11091606737
11091617296
11091623888
11091635606
11091646287
11091657823
11091666551
11091675828
11091688829
11091696031
11091708909
11091714952
11091730455
11091739976
11091748765
11091757066
11091767198
11091776658
11091785813
11091793077
11091805955
11091816697
11091828965
11091836045
11091844590
11091856309
11091868089
11091875596
11091884934
11091895066
11091904099
11091919480
11091928635
11091938706
11091948777
11091957993
11091966843
11091975937
11091986252
11091997544
11092006638
11092011521
11092027878
11092035630
11092047654
11092057297
11092065659
11092074509
11092085190
11092093857
11092105271
11092113083
11092121567
11092132858
11092141709
11092148605
11092158981
11092168442
11092177780
11092190720
11092202377
11092211166
11092222641
11092232040
11092239609
11092252792
11092263290
11092276657
11092283371
11092299118
11092308944
11092313461
11092328903
11092339767
11092347824
11092361068
11092365585
11092380722
11092388473
11092401473
11092411422
11092420700
11092434554
11092442245
11092454391
11092464889
11092469222
11092487472
11092495589
11092508529
11092520064
11092525008
11092539413
11092547103
11092559615
11092571029
11092585006
11092596175
11092605147
11092619002
11092631881
11092643477
11092653975
11092662764
11092672957
11092684127
11092695601
11092705672
11092714278
11092722701
11092735091
11092743636
11092750472
11092761275
11092769759
11092780928
11092789412
11092796431
11092809920
11092817000
11092827742
11092836592
11092845930
11092857649
11092865950
11092874922
11092890913
11092900740
11092907637
11092920637
11092929915
11092937239
11092949629
11092961225
11092972761
11092982588
11092992231
11093004438
11093012495
11093026228
11093036054
11093040632
11093055158
11093066450
11093076765
11093085981
11093095441
11093108137
11093120283
11093129804
11093140546
11093148359
11093160810
11093170576
11093179975
11093187543
11093200544
11093210004
11093220807
11093230207
11093242780
11093250714
11093260114
11093273114
11093282453
11093291791
11093302655
11093313214
11093323346
11093332929
11093342450
11093351911
11093362470
11093374249
11093384991
11093393292
11093402631
11093415387
11093424786
11093435406
11093444317
11093453900
11093462567
11093475995
11093483441
11093494793
11093503949
11093512921
11093525677
11093535931
11093548260
11093558697
11093568524
11093577740
11093586773
11093599224
11093606487
11093618206
11093627606
11093637310
11093647015
11093659039
11093668621
11093678936
11093691082
11093700359
11093710674
11093720257
11093727947
11093738811
11093748760
11093760662
11093770122
11093777630
11093791851
11093803264
11093813884
11093825298
11093834758
11093850200
11093858928
11093871318
11093881145
11093890727
11093898967
11093911235
11093918620
11093925640
11093935588
11093944682
11093951274
11093959697
11093966594
11093973552
11093981609
11093987956
11093995586
11094001933
11094010722
11094017314
11094025615
11094032939
11094040752
11094047038
11094057048
11094063334
11094070842
11094079020
11094085612
11094096843
11094103557
11094109965
11094117778
11094125468
11094133342
11094141459
11094149943
11094156657
11094163676
11094172526
11094179545
11094187236
11094193522
11094203471
11094209635
11094218485
11094227152
11094232890
11094241129
11094249674
11094255961
11094263712
11094271220
11094277995
11094287272
11094294291
11094303080
11094310160
11094317972
11094324320
11094333170
11094339396
11094348795
11094356974
11094364298
11094370463
11094378153
11094386454
11094394449
11094401346
11094408243
11094416117
11094422953
11094432596
11094439554
11094447733
11094454752
11094461466
11094469828
11094478067
11094486856
11094493631
11094501932
11094508768
11094516947
11094522806
11094531961
11094537027
11094546915
11094555032
11094563821
11094568582
11094577921
11094584756
11094593118
11094602090
11094609170
11094615640
11094624612
11094630777
11094639627
11094648233
11094655679
11094664956
11094671731
11094681192
11094690225
11094701822
11094704751
11094716531
11094722940
11094732400
11094741800
11094750100
11094755044
11094765237
11094770120
11094778421
11094785440
11094793557
11094802773
11094810464
11094817422
11094824624
11094830666
11094839150
11094847390
11094853310
11094862588
11094867776
11094878213
11094882912
11094891701
11094898843
11094908120
11094914895
11094923135
11094929909
11094938210
11094944497
11094953408
11094959572
11094968972
11094975136
11094980935
11094991372
11094997414
11095006203
11095014443
11095020668
11095027749
11095036354
11095044106
11095051796
11095061196
11095068886
11095075844
11095083290
11095089516
11095098854
11095105385
11095111489
11095121315
11095127419
11095136635
11095141396
11095152138
11095157204
11095165932
11095173012
11095181190
11095187599
11095197426
11095203468
11095211525
11095219887
11095227333
11095233497
11095242287
11095248756
11095256691
11095265358
11095270302
11095280067
11095286964
11095295204
11095302162
11095309608
11095318580
11095326393
11095332435
11095341590
11095347755
11095356849
11095363380
11095373023
11095379798
11095385414
11095399208
11095405067
11095415565
11095420509
11095431068
11095439124
11095446693
11095456031
11095465614
11095477027
11095495216
11095511573
11095527564
11095541785
11095555579
11095560096
11095578467
11095587623
11095604407
11095615943
11095629859
11095641089
11095649451
11095659522
11095667456
11095681677
11095692542
11095703040
11095713049
11095717444
11095735388
11095742468
11095752417
11095761816
11095775305
11095784338
11095793799
11095803564
11095813147
11095822485
11095830969
11095842627
11095851294
11095862585
11095871191
11095878088
11095889196
11095897986
11095910254
11095919043
11095927282
11095938757
11095949194
11095959326
11095969396
11095979650
11095989660
11096000830
11096012670
11096024084
11096028784
11096046606
11096055029
11096066747
11096076940
11096087621
11096097204
11096108984
11096119237
11096125768
11096139074
11096148656
11096157506
11096168065
11096178197
11096187902
11096197240
11096205846
11096220372
11096228002
11096238378
11096247960
11096259313
11096271764
11096280736
11096291356
11096302037
11096310399
11096319005
11096327245
11096339452
11096351781
11096363866
11096371007
11096384557
11096390904
11096399510
11096414464
11096422276
11096433629
11096443089
11096453770
11096466404
11096475071
11096486119
11096493504
11096505162
11096514805
11096523411
11096534581
11096545018
11096556980
11096563145
11096576756
11096586338
11096593723
11096606602
11096612705
11096624912
11096634251
11096641697
11096655430
11096665562
11096676792
11096686130
11096697117
11096706821
11096714268
11096728916
11096740513
11096766819
11096779209
11096787021
11096801670
11096811008
11096819858
11096829624
11096839389
11096849399
11096858799
11096866916
11096875522
11096886569
11096895969
11096905673
11096914401
11096923374
11096935336
11096944064
11096950717
11096963474
11096973056
11096984775
11096993320
11096997348
11097012485
11097019687
11097032565
11097039401
11097051364
11097060214
11097068637
11097081942
11097090548
11097100375
11097111056
11097121798
11097131320
11097139987
11097149142
11097158724
11097170382
11097176669
11097185702
11097199130
11097206820
11097222262
11097228671
11097241427
11097250765
11097259554
11097270480
11097281344
11097291537
11097301119
11097312655
11097322115
11097329317
11097341402
11097350985
11097361910
11097371187
11097381014
11097393343
11097400789
11097414400
11097420748
11097433870
11097443392
11097452425
11097463106
11097473421
11097481844
11097494417
11097498934
11097516939
11097524385
11097537080
11097547884
11097557222
11097566743
11097575410
11097585847
11097597139
11097606966
11097617036
11097626314
11097638582
11097646882
11097654634
11097664094
11097675142
11097684419
11097692720
11097706636
11097718049
11097727021
11097736116
11097744783
11097754792
11097765290
11097780305
11097790071
11097802888
11097812715
11097819795
11097833894
11097841035
11097851777
11097860810
11097871247
11097883027
11097894074
11097904938
11097918427
11097937958
11097956757
11097964936
11097982819
11097990937
11098000702
11098013764
11098023590
11098033966
11098047333
11098057221
11098065888
11098079987
11098087433
11098101837
11098107941
11098121796
11098131134
11098139801
11098149262
11098159821
11098171173
11098180511
11098192474
11098201752
11098209442
11098223846
11098230438
11098244110
11098253753
11098262359
11098273285
11098279998
11098293609
11098302948
11098311859
11098320770
11098329071
11098341522
11098348480
11098358551
11098367156
11098379241
11098390777
11098399383
11098410308
11098416839
11098429595
11098440093
11098449493
11098461333
11098469512
11098484710
11098494903
11098499480
11098513763
11098524322
11098536590
11098543426
11098557342
11098567351
11098575408
11098588286
11098598906
11098610442
11098620085
11098629668
11098639128
11098647002
11098658538
11098668120
11098676970
11098688872
11098700530
11098708281
11098718108
11098728240
11098740569
11098749541
11098760527
11098766875
11098779753
11098789091
11098798125
11098809599
11098817717
11098830534
11098839628
11098852324
11098862028
11098871061
11098884306
11098891752
11098903288
11098912809
11098923063
11098932341
11098944120
11098952238
11098961759
11098974333
11098983854
11098991361
11099003874
11099014555
11099026151
11099035612
11099045499
11099054838
11099067167
11099075223
11099084867
11099098112
11099107938
11099117643
11099127286
11099137723
11099147916
11099158292
11099169339
11099179899
11099192411
11099206998
11099214444
11099225980
11099237943
11099247830
11099256803
11099267728
11099275662
11099283902
11099293118
11099300931
11099307889
11099314114
11099322293
11099330716
11099338467
11099346768
11099353604
11099361905
11099367764
11099377713
11099383694
11099392361
11099400967
11099408963
11099417019
11099423794
11099430935
11099439175
11099445950
11099453579
11099462735
11099470608
11099476651
11099485318
11099491604
11099496426
11099507412
11099516140
11099522427
11099530484
11099537503
11099544400
11099554165
11099561123
11099568447
11099574612
11099583889
11099590115
11099598660
11099606533
11099612881
11099621304
11099629665
11099636135
11099644924
11099651028
11099658901
11099666103
11099673244
11099681484
11099688564
11099697231
11099703701
11099712124
11099718288
11099728969
11099735256
11099740993
11099750271
11099755092
11099766201
11099770961
11099780117
11099786953
11099794826
11099803737
11099811550
11099818752
11099826259
11099833217
11099844264
11099854885
11099862270
11099870449
11099876125
11099884731
11099889613
11099900234
11099905055
11099914333
11099924831
11099931178
11099939113
11099946437
11099953212
11099961818
11099968898
11099976283
11099985499
11099994533
11100001491
11100011195
11100018886
11100025905
11100036342
11100044826
11100052150
11100058986
11100069240
11100075099
11100084803
11100093592
11100099879
11100108485
11100115016
11100122096
11100130702
11100137721
11100146571
11100153346
11100161280
11100167628
11100177638
11100183985
11100194300
11100200465
11100209010
11100215113
11100223231
11100231532
11100236231
11100245081
11100255885
11100262049
11100269984
11100278040
11100285975
11100293299
11100300135
11100307276
11100313074
11100322169
11100330836
11100338038
11100344385
11100352991
11100361048
11100366968
11100375086
11100382898
11100390711
11100398401
11100406885
11100415369
11100421717
11100428430
11100436792
11100445642
11100452722
11100461389
11100468103
11100474512
11100482813
11100491113
11100499231
11100505823
11100514307
11100520471
11100528101
11100536523
11100544458
11100550623
11100557397
11100566675
11100573633
11100582300
11100589136
11100595849
11100604089
11100611047
11100619531
11100625329
11100634607
11100640405
11100649743
11100654626
11100665490
11100670434
11100679651
11100686609
11100693689
11100702661
11100711877
11100718652
11100726770
11100732934
11100741174
11100749475
11100756005
11100764184
11100772851
11100780786
11100790490
11100796716
11100802575
11100812219
11100818261
11100828271
11100833825
11100857934
11100865685
11100874291
11100881066
11100889428
11100899254
11100907616
11100914452
11100922082
11100928490
11100937218
11100945336
11100951195
11100959618
11100967553
11100975670
11100981469
11100990197
11100998436
11101005211
11101012230
11101020531
11101027245
11101035729
11101044579
11101050926
11101059715
11101066429
11101072655
11101082604
11101088707
11101096886
11101105248
11101111046
11101120201
11101125206
11101135216
11101143150
11101149010
11101156029
11101165611
11101172569
11101180077
11101186424
11101194847
11101201134
11101209862
11101218223
11101225426
11101233665
11101239464
11101249229
11101254966
11101264061
11101268943
11101278831
11101286033
11101293907
11101300926
11101308433
11101317466
11101325218
11101332786
11101344139
11101353294
11101360496
11101366538
11101371848
11101381980
11101388084
11101395774
11101401023
11101410056
11101414756
11101424522
11101432151
11101439658
11101444175
11101453941
11101458335
11101467185
11101473777
11101483481
11101491294
11101499106
11101505698
11101512351
11101521323
11101527915
11101536094
11101543601
11101552146
11101559348
11101570212
11101578757
11101586692
11101589377
11101600974
11101610862
11101617270
11101625266
11101634665
11101642234
11101652487
11101657981
11101669699
11101676596
11101687155
11101694968
11101703940
11101711203
11101719138
11101726096
11101734396
11101740805
11101748740
11101755942
11101764059
11101770651
11101778708
11101785971
11101794089
11101801779
11101808066
11101816733
11101824606
11101831686
11101839987
11101847067
11101855368
11101858236
11101869101
11101877768
11101883932
11101893148
11101899435
11101908224
11101914694
11101924032
11101930258
11101938558
11101947347
11101955038
11101961691
11101970358
11101978170
11101985677
11101993246
11102002035
11102010458
11102016927
11102025533
11102034689
11102041952
11102048910
11102056600
11102064413
11102072530
11102080648
11102089437
11102097860
11102104146
11102113119
11102121053
11102128560
11102136251
11102142293
11102150899
11102160115
11102167440
11102173909
11102182943
11102191060
11102197225
11102207479
11102215596
11102221883
11102229634
11102238790
11102245137
11102253865
11102260701
11102272176
11102279744
11102287496
11102295430
11102300801
11102308980
11102316731
11102328206
11102334920
11102342488
11102349141
11102356526
11102363057
11102371785
11102381856
11102390645
11102398518
11102406575
11102413838
11102423482
11102429829
11102437703
11102446187
11102452290
11102461567
11102466267
11102477497
11102482319
11102491719
11102498616
11102507038
11102513935
11102526020
11102532978
11102542378
11102549214
11102556782
11102563740
11102572407
11102578449
11102587605
11102593830
11102599812
11102610066
11102615986
11102625446
11102630268
11102640034
11102648029
11102655415
11102662311
11102670429
11102677448
11102685078
11102691181
11102700336
11102706684
11102716083
11102724079
11102730671
11102738971
11102747150
11102753437
11102761188
11102769489
11102774433
11102784992
11102792743
11102799762
11102806537
11102814350
11102821674
11102829120
11102838031
11102846271
11102852436
11102861102
11102867511
11102876361
11102882465
11102887348
11102898883
11102907367
11102913532
11102921222
11102928058
11102935138
11102944354
11102951129
11102958087
11102964435
11102974628
11102980731
11102989215
11102997455
11103004291
11103010394
11103018268
11103027545
11103040240
11103046283
11103055133
11103061236
11103069598
11103077777
11103086139
11103092364
11103100909
11103109271
11103114703
11103123553
11103131243
11103138018
11103144976
11103152850
11103158831
11103169024
11103175799
11103184039
11103191363
11103200579
11103207415
11103217913
11103225481
11103235735
11103243853
11103251055
11103259539
11103266558
11103274615
11103280474
11103288470
11103296404
11103306963
11103312884
11103321367
11103326250
11103336321
11103344194
11103351824
11103359942
11103368181
11103377214
11103383562
11103390581
11103400347
11103406694
11103415422
11103421770
11103429827
11103437944
11103444170
11103452776
11103460710
11103466936
11103473894
11103482195
11103491289
11103499773
11103506670
11103514970
11103522234
11103530412
11103536638
11103545000
11103553056
11103562273
11103571489
11103577898
11103584917
11103593156
11103599382
11103607622
11103615678
11103625810
11103633867
11103640947
11103649125
11103655595
11103663957
11103671769
11103677934
11103686052
11103693376
11103700212
11103708512
11103715592
11103723710
11103729936
11103738664
11103745011
11103756608
11103763566
11103771134
11103777177
11103782914
11103793473
11103799394
11103808060
11103816422
11103822526
11103830338
11103837479
11103844559
11103853104
11103859879
11103868180
11103874345
11103882950
11103891984
11103899125
11103905411
11103914322
11103921097
11103929764
11103936051
11103943863
11103953019
11103958023
11103967423
11103975357
11103981583
11103988541
11103996598
11104003678
11104021073
11104030899
11104038773
11104047684
11104053787
11104063431
11104070023
11104078690
11104086929
11104095474
11104101639
11104111649
11104118118
11104127213
11104133194
11104142044
11104150040
11104156448
11104164566
11104169937
11104178238
11104182999
11104192825
11104200760
11104207718
11104215408
11104222122
11104228592
11104235611
11104243850
11104249954
11104255569
11104264724
11104270584
11104279068
11104284805
11104292617
11104300125
11104307815
11104313491
11104318374
11104329849
11104335708
11104345168
11104350601
11104358779
11104363174
11104373123
11104381606
11104389175
11104396621
11104403701
11104410964
11104417861
11104424331
11104431289
11104437270
11104448928
11104455764
11104463210
11104468825
11104476211
11104483779
11104491958
11104497756
11104507338
11104515395
11104522536
11104530532
11104535781
11104543654
11104550917
11104556777
11104563369
11104573928
11104578994
11104588637
11104595778
11104602736
11104609084
11104616225
11104622512
11104631545
11104637526
11104645766
11104651442
11104660414
11104666091
11104673598
11104681288
11104689101
11104697035
11104702895
11104710402
11104715834
11104724074
11104731215
11104739455
11104743788
11104754774
11104762526
11104769362
11104776503
11104784498
11104793959
11104802199
11104811720
11104819899
11104826613
11104834547
11104842421
11104850355
11104856642
11104864210
11104872633
11104880751
11104887403
11104894545
11104901441
11104911940
11104918043
11104926893
11104933363
11104943373
11104949537
11104958814
11104964674
11104972364
11104979871
11104985792
11104993482
11104998060
11105009534
11105014295
11105023511
11105030836
11105037000
11105043287
11105050489
11105059156
11105068860
11105076490
11105083143
11105089612
11105097364
11105103895
11105110303
11105116468
11105127332
11105134290
11105141431
11105147107
11105154798
11105162488
11105168164
11105175916
11105180738
11105190992
11105199475
11105205152
11105212293
11105219434
11105225720
11105233106
11105239392
11105248486
11105255139
11105263074
11105270886
11105278027
11105284253
11105291882
11105299268
11105309094
11105315808
11105323926
11105329663
11105337231
11105342847
11105351514
11105357312
11105365430
11105373242
11105379346
11105386853
11105394604
11105400464
11105407422
11105415173
11105422925
11105429883
11105437756
11105445202
11105451611
11105459423
11105465893
11105471936
11105480236
11105488598
11105495312
11105500866
11105509350
11105519177
11105525891
11105532055
11105541088
11105552136
11105559765
11105569531
11105578869
11105587597
11105594677
11105602062
11105610485
11105617992
11105625256
11105632763
11105640331
11105646068
11105653454
11105665844
11105670421
11105678905
11105686535
11105694042
11105698437
11105707103
11105713390
11105721203
11105728100
11105739086
11105744213
11105752941
11105759105
11105766368
11105772167
11105780468
11105785961
11105795299
11105803783
11105809886
11105817394
11105824962
11105830638
11105836009
11105845653
11105851451
11105860790
11105869518
11105875072
11105879710
11105890392
11105897350
11105904124
11105910655
11105918101
11105924937
11105933421
11105939769
11105947093
11105952891
11105960399
11105965892
11105977244
11105983958
11105992015
11105998851
11106008189
11106015880
11106026256
11106034800
11106046336
11106054881
11106062327
11106070384
11106077891
11106089122
11106099864
11106106578
11106115855
11106129527
11106139048
11106147593
11106156809
11106166636
11106177683
11106186655
11106190623
11106204600
11106215037
11106225108
11106234873
11106247324
11106256235
11106263315
11106274851
11106285349
11106289683
11106302683
11106310251
11106326059
11106333750
11106345163
11106354136
11106358225
11106371592
11106381479
11106392588
11106399790
11106409555
11106424631
11106433786
11106444956
11106451669
11106465036
11106474985
11106484628
11106495248
11106506967
11106523202
11106529794
11106533762
11106551706
11106560983
11106570688
11106580270
11106587778
11106599069
11106603402
11106619211
11106626352
11106639474
11106645211
11106658578
11106667550
11106671640
11106684518
11106694955
11106708871
11106720040
11106731759
11106741281
11106750131
11106761422
11106768624
11106779672
11106788705
11106798409
11106811166
11106819344
11106828805
11106837960
11106850533
11106859688
11106867074
11106877755
11106887154
11106899788
11106912850
11106924874
11106934578
11106946846
11106957100
11106967965
11106980843
11106991890
11107002266
11107012215
11107019722
11107033821
11107044563
11107053352
11107063240
11107070625
11107083748
11107094673
11107105843
11107115913
11107124336
11107138618
11107147041
11107157661
11107163948
11107173897
11107185921
11107195076
11107204536
11107215400
11107225166
11107234321
11107242744
11107255622
11107265571
11107276130
11107285469
11107289802
11107307685
11107315742
11107327583
11107337898
11107346626
11107355598
11107363044
11107375861
11107386054
11107397773
11107407966
11107411933
11107425117
11107434394
11107442878
11107451972
11107460456
11107473212
11107485480
11107496955
11107507453
11107514838
11107523383
11107535285
11107543708
11107550299
11107561225
11107569709
11107583747
11107592475
11107600409
11107610358
11107617499
11107628546
11107637213
11107648688
11107657233
11107669684
11107685797
11107700201
11107713751
11107724615
11107732184
11107742804
11107751715
11107765143
11107773260
11107781683
11107793280
11107803351
11107812262
11107818731
11107831305
11107840887
11107851995
11107862066
11107871588
11107880072
11107890692
11107899725
11107907110
11107920599
11107932195
11107941229
11107952032
11107963201
11107969732
11107981756
11107991033
11107999883
11108009832
11108020513
11108031316
11108041265
11108052251
11108061223
11108068303
11108079839
11108088750
11108099309
11108108465
11108115667
11108129949
11108140691
11108150090
11108159307
11108167791
11108178411
11108184819
11108195317
11108207280
11108216558
11108224126
11108233586
11108244939
11108254216
11108261540
11108273381
11108283574
11108291936
11108303166
11108312505
11108321904
11108329289
11108339909
11108348271
11108358037
11108369267
11108377446
11108387333
11108397160
11108408574
11108414921
11108426640
11108435246
11108441716
11108453068
11108461430
11108470219
11108481877
11108490605
11108501042
11108510746
11108518681
11108527287
11108535160
11108545231
11108554691
11108563236
11108572025
11108585636
11108594852
11108607182
11108616642
11108624271
11108640568
11108648807
11108661991
11108672550
11108685367
11108696598
11108707279
11108717594
11108725467
11108735660
11108745731
11108755069
11108767093
11108779850
11108790958
11108801944
11108809757
11108823490
11108833988
11108842655
11108854068
11108867557
11108878909
11108893558
11108905032
11108913760
11108928287
11108934512
11108947879
11108956790
11108963626
11108976626
11108987307
11108999026
11109008792
11109017520
11109026309
11109032962
11109045474
11109055239
11109064151
11109072695
11109085818
11109095278
11109104373
11109115481
11109127139
11109136782
11109146975
11109154849
11109169314
11109180911
11109192812
11109202822
11109207339
11109222719
11109233889
11109245547
11109255495
11109266054
11109276064
11109289370
11109298647
11109308657
11109321230
11109330751
11109338625
11109352053
11109362429
11109374025
11109384706
11109393801
11109405702
11109416872
11109425112
11109435365
11109444399
11109453432
11109461366
11109474733
11109481508
11109494752
11109504518
11109514711
11109524232
11109534303
11109544313
11109555787
11109565004
11109575380
11109579957
11109598939
11109606263
11109618287
11109628968
11109638551
11109648378
11109655824
11109668214
11109678590
11109690614
11109699952
11109710694
11109720277
11109727845
11109741090
11109751710
11109761781
11109771180
11109778626
11109790406
11109800965
11109809937
11109822510
11109831727
11109841126
11109851868
11109860413
11109869813
11109883851
11109893250
11109900635
11109912964
11109923706
11109932984
11109945618
11109955323
11109964844
11109975403
11109984070
11109993225
11110005249
11110014710
11110022949
11110034180
11110043762
11110056397
11110066101
11110074036
11110087402
11110099365
11110111206
11110122375
11110132568
11110144958
11110156738
11110165588
11110174743
11110185669
11110193908
11110204101
11110212829
11110216003
11110228088
11110236267
11110242431
11110250549
11110258728
11110266662
11110272460
11110279602
11110288879
11110295776
11110303039
11110311950
11110320739
11110327087
11110336730
11110342956
11110351928
11110358154
11110367248
11110373962
11110379882
11110393127
11110402648
11110409240
11110417602
11110425841
11110431884
11110440307
11110446105
11110455810
11110463561
11110471618
11110479491
11110485839
11110492064
11110499389
11110505919
11110515441
11110521727
11110528930
11110536925
11110543639
11110549437
11110558776
11110565062
11110572509
11110578124
11110586547
11110592711
11110601317
11110609679
11110617186
11110625670
11110631773
11110640440
11110645262
11110654662
11110661742
11110671019
11110678038
11110685667
11110695738
11110702330
11110709410
11110718687
11110725706
11110733885
11110740721
11110748533
11110754820
11110763182
11110771300
11110779844
11110786131
11110794005
11110802427
11110808226
11110817259
11110822386
11110832273
11110840269
11110847044
11110854002
11110862547
11110869261
11110878538
11110883726
11110894163
11110900938
11110909117
11110916624
11110926084
11110933836
11110945677
11110954893
11110964903
11110973142
11110980039
11110987180
11110996763
11111004026
11111011472
11111020505
11111028501
11111034666
11111043516
11111049802
11111057737
11111066160
11111071958
11111081418
11111087522
11111097959
11111102781
11111113279
11111118283
11111126523
11111135556
11111141782
11111150754
11111157285
11111165830
11111173459
11111179624
11111187619
11111195920
11111203122
11111211240
11111220334
11111226682
11111235532
11111241696
11111249692
11111256833
11111263852
11111273129
11111280881
11111286984
11111293820
11111303525
11111310300
11111317746
11111323910
11111333310
11111339535
11111349362
11111359250
11111368100
11111374447
11111383297
11111389401
11111398495
11111404599
11111412594
11111420224
11111428097
11111436398
11111444149
11111451351
11111458187
11111466854
11111474301
11111482479
11111489620
11111498959
11111505795
11111513546
11111519650
11111528195
11111536434
11111543331
11111551571
11111557369
11111567135
11111572994
11111581905
11111589657
11111596493
11111603451
11111613033
11111620052
11111627315
11111636593
11111643795
11111649898
11111658443
11111664608
11111673824
11111681942
11111689937
11111696163
11111705013
11111711177
11111719234
11111727596
11111738094
11111745174
11111754207
11111762630
11111771236
11111778804
11111786617
11111796565
11111803951
11111811519
11111821040
11111829097
11111838008
11111845821
11111852779
11111860896
11111867122
11111875240
11111883601
11111889827
11111897823
11111905757
11111911861
11111919673
11111928096
11111935969
11111943416
11111950435
11111956965
11111966182
11111973872
11111980098
11111987300
11111995601
11112003962
11112012202
11112020076
11112026118
11112031855
11112042231
11112048091
11112056819
11112061946
11112072566
11112080317
11112087580
11112094660
11112102534
11112109309
11112117426
11112123713
11112131281
11112139460
11112147273
11112155451
11112161555
11112169733
11112178278
11112184626
11112191523
11112199335
11112206110
11112216181
11112223139
11112231013
11112237971
11112245112
11112251459
11112262690
11112269037
11112278010
11112284235
11112292048
11112300348
11112306208
11112314692
11112322687
11112328852
11112335749
11112345392
11112353388
11112360224
11112367060
11112374323
11112383234
11112390192
11112398981
11112405634
11112413812
11112421869
11112428156
11112432916
11112443292
11112448175
11112459650
11112464410
11112474908
11112482660
11112489984
11112496820
11112504205
11112512933
11112523187
11112531122
11112537408
11112544305
11112552545
11112560479
11112571649
11112579461
11112588128
11112595208
11112605279
11112610955
11112619317
11112627679
11112635369
11112643731
11112649469
11112659295
11112665155
11112673455
11112681451
11112689202
11112696954
11112703729
11112710626
11112720025
11112726800
11112733880
11112740472
11112750115
11112756158
11112764336
11112770684
11112781548
11112787713
11112796868
11112803094
11112811822
11112817864
11112826653
11112832757
11112840386
11112848992
11112856743
11112863640
11112870904
11112877800
11112884697
11112890740
11112899407
11112907097
11112917351
11112924248
11112933464
11112942620
11112950005
11112958733
11112966240
11112974419
11112983330
11112990776
11112999809
11113006951
11113016594
11113021965
11113030937
11113042046
11113050346
11113058830
11113065727
11113073112
11113080803
11113090630
11113097771
11113104545
11113115166
11113122368
11113131157
11113139519
11113145195
11113154594
11113159721
11113169792
11113177910
11113185478
11113192192
11113202018
11113208976
11113215385
11113225273
11113231987
11113238822
11113248588
11113256706
11113263603
11113271842
11113277702
11113286613
11113294853
11113301078
11113308158
11113318290
11113326103
11113333305
11113340263
11113347465
11113356315
11113362418
11113368583
11113376884
11113386649
11113394584
11113403739
11113410209
11113419730
11113428641
11113435599
11113442496
11113454276
11113462333
11113468558
11113475760
11113483878
11113490836
11113498526
11113507315
11113513846
11113522513
11113529227
11113535514
11113545157
11113551444
11113557425
11113567252
11113572074
11113583914
11113589896
11113597708
11113604422
11113613638
11113620657
11113627982
11113634757
11113643729
11113649771
11113657767
11113666006
11113674368
11113680594
11113689139
11113695425
11113705069
11113711600
11113719412
11113728323
11113733145
11113742483
11113749869
11113759024
11113766653
11113775564
11113782461
11113790152
11113796255
11113801992
11113812857
11113819937
11113828054
11113836721
11113844900
11113850637
11113859915
11113864920
11113874990
11113880056
11113889761
11113896536
11113903982
11113912832
11113919973
11113926138
11113935293
11113941457
11113950735
11113957021
11113964773
11113972829
11113981069
11113987173
11113995046
11114002798
11114010793
11114017446
11114024465
11114033254
11114039602
11114047902
11114054128
11114062978
11114069021
11114078054
11114086293
11114092702
11114100942
11114106496
11114115407
11114123220
11114129323
11114136037
11114144216
11114151113
11114161794
11114168752
11114176503
11114183400
11114191274
11114201344
11114209096
11114215871
11114225636
11114236745
11114246205
11114251149
11114260609
11114267751
11114276723
11114284108
11114294118
11114301076
11114309437
11114316212
11114323475
11114329579
11114338917
11114345143
11114351246
11114361012
11114366749
11114377125
11114383107
11114392445
11114398243
11114406300
11114414296
11114423756
11114428700
11114438587
11114443653
11114451954
11114460865
11114467030
11114473316
11114482594
11114488636
11114496632
11114504627
11114512257
11114520619
11114524098
11114536305
11114541065
11114552052
11114560047
11114566334
11114573292
11114581837
11114588612
11114596790
11114606800
11114613209
11114620167
11114628284
11114635425
11114643848
11114650074
11114657886
11114666187
11114672413
11114680530
11114688892
11114695545
11114704761
11114710926
11114718799
11114725635
11114732593
11114740955
11114747669
11114756702
11114763599
11114772266
11114778369
11114786853
11114794971
11114802295
11114810291
11114817615
11114823962
11114831592
11114838855
11114845630
11114854602
11114861377
11114869556
11114876392
11114884204
11114890308
11114898486
11114906665
11114912829
11114920886
11114930408
11114936694
11114945422
11114953479
11114959216
11114968371
11114973437
11114982959
11114990039
11115006701
11115015429
11115026110
11115033618
11115042651
11115050219
11115057177
11115070361
11115078906
11115085192
11115093005
11115099108
11115107043
11115114611
11115121325
11115130114
11115137011
11115145007
11115151965
11115160448
11115166613
11115174975
11115181200
11115191088
11115197375
11115206164
11115214281
11115220019
11115228686
11115233751
11115243090
11115249865
11115260180
11115267748
11115274584
11115281542
11115289171
11115296068
11115305223
11115312242
11115319811
11115328539
11115335497
11115341905
11115350328
11115357164
11115361986
11115373461
11115381822
11115387926
11115395677
11115403002
11115409837
11115418504
11115425462
11115434557
11115441698
11115450426
11115457201
11115464342
11115473253
11115479173
11115487230
11115493028
11115501512
11115510850
11115519151
11115524949
11115533250
11115541063
11115548875
11115553758
11115562242
11115571092
11115579393
11115586168
11115593553
11115599900
11115609300
11115615403
11115621385
11115631639
11115637864
11115647325
11115652085
11115662217
11115670152
11115676377
11115684922
11115693955
11115700669
11115710191
11115716782
11115723740
11115732774
11115739671
11115745774
11115751817
11115761521
11115769700
11115778611
11115784409
11115792954
11115800767
11115806687
11115814377
11115823960
11115834092
11115858017
11115866562
11115879197
11115887497
11115896775
11115905442
11115912400
11115919907
11115927903
11115934250
11115941635
11115948044
11115954941
11115962143
11115969773
11115976731
11115983322
11115991379
11115998154
11116005905
11116012375
11116020615
11116027084
11116034470
11116041183
11116047592
11116055160
11116060348
11116069565
11116075119
11116083420
11116091354
11116096847
11116104111
11116111435
11116118637
11116125778
11116132736
11116141403
11116148361
11116157455
11116164474
11116172226
11116178512
11116187423
11116193893
11116202743
11116210800
11116218551
11116226852
11116232650
11116240951
11116245895
11116255477
11116263412
11116271224
11116279037
11116284896
11116293624
11116299667
11116308639
11116314986
11116323776
11116331527
11116337508
11116346236
11116352767
11116361007
11116369430
11116375228
11116383163
11116389999
11116399154
11116406173
11116414901
11116421920
11116430037
11116436385
11116445296
11116451400
11116461165
11116467269
11116476973
11116483260
11116489058
11116499312
11116505538
11116513777
11116522322
11116528853
11116536788
11116544478
11116551314
11116560408
11116567366
11116575972
11116582808
11116595686
11116603987
11116614241
11116621932
11116629988
11116638167
11116644514
11116649275
11116667586
11116675825
11116681563
11116690901
11116697737
11116706953
11116713850
11116721785
11116729170
11116737715
11116744063
11116753035
11116759138
11116767012
11116775740
11116783430
11116792097
11116797956
11116806684
11116814558
11116821821
11116829756
11116836897
11116844099
11116852400
11116859175
11116867292
11116873335
11116883222
11116889631
11116897566
11116905805
11116908613
11116921186
11116926862
11116937116
11116942976
11116951093
11116958784
11116965742
11116972700
11116981794
11116988569
11116996747
11117002851
11117012861
11117019697
11117027082
11117033246
11117041547
11117049726
11117055463
11117064801
11117069562
11117079755
11117087690
11117093976
11117100812
11117109052
11117117658
11117124921
11117131085
11117138898
11117147077
11117155011
11117161359
11117167096
11117176801
11117185162
11117191510
11117199201
11117207318
11117215131
11117221845
11117228619
11117238568
11117246381
11117253094
11117259869
11117268231
11117274945
11117283673
11117291302
11117298627
11117306134
11117313885
11117318707
11117328412
11117336102
11117342694
11117349469
11117359173
11117366131
11117374737
11117381207
11117388165
11117395916
11117404950
11117412335
11117426068
11117433392
11117441876
11117448651
11117455303
11117465313
11117473553
11117480328
11117489849
11117496136
11117505535
11117511639
11117517315
11117527081
11117532879
11117540874
11117548809
11117558392
11117566265
11117572918
11117580181
11117588360
11117595318
11117603130
11117609173
11117619365
11117625530
11117634014
11117643230
11117651043
11117658001
11117665691
11117671917
11117680828
11117688945
11117695964
11117704143
11117710857
11117719219
11117724956
11117733745
11117741741
11117749736
11117757427
11117764079
11117771892
11117781597
11117788432
11117797160
11117804118
11117812724
11117819499
11117826274
11117834453
11117842387
11117848613
11117853313
11117864055
11117872600
11117878764
11117886455
11117893291
11117900126
11117907878
11117916850
11117923137
11117931987
11117939311
11117945353
11117954875
11117961223
11117969523
11117975810
11117980632
11117991862
11117996684
11118007792
11118012614
11118021586
11118028849
11118037516
11118044474
11118053202
11118059977
11118068156
11118074992
11118083842
11118089884
11118099345
11118105570
11118112650
11118120768
11118129679
11118135844
11118144816
11118151041
11118158793
11118166300
11118173380
11118181132
11118188029
11118197306
11118206888
11118213968
11118221476
11118231852
11118238260
11118246134
11118252298
11118260965
11118267130
11118273417
11118281107
11118287699
11118293192
11118298502
11118303751
11118311197
11118316080
11118321390
11118326517
11118334146
11118337686
11118344095
11118348612
11118355326
11118361002
11118364969
11118371134
11118375833
11118379923
11118386453
11118390848
11118396463
11118402445
11118408121
11118413858
11118418680
11118422830
11118428995
11118433328
11118439004
11118445291
11118449380
11118455728
11118460977
11118465738
11118470560
11118476297
11118480813
11118486795
11118491861
11118497476
11118501626
11118507669
11118512185
11118517679
11118523172
11118527505
11118535440
11118537759
11118546487
11118550088
11118557473
11118563882
11118568460
11118573281
11118580178
11118585488
11118591592
11118596902
11118601663
11118607644
11118611917
11118617471
11118622659
11118629251
11118633950
11118639443
11118644815
11118649148
11118655251
11118659341
11118665383
11118672585
11118676248
11118683389
11118689309
11118693643
11118698342
11118703530
11118708169
11118715737
11118721169
11118725869
11118731179
11118738015
11118743386
11118747231
11118755776
11118759865
11118769143
11118775796
11118780923
11118787026
11118792763
11118800942
11118803933
11118815102
11118822854
11118836586
11118845681
11118853127
11118859841
11118862893
11118873024
11118881630
11118889992
11118897805
11118906594
11118914894
11118921425
11118927346
11118931740
11118939003
11118944740
11118953407
11118959023
11118965187
11118974037
11118982216
11118987343
11118994179
11119001808
11119007668
11119013100
11119020607
11119027138
11119035866
11119043556
11119050148
11119056984
11119059975
11119070473
11119077980
11119085914
11119093056
11119095985
11119108986
11119116249
11119123939
11119131141
11119137367
11119144020
11119149879
11119157386
11119165321
11119174781
11119182838
11119189247
11119195961
11119201271
11119209266
11119216346
11119224098
11119230384
11119236793
11119246742
11119252174
11119261207
11119265540
11119274574
11119280677
11119285621
11119293678
11119302650
11119310706
11119317725
11119327125
11119334510
11119337623
11119349403
11119359107
11119365577
11119375770
11119386085
11119394202
11119401038
11119407630
11119413367
11119421424
11119426490
11119433570
11119440284
11119449622
11119458838
11119462867
11119473487
11119479529
11119486182
11119493872
11119501746
11119509009
11119513770
11119525305
11119531287
11119538733
11119545813
11119554541
11119561194
11119567542
11119575171
11119580359
11119592322
11119597327
11119605994
11119612158
11119620093
11119626379
11119631873
11119640112
11119644934
11119653845
11119663550
11119667822
11119679602
11119685400
11119696387
11119701513
11119709997
11119717199
11119724218
11119732336
11119739233
11119755224
11119761511
11119767309
11119774878
11119780554
11119787329
11119794836
11119800085
11119810827
11119815649
11119822546
11119828527
11119836035
11119842077
11119847021
11119855993
11119863439
11119873510
11119880773
11119887243
11119894628
11119905187
11119911718
11119914831
11119925451
11119934606
11119941991
11119946569
11119952734
11119961767
11119970190
11119976415
11119984228
11119988256
11119999486
11120003271
11120013219
11120022374
11120030736
11120038854
11120046972
11120054784
11120064794
11120072484
11120078344
11120087926
11120095922
11120104894
11120112462
11120122045
11120129918
11120133092
11120145421
11120154210
11120161107
11120168736
11120175389
11120185216
11120191686
11120199376
11120206395
11120216649
11120224034
11120229832
11120239964
11120244786
11120253453
11120260594
11120265721
11120275792
11120281590
11120292210
11120297032
11120303746
11120314183
11120319554
11120327610
11120334507
11120341954
11120348790
11120354283
11120365147
11120373631
11120381199
11120388279
11120394627
11120402806
11120408604
11120417027
11120424046
11120427159
11120440830
11120447605
11120453587
11120459873
11120468968
11120476048
11120482456
11120490330
11120498081
11120505711
11120513157
11120516148
11120526890
11120535007
11120542820
11120549656
11120553013
11120568333
11120574192
11120583530
11120592502
11120598789
11120605625
11120612400
11120620945
11120626743
11120635837
11120643345
11120650547
11120660129
11120666355
11120671970
11120676364
11120686740
11120692905
11120700351
11120709873
11120716892
11120723972
11120732212
11120740634
11120751865
11120756931
11120765292
11120771457
11120778781
11120785495
11120790744
11120800388
11120806674
11120818210
11120824557
11120831882
11120838290
11120847446
11120853854
11120860324
11120867160
11120875766
11120882419
11120885104
11120894870
11120899631
11120910861
11120918185
11120924472
11120931186
11120937655
11120946444
11120951815
11120957492
11120963778
11120972445
11120979159
11120985934
11120995028
11121003146
11121010470
11121016940
11121027560
11121032931
11121042269
11121047762
11121056857
11121063815
11121074435
11121081698
11121087740
11121096041
11121103487
11121107394
11121120760
11121124178
11121133883
11121141756
11121151522
11121159579
11121168001
11121175692
11121178927
11121189669
11121197542
11121206698
11121211580
11121220369
11121227388
11121233553
11121242586
11121248201
11121257113
11121264620
11121272188
11121279146
11121284273
11121292757
11121299837
11121307588
11121314852
11121323946
11121331453
11121339632
11121347505
11121354402
11121357332
11121367647
11121375215
11121382967
11121390108
11121393037
11121406343
11121413301
11121422090
11121427583
11121437837
11121446565
11121452486
11121461641
11121468599
11121478364
11121486848
11121497041
11121504915
11121513460
11121520417
11121525972
11121531892
11121538728
11121544282
11121550691
11121555330
11121559724
11121566377
11121570283
11121576509
11121582368
11121589265
11121593049
11121599153
11121604646
11121610810
11121613984
11121619782
11121624360
11121632356
11121637361
11121643647
11121648530
11121653535
11121657685
11121663850
11121668000
11121674653
11121680573
11121685944
11121691560
11121696626
11121700837
11121706269
11121711518
11121718049
11121725922
11121730073
11121736542
11121742036
11121748200
11121753266
11121758759
11121763581
11121770478
11121776948
11121783478
11121788178
11121792634
11121799653
11121803193
11121810212
11121815400
11121822297
11121827790
11121834992
11121840546
11121845612
11121850434
11121854706
11121862763
11121868073
11121874054
11121880951
11121885773
11121891693
11121897797
11121902924
11121907501
11121913544
11121922028
11121926483
11121932526
11121938446
11121943634
11121948822
11121954559
11121959320
11121966217
11121971771
11121978912
11121983795
11121991425
11121998383
11122004242
11122008148
11122018951
11122024139
11122033539
11122040558
11122046661
11122053253
11122058624
11122070709
11122075897
11122089447
11122101776
11122108429
11122115265
11122121612
11122130462
11122136017
11122144561
11122153106
11122160858
11122173065
11122178558
11122187042
11122194000
11122202545
11122209625
11122217010
11122225616
11122232757
11122242034
11122248748
11122255767
11122264495
11122267974
11122277496
11122281951
11122291290
11122295379
11122304473
11122313262
11122320098
11122326385
11122331267
11122339873
11122344329
11122353484
11122359405
11122364348
11122373992
11122378997
11122387847
11122391692
11122399321
11122407012
11122412627
11122419280
11122425872
11122432586
11122438811
11122446196
11122451934
11122456450
11122464629
11122471160
11122477507
11122484221
11122490569
11122501128
11122506865
11122515959
11122520476
11122528288
11122535124
11122543730
11122551238
11122555815
11122562590
11122574492
11122578093
11122587004
11122596831
11122600188
11122612212
11122615324
11122626555
11122633879
11122643339
11122651457
11122655241
11122664458
11122673308
11122679533
11122686186
11122694792
11122701994
11122707243
11122717619
11122725004
11122731230
11122737516
11122745939
11122752226
11122757231
11122765715
11122772184
11122780363
11122786955
11122792265
11122800260
11122807463
11122815946
11122822172
11122829313
11122835600
11122840482
11122851408
11122859342
11122862333
11122873991
11122879789
11122886991
11122894254
11122901823
11122908475
11122915678
11122922819
11122934782
11122940031
11122948148
11122955472
11122961088
11122970609
11122975248
11122985624
11122993192
11122999601
11123006986
11123013822
11123023099
11123029630
11123037259
11123043668
11123051664
11123058194
11123065457
11123071866
11123076749
11123085050
11123091825
11123097318
11123103360
11123109342
11123119718
11123126065
11123132596
11123139371
11123145902
11123152066
11123157559
11123165677
11123170133
11123178555
11123185696
11123192532
11123198941
11123205899
11123211758
11123219266
11123225552
11123232083
11123239529
11123246731
11123253995
11123260708
11123268582
11123273831
11123280118
11123288479
11123295132
11123300076
11123311978
11123317410
11123326199
11123330838
11123337429
11123345486
11123354031
11123359341
11123365689
11123377285
11123384732
11123391201
11123398098
11123404690
11123415127
11123420925
11123430996
11123441494
11123448391
11123456265
11123464138
11123470852
11123476345
11123484463
11123491299
11123500210
11123506924
11123514370
11123524624
11123530239
11123537319
11123544216
11123550808
11123559597
11123564785
11123574001
11123580715
11123583645
11123598171
11123604580
11123613552
11123618374
11123626613
11123633388
11123642238
11123649013
11123656520
11123667507
11123672328
11123678920
11123688930
11123694484
11123703151
11123709926
11123718227
11123724941
11123730312
11123742702
11123748927
11123757228
11123764125
11123770412
11123777004
11123785060
11123792445
11123800502
11123807155
11123821925
11123829372
11123838832
11123845607
11123851161
11123856898
11123863429
11123872401
11123879237
11123887721
11123892665
11123899318
11123905055
11123913478
11123919581
11123925135
11123932460
11123939112
11123948756
11123954066
11123961879
11123969813
11123978663
11123984523
11123990809
11123996730
11124001185
11124010096
11124016993
11124023402
11124029872
11124037379
11124043238
11124047755
11124055506
11124061854
11124072962
11124080714
11124085963
11124093897
11124096461
11124106348
11124110987
11124119288
11124125635
11124132715
11124142115
11124148890
11124156824
11124161341
11124170008
11124177027
11124182215
11124189966
11124197229
11124208277
11124215845
11124222620
11124229944
11124238977
11124246363
11124255457
11124264673
11124272242
11124275659
11124288843
11124294397
11124302271
11124309107
11124315882
11124323694
11124332239
11124338342
11124344934
11124347925
11124360498
11124366419
11124375024
11124381738
11124384729
11124395837
11124404321
11124410974
11124418359
11124422205
11124435998
11124442773
11124449670
11124457300
11124462915
11124469934
11124475122
11124485803
11124491418
11124499780
11124507470
11124514856
11124521753
11124527246
11124536462
11124543298
11124549829
11124556665
11124564782
11124573205
11124581018
11124588708
11124595422
11124600793
11124609460
11124616540
11124625817
11124632470
11124637902
11124647485
11124656213
11124664941
11124673302
11124677087
11124688988
11124695641
11124703820
11124710717
11124719445
11124725976
11124737450
11124747094
11124754479
11124761254
11124766076
11124775658
11124780602
11124788781
11124795739
11124801293
11124809533
11124812340
11124822960
11124827599
11124834740
11124840905
11124852379
11124858605
11124866112
11124872032
11124876793
11124886315
11124892723
11124899193
11124904991
11124907555
11124920189
11124925987
11124931481
11124938011
11124944786
11124950646
11124956200
11124964745
11124973534
11124980186
11124988670
11124995689
11125002830
11125009178
11125016075
11125023826
11125032249
11125039146
11125042198
11125055687
11125061546
11125068138
11125074547
11125082603
11125088951
11125094139
11125104332
11125109092
11125118553
11125125755
11125133079
11125139671
11125147850
11125153526
11125159935
11125168113
11125176170
11125182884
11125190452
11125198081
11125205345
11125212119
11125219627
11125226280
11125231162
11125240989
11125245078
11125253623
11125262229
11125269431
11125275718
11125280845
11125288230
11125294456
11125300803
11125309653
11125314780
11125324119
11125331870
11125339011
11125345908
11125352683
11125361045
11125365622
11125375266
11125382285
11125389365
11125399619
11125406333
11125413718
11125418662
11125424826
11125433615
11125442649
11125448386
11125455344
11125465293
11125472800
11125478720
11125487326
11125495688
11125503989
11125510642
11125517111
11125525351
11125534323
11125544272
11125552084
11125563071
11125569296
11125577414
11125583884
11125589011
11125598105
11125606284
11125615988
11125623678
11125632712
11125639487
11125645407
11125654501
11125660055
11125671713
11125679831
11125690268
11125697897
11125707113
11125714010
11125719748
11125727499
11125735006
11125744162
11125751852
11125757833
11125767233
11125775961
11125781942
11125788595
11125793905
11125804464
11125811910
11125819723
11125826803
11125829733
11125844259
11125850118
11125859152
11125868124
11125875875
11125882955
11125889242
11125900289
11125905294
11125913412
11125920797
11125927755
11125934164
11125942098
11125947896
11125952413
11125961446
11125965963
11125975118
11125982442
11125989888
11125997091
11126003621
11126010457
11126018331
11126025960
11126032552
11126037862
11126048787
11126055196
11126063924
11126070821
11126078267
11126085225
11126090718
11126098104
11126105245
11126114827
11126121785
11126127583
11126136250
11126143392
11126150411
11126156697
11126164265
11126171284
11126176839
11126186726
11126194417
11126201131
11126207722
11126212483
11126221760
11126228718
11126234639
11126243123
11126249959
11126256733
11126262288
11126270772
11126277669
11126284565
11126290974
11126297017
11126304524
11126311421
11126323201
11126328450
11126336628
11126343830
11126349995
11126358174
11126365193
11126372090
11126378437
11126386616
11126393696
11126398945
11126408100
11126416218
11126425617
11126433186
11126442280
11126448444
11126453449
11126465168
11126470417
11126478779
11126485798
11126494953
11126502399
11126507404
11126516315
11126522907
11126530414
11126537494
11126540424
11126551472
11126557331
11126563251
11126569660
11126576984
11126582782
11126589618
11126597614
11126600788
11126611286
11126616047
11126624103
11126630268
11126636859
11126643207
11126648700
11126659931
11126667865
11126675434
11126683429
11126690082
11126693927
11126702655
11126708820
11126713642
11126724262
11126729511
11126737628
11126744037
11126750201
11126756061
11126763873
11126769672
11126774249
11126784137
11126790973
11126797992
11126804401
11126812701
11126818805
11126824420
11126831805
11126838519
11126847430
11126855304
11126863482
11126870685
11126873919
11126883807
11126891436
11126898517
11126904925
11126915240
11126921954
11126927447
11126935626
11126942706
11126949359
11126956073
11126961932
11126969866
11126977130
11126988177
11126993487
11127000384
11127006610
11127015765
11127021929
11127026934
11127034319
11127041155
11127050799
11127059222
11127062151
11127071307
11127078875
11127084551
11127090838
11127099261
11127105547
11127110552
11127123308
11127128924
11127137713
11127142107
11127151568
11127158098
11127163225
11127172136
11127176348
11127185747
11127192461
11127198931
11127207171
11127212297
11127221209
11127228167
11127235369
11127242693
11127249102
11127262957
11127274370
11127280229
11127285845
11127292620
11127299761
11127306352
11127314226
11127321306
11127332964
11127339739
11127347734
11127352739
11127359575
11127365800
11127373735
11127380083
11127384843
11127395769
11127404130
11127409990
11127416704
11127423479
11127429582
11127435319
11127442277
11127449052
11127457414
11127464250
11127470598
11127476945
11127484758
11127491227
