11283444319
11283449874
11283455123
11283459761
11283464095
11283469466
11283475569
11283481978
11283490706
11283501326
11283507124
11283513960
11283519270
11283526778
11283530562
11283536360
11283542158
11283547774
11283553999
11283559004
11283565413
11283571089
11283578108
11283584517
11283591109
11283597273
11283603926
11283609358
11283615095
11283621077
11283627974
11283634565
11283640242
11283646528
11283652021
11283657515
11283663374
11283670027
11283675154
11283680281
11283686934
11283692427
11283700544
11283706770
11283713056
11283717268
11283724897
11283730879
11283738142
11283743574
11283750105
11283756697
11283762983
11283769392
11283777570
11283783064
11283788740
11283794843
11283801679
11283808393
11283814680
11283821272
11283827314
11283832502
11283840437
11283843671
11283852949
11283858747
11283865461
11283872419
11283878644
11283884382
11283891218
11283896772
11283904645
11283910810
11283916425
11283922468
11283928388
11283935651
11283943830
11283954328
11283962507
11283968671
11283975751
11283983564
11283991376
11283997113
11284003461
11284009809
11284014508
11284022748
11284027814
11284035199
11284040143
11284048627
11284054547
11284061383
11284065473
11284072247
11284077680
11284087933
11284093976
11284100568
11284106793
11284113995
11284119366
11284124799
11284132489
11284137860
11284144940
11284151227
11284158307
11284165021
11284171490
11284177594
11284185101
11284191022
11284198346
11284204144
11284209393
11284217267
11284223004
11284229168
11284235089
11284242657
11284248700
11284255475
11284261090
11284266461
11284273480
11284280438
11284286175
11284293072
11284298565
11284305706
11284312481
11284317364
11284324932
11284331158
11284337383
11284343670
11284350079
11284356182
11284363384
11284368694
11284377606
11284383404
11284392315
11284397259
11284405193
11284410625
11284418255
11284425762
11284433269
11284439556
11284448284
11284455730
11284463116
11284468914
11284476238
11284484844
11284492229
11284499798
11284505169
11284513531
11284518780
11284526775
11284532940
11284541240
11284547039
11284557232
11284562481
11284573345
11284585002
11284595501
11284603679
11284614910
11284622844
11284632366
11284642009
11284647746
11284656474
11284662456
11284670390
11284676738
11284684367
11284690349
11284697978
11284703777
11284709697
11284717448
11284723369
11284730632
11284736369
11284743083
11284750713
11284756206
11284763957
11284770549
11284776347
11284784892
11284791789
11284799846
11284806926
11284813884
11284821757
11284825908
11284835978
11284842082
11284851970
11284858256
11284866496
11284872844
11284882365
11284888896
11284895671
11284904826
11284912333
11284919413
11284927287
11284934489
11284941325
11284949259
11284957499
11284965800
11284973734
11284981608
11284985941
11284995768
11285001933
11285011271
11285017619
11285024454
11285033732
11285040751
11285047831
11285056803
11285064005
11285071635
11285078776
11285085612
11285093607
11285101542
11285109476
11285115519
11285125467
11285132364
11285138407
11285147440
11285153788
11285163248
11285169413
11285178690
11285185587
11285192728
11285200174
11285207987
11285215738
11285223673
11285231119
11285238931
11285247049
11285252847
11285259256
11285268533
11285276590
11285281839
11285291177
11285299295
11285306314
11285312357
11285322183
11285329568
11285336893
11285341714
11285353006
11285364480
11285373697
11285381448
11285391763
11285400064
11285408243
11285415933
11285423868
11285431375
11285439248
11285447305
11285455301
11285461831
11285469644
11285475869
11285485208
11285491433
11285500222
11285506326
11285514382
11285523660
11285529580
11285536843
11285543862
11285552041
11285560464
11285568215
11285574990
11285583047
11285589944
11285597878
11285604043
11285615823
11285622720
11285630715
11285637185
11285646157
11285652322
11285662148
11285668313
11285674660
11285684975
11285692483
11285699685
11285706887
11285714882
11285722512
11285730507
11285737526
11285745705
11285753151
11285760964
11285769387
11285777199
11285784340
11285793190
11285802407
11285808266
11285817787
11285825417
11285832558
11285841530
11285848671
11285855263
11285863320
11285870094
11285880043
11285886452
11285894386
11285902748
11285908546
11285917885
11285923805
11285932106
11285940529
11285946693
11285955971
11285964027
11285970558
11285977821
11285985512
11285992775
11285999489
11286009437
11286017067
11286024208
11286031410
11286039406
11286048622
11286057045
11286061439
11286071754
11286080970
11286088600
11286096229
11286104286
11286110511
11286118873
11286127662
11286132728
11286142677
11286149757
11286159034
11286165138
11286175636
11286183631
11286191383
11286200172
11286208106
11286221717
11286230262
11286241981
11286249305
11286255714
11286263160
11286270728
11286278541
11286285804
11286291724
11286298865
11286305213
11286312354
11286318152
11286329078
11286344336
11286361365
11286373023
11286385047
11286393592
11286402930
11286412085
11286423743
11286432044
11286440405
11286446570
11286452735
11286459082
11286465918
11286474036
11286480139
11286487036
11286492590
11286498572
11286506201
11286512244
11286518896
11286526160
11286533606
11286538916
11286546118
11286550879
11286558874
11286565527
11286571814
11286580359
11286585974
11286594580
11286603247
11286611487
11286618506
11286629126
11286637304
11286644995
11286651159
11286657873
11286663488
11286672338
11286677526
11286685644
11286691809
11286699926
11286705541
11286712805
11286721166
11286729040
11286734777
11286741491
11286748571
11286756994
11286764013
11286770178
11286779272
11286787389
11286795812
11286803197
11286812414
11286822301
11286829015
11286839391
11286847204
11286854467
11286862401
11286870580
11286879552
11286886693
11286893407
11286901281
11286910192
11286916051
11286922460
11286933141
11286942968
11286951574
11286964025
11286970555
11286979833
11286987706
11286996739
11287006627
11287013890
11287020909
11287027989
11287033544
11287042027
11287048985
11287055577
11287061498
11287070409
11287078160
11287085240
11287092503
11287100316
11287107335
11287115208
11287122044
11287129674
11287137120
11287144444
11287150365
11287158116
11287165745
11287172886
11287178502
11287186070
11287193699
11287201634
11287207615
11287214695
11287222996
11287228734
11287237889
11287243260
11287251927
11287258335
11287266880
11287274205
11287280674
11287288304
11287295384
11287303562
11287309910
11287316807
11287323399
11287329685
11287338658
11287345921
11287352574
11287359898
11287367100
11287375340
11287380711
11287389133
11287397129
11287403233
11287412449
11287419407
11287428745
11287435032
11287442051
11287451755
11287457798
11287467075
11287474705
11287481907
11287488132
11287496128
11287504062
11287511936
11287519138
11287526951
11287535312
11287543369
11287552158
11287559726
11287566501
11287574070
11287582370
11287590122
11287596530
11287604953
11287611728
11287619724
11287626560
11287634067
11287642368
11287649997
11287656040
11287666232
11287674655
11287682040
11287690158
11287698093
11287707065
11287714999
11287719516
11287732272
11287740390
11287747104
11287756747
11287763278
11287772677
11287778903
11287788119
11287796481
11287803805
11287810824
11287819919
11287826083
11287835055
11287842685
11287849765
11287856601
11287866671
11287872409
11287881930
11287886996
11287896640
11287901950
11287912448
11287919894
11287925753
11287934786
11287942721
11287948947
11287957552
11287963717
11287971713
11287980929
11287987215
11287997530
11288003451
11288012728
11288019808
11288027193
11288033785
11288043917
11288051485
11288059664
11288067538
11288075472
11288079561
11288089815
11288101595
11288109652
11288113924
11288123873
11288133150
11288141085
11288147371
11288154146
11288163362
11288170504
11288177889
11288185640
11288195040
11288201815
11288211275
11288218660
11288226045
11288232698
11288240755
11288247652
11288255525
11288262239
11288272798
11288280061
11288288057
11288294405
11288300752
11288310274
11288316255
11288325532
11288333040
11288340059
11288347871
11288357027
11288364168
11288371431
11288378023
11288390779
11288398225
11288406160
11288410371
11288420564
11288429109
11288437288
11288445039
11288453096
11288461457
11288467195
11288475556
11288483552
11288489961
11288496919
11288506318
11288514192
11288522737
11288533113
11288542634
11288552583
11288558991
11288568818
11288575654
11288582246
11288596406
11288602448
11288611604
11288617402
11288623566
11288633149
11288639619
11288647431
11288656891
11288662751
11288672150
11288679658
11288687043
11288693390
11288702973
11288708771
11288717682
11288724091
11288730561
11288737946
11288745087
11288752655
11288760163
11288767853
11288775177
11288782746
11288790192
11288798126
11288803925
11288810211
11288820282
11288826752
11288835175
11288843537
11288851532
11288857636
11288864716
11288874115
11288881256
11288888275
11288897003
11288904205
11288912506
11288919891
11288923981
11288936005
11288942718
11288950836
11288957489
11288967682
11288975921
11288983734
11288990082
11288998077
11289006561
11289014557
11289020660
11289028656
11289037140
11289045257
11289051422
11289058624
11289067840
11289073516
11289081573
11289091033
11289098297
11289105133
11289112579
11289121124
11289127227
11289136443
11289142303
11289150665
11289157256
11289167022
11289176116
11289182525
11289189483
11289199859
11289207854
11289214202
11289220733
11289232024
11289238494
11289247954
11289253509
11289262847
11289270537
11289278655
11289286773
11289294280
11289301848
11289309905
11289317656
11289326506
11289334197
11289342803
11289349578
11289357634
11289370208
11289379851
11289385771
11289396453
11289401457
11289411467
11289418669
11289425505
11289431975
11289439299
11289447234
11289454436
11289462187
11289467497
11289473418
11289482207
11289488554
11289498625
11289504118
11289511992
11289517668
11289526579
11289534209
11289541716
11289548247
11289556914
11289562834
11289570830
11289577421
11289584074
11289592619
11289600126
11289607451
11289614286
11289622770
11289627531
11289636625
11289642668
11289650175
11289656950
11289667204
11289674101
11289681852
11289686308
11289696440
11289702116
11289710844
11289719145
11289726469
11289733122
11289742033
11289748319
11289756132
11289763334
11289771391
11289778715
11289785551
11289796293
11289802457
11289812528
11289819242
11289827482
11289834318
11289842252
11289850980
11289858854
11289867765
11289875821
11289883024
11289891935
11289901517
11289909513
11289915982
11289922696
11289932157
11289939054
11289948392
11289953946
11289963224
11289970975
11289978177
11289985135
11289993192
11290000760
11290008695
11290015531
11290023465
11290029935
11290039639
11290045926
11290055081
11290061612
11290068814
11290078580
11290084866
11290094388
11290101956
11290109219
11290118314
11290126370
11290136868
11290142850
11290153226
11290162320
11290170437
11290176907
11290186123
11290195889
11290201565
11290209500
11290217129
11290224820
11290231900
11290239346
11290244961
11290253262
11290261868
11290267605
11290276394
11290282376
11290291226
11290296902
11290304043
11290313442
11290318264
11290326748
11290333706
11290340298
11290348599
11290355434
11290361599
11290369167
11290376431
11290383694
11290390774
11290397976
11290405117
11290412380
11290420803
11290428188
11290436367
11290443386
11290450222
11290457607
11290464504
11290471828
11290477504
11290485256
11290493007
11290500210
11290505947
11290515163
11290520900
11290527675
11290536037
11290543056
11290549709
11290556362
11290565273
11290573268
11290580593
11290588283
11290595546
11290601833
11290609889
11290618678
11290626613
11290630702
11290640651
11290646877
11290653468
11290663173
11290670375
11290679774
11290685756
11290694850
11290701930
11290709193
11290716029
11290723842
11290730983
11290739101
11290749049
11290756984
11290764857
11290770717
11290779139
11290785182
11290794581
11290800136
11290809535
11290817653
11290824794
11290833522
11290840968
11290848292
11290856227
11290863551
11290871974
11290879725
11290887721
11290893946
11290904444
11290911585
11290919703
11290929957
11290936976
11290947230
11290959986
11290965846
11290973963
11290982447
11290989893
11290997645
11291007532
11291012965
11291021937
11291029627
11291036158
11291043116
11291049586
11291057947
11291064600
11291070826
11291079798
11291085352
11291094568
11291099756
11291108790
11291115503
11291122767
11291128992
11291136316
11291142298
11291151026
11291156580
11291164942
11291170618
11291177698
11291192224
11291199365
11291206751
11291214197
11291221338
11291229273
11291235437
11291243677
11291250147
11291259851
11291265649
11291274805
11291281091
11291289087
11291296167
11291303369
11291313562
11291320520
11291327844
11291336999
11291344079
11291350305
11291358423
11291364648
11291374048
11291380517
11291389551
11291398034
11291402673
11291411645
11291416955
11291425561
11291432092
11291442651
11291448999
11291456689
11291464501
11291473901
11291482934
11291491540
11291500451
11291505517
11291515038
11291523217
11291530908
11291535180
11291546899
11291554955
11291563439
11291570885
11291576867
11291585534
11291593591
11291599877
11291606347
11291615502
11291621239
11291632653
11291640221
11291647851
11291653893
11291659875
11291669762
11291676049
11291685936
11291692894
11291704430
11291711266
11291721642
11291727745
11291735924
11291745140
11291750084
11291759667
11291767968
11291775841
11291783409
11291789208
11291795860
11291804405
11291810204
11291818749
11291825279
11291833641
11291840965
11291847679
11291854942
11291861473
11291867394
11291877098
11291883080
11291895103
11291901390
11291908470
11291915062
11291922264
11291929283
11291936973
11291944603
11291951622
11291955650
11291965416
11291971336
11291980613
11291986412
11291992698
11292001426
11292008812
11292016441
11292021324
11292029991
11292036949
11292045982
11292053245
11292061546
11292069602
11292076683
11292083946
11292092307
11292100242
11292107993
11292115135
11292123252
11292129905
11292139182
11292145713
11292152366
11292161765
11292168784
11292175925
11292183372
11292194846
11292205527
11292215476
11292225425
11292232566
11292240806
11292248435
11292256064
11292262229
11292271384
11292279319
11292283713
11292293906
11292300254
11292309958
11292316367
11292322409
11292334067
11292340232
11292349509
11292356345
11292363608
11292372946
11292380515
11292387839
11292395835
11292402609
11292410605
11292418173
11292426474
11292436057
11292445639
11292451987
11292459799
11292468832
11292475485
11292484702
11292491354
11292499472
11292508139
11292516318
11292523825
11292532675
11292537009
11292553732
11292562765
11292569845
11292579001
11292588034
11292594015
11292604635
11292611715
11292619711
11292624777
11292633383
11292640280
11292648519
11292654440
11292663168
11292669210
11292677450
11292683004
11292690756
11292696859
11292702963
11292709188
11292716329
11292723959
11292731161
11292737020
11292745565
11292751363
11292758260
11292765035
11292771932
11292779562
11292786581
11292793356
11292801534
11292807882
11292815206
11292820943
11292831624
11292839986
11292847555
11292856038
11292861715
11292867940
11292878866
11292883504
11292892904
11292902852
11292910787
11292918050
11292924520
11292931234
11292940816
11292947042
11292955953
11292962422
11292971456
11292977681
11292986348
11292992452
11293002217
11293008687
11293018086
11293026997
11293034932
11293042500
11293050252
11293055928
11293065938
11293072713
11293080952
11293088277
11293096638
11293104268
11293110188
11293119466
11293128132
11293134541
11293144978
11293151997
11293160603
11293167378
11293174336
11293183247
11293190327
11293200398
11293207600
11293214802
11293224079
11293229451
11293238301
11293245381
11293253437
11293265339
11293272907
11293282124
11293289753
11293297871
11293307087
11293316181
11293325459
11293333515
11293341755
11293347736
11293353718
11293362446
11293369221
11293377827
11293397358
11293406757
11293413593
11293421528
11293428058
11293435322
11293441913
11293449360
11293455036
11293463520
11293469379
11293478656
11293484333
11293491840
11293499469
11293506855
11293512531
11293521320
11293528888
11293536212
11293541767
11293548786
11293557880
11293564105
11293573139
11293580158
11293587848
11293596515
11293603778
11293610126
11293620319
11293627582
11293635516
11293643268
11293651202
11293657855
11293665790
11293672260
11293679217
11293688617
11293697101
11293703448
11293711383
11293718585
11293726275
11293733478
11293739947
11293750262
11293757647
11293765582
11293772235
11293780169
11293786578
11293794513
11293802752
11293808123
11293818011
11293825640
11293835162
11293840960
11293850238
11293858172
11293865374
11293871112
11293881121
11293888751
11293895770
11293901934
11293910113
11293917681
11293925494
11293933001
11293941180
11293947771
11293957537
11293962847
11293973406
11293979693
11293988238
11293995623
11294005633
11294012469
11294020525
11294029741
11294035723
11294042681
11294053850
11294060625
11294070330
11294082476
11294089678
11294098833
11294107378
11294114336
11294121599
11294127825
11294137163
11294144792
11294151750
11294158647
11294165789
11294173418
11294180559
11294184526
11294194109
11294200578
11294210039
11294217180
11294224504
11294231767
11294237322
11294245073
11294252824
11294260881
11294268022
11294273576
11294281572
11294289140
11294295366
11294304033
11294310319
11294317644
11294325456
11294332109
11294339067
11294347490
11294354753
11294362016
11294367692
11294377092
11294383073
11294390458
11294397844
11294405778
11294414628
11294420549
11294426774
11294436418
11294443009
11294451737
11294461198
11294466081
11294475419
11294482621
11294489884
11294497392
11294506669
11294512650
11294520707
11294528764
11294536759
11294544572
11294550553
11294556840
11294566483
11294572892
11294583207
11294589371
11294596451
11294605790
11294612931
11294620133
11294628678
11294636063
11294644120
11294651383
11294656998
11294667008
11294674393
11294680314
11294686539
11294698319
11294706070
11294716202
11294722000
11294729996
11294737686
11294745804
11294754105
11294759781
11294766617
11294776505
11294783280
11294791153
11294799637
11294807205
11294811417
11294821732
11294829117
11294838150
11294844864
11294855240
11294862015
11294871841
11294878311
11294886490
11294894119
11294907486
11294915298
11294921890
11294928543
11294936294
11294942947
11294952041
11294957168
11294966324
11294972549
11294979812
11294986953
11294994278
11295001602
11295009048
11295016616
11295023819
11295030777
11295038101
11295043838
11295050125
11295058670
11295066665
11295072586
11295079788
11295088638
11295093704
11295102065
11295108352
11295116775
11295124160
11295130996
11295138564
11295145766
11295154372
11295162063
11295168349
11295176284
11295184646
11295192885
11295199599
11295207473
11295213759
11295222793
11295229262
11295236281
11295246047
11295253249
11295260634
11295269057
11295276320
11295283095
11295290908
11295299147
11295307143
11295314467
11295325148
11295331679
11295339797
11295347487
11295355483
11295361708
11295371657
11295378127
11295385939
11295394423
11295402297
11295408644
11295416884
11295424269
11295432509
11295439711
11295446730
11295454970
11295462599
11295470473
11295478712
11295486647
11295494032
11295502211
11295508375
11295514418
11295523878
11295531935
11295540114
11295545912
11295555250
11295562697
11295570265
11295577528
11295586805
11295594252
11295603590
11295611525
11295618849
11295625013
11295636488
11295643690
11295652601
11295665296
11295670667
11295678358
11295687513
11295695143
11295702650
11295710584
11295717909
11295725721
11295732923
11295740614
11295747327
11295755384
11295762098
11295768751
11295776136
11295783643
11295790845
11295798963
11295806287
11295812391
11295819532
11295825269
11295833387
11295841504
11295848707
11295854261
11295863050
11295868787
11295876844
11295882886
11295890210
11295899305
11295905530
11295914136
11295920056
11295928968
11295935804
11295942945
11295952039
11295961133
11295968213
11295975598
11295981336
11295991406
11295996716
11296004773
11296013135
11296021253
11296028760
11296036755
11296043469
11296052563
11296058911
11296066418
11296075879
11296081921
11296091382
11296098645
11296105969
11296111767
11296121594
11296127637
11296135449
11296144848
11296152722
11296161206
11296169018
11296173413
11296182934
11296189038
11296198498
11296204968
11296214550
11296223034
11296228405
11296237744
11296244580
11296250622
11296260144
11296266552
11296273388
11296282910
11296289745
11296298962
11296307140
11296314465
11296322094
11296329296
11296333691
11296343761
11296354076
11296362072
11296366405
11296376781
11296383495
11296393505
11296399608
11296406505
11296416515
11296423168
11296433300
11296446239
11296450817
11296461071
11296467357
11296477489
11296490551
11296497570
11296504955
11296511669
11296519054
11296525707
11296532787
11296540111
11296546703
11296553966
11296562267
11296569469
11296575633
11296583019
11296588695
11296597057
11296606517
11296612010
11296620433
11296627635
11296633556
11296642406
11296648021
11296654552
11296663158
11296668651
11296676890
11296684581
11296691478
11296698680
11296705150
11296711375
11296720592
11296725780
11296734874
11296742137
11296748729
11296752940
11296763499
11296771495
11296779490
11296787852
11296795726
11296803172
11296810984
11296817393
11296825938
11296832225
11296839915
11296847422
11296855296
11296864634
11296872325
11296879527
11296885874
11296893931
11296902415
11296910410
11296922739
11296930064
11296938548
11296945506
11296952158
11296961863
11296968577
11296975413
11296984690
11296991099
11296998850
11297005686
11297014109
11297020640
11297028086
11297034739
11297042429
11297051523
11297057627
11297064890
11297073862
11297080576
11297087595
11297094858
11297101206
11297108408
11297115488
11297122629
11297128366
11297136545
11297145273
11297150461
11297159860
11297168772
11297175119
11297184030
11297190500
11297199655
11297207407
11297215830
11297223459
11297236215
11297244089
11297252512
11297256845
11297265878
11297275033
11297282541
11297288583
11297295724
11297303781
11297311166
11297317087
11297324838
11297330636
11297337716
11297346628
11297352548
11297361154
11297368844
11297374643
11297382150
11297388742
11297396798
11297403573
11297411142
11297419625
11297426644
11297433236
11297438912
11297448129
11297454232
11297461923
11297469979
11297477365
11297483041
11297490304
11297498910
11297506112
11297513680
11297519235
11297528329
11297536080
11297542428
11297551827
11297558236
11297564217
11297573556
11297580941
11297589974
11297596871
11297604134
11297610970
11297619271
11297626229
11297634285
11297641732
11297649727
11297655953
11297664986
11297673287
11297681771
11297687935
11297695259
11297704476
11297711556
11297720955
11297728035
11297735298
11297742989
11297750374
11297757210
11297765206
11297772469
11297780708
11297786995
11297796028
11297804756
11297809944
11297819161
11297825020
11297834358
11297841316
11297850655
11297856514
11297865730
11297873848
11297881050
11297886604
11297896492
11297904365
11297911445
11297917305
11297927253
11297933601
11297940437
11297948127
11297954841
11297960945
11297970832
11297979622
11297987617
11297998115
11298006050
11298015022
11298023933
11298031501
11298039436
11298048225
11298055549
11298064643
11298071174
11298078681
11298085456
11298091743
11298101020
11298106330
11298115363
11298120795
11298129951
11298136543
11298143745
11298149909
11298157111
11298163154
11298171760
11298177619
11298186652
11298192267
11298198737
11298207099
11298213080
11298221686
11298230842
11298236640
11298245063
11298250983
11298257636
11298266120
11298272345
11298280890
11298286383
11298295417
11298302558
11298310004
11298318915
11298326056
11298333747
11298341925
11298349799
11298357855
11298365607
11298371344
11298377631
11298387274
11298393500
11298402533
11298411261
11298417181
11298424628
11298433295
11298440863
11298449347
11298456427
11298463629
11298471808
11298480902
11298488898
11298496649
11298502447
11298510809
11298518866
11298525580
11298535284
11298542242
11298555182
11298559149
11298568609
11298576727
11298584051
11298590155
11298597479
11298603765
11298612616
11298618963
11298627874
11298636114
11298642584
11298651983
11298658026
11298665472
11298673712
11298683111
11298687872
11298698065
11298703924
11298711797
11298720159
11298728216
11298735174
11298743230
11298749578
11298758672
11298767217
11298773504
11298783758
11298788640
11298800298
11298808538
11298819036
11298826970
11298835821
11298844793
11298851262
11298859319
11298867376
11298874700
11298880315
11298888005
11298893193
11298903203
11298908391
11298916387
11298922612
11298931157
11298936406
11298944951
11298950322
11298956243
11298964421
11298969548
11298979009
11298985112
11298994328
11299000981
11299007756
11299015385
11299022038
11299025822
11299037968
11299045903
11299052556
11299058293
11299065556
11299072392
11299079289
11299086186
11299093510
11299102116
11299108647
11299114934
11299121647
11299128911
11299135869
11299142704
11299150944
11299158940
11299166752
11299173893
11299181218
11299186955
11299195256
11299201054
11299207585
11299216557
11299224797
11299231327
11299237309
11299246037
11299252445
11299261173
11299267765
11299274967
11299281986
11299290104
11299296208
11299303654
11299310917
11299318363
11299324039
11299333317
11299339603
11299348392
11299354374
11299362736
11299370792
11299375309
11299384037
11299390873
11299397831
11299405216
11299414249
11299419620
11299428348
11299433597
11299440738
11299447879
11299455814
11299464359
11299472110
11299478153
11299485477
11299493228
11299500797
11299506900
11299514225
11299522953
11299531986
11299541873
11299548343
11299556827
11299565616
11299572574
11299581668
11299591068
11299597232
11299606632
11299614505
11299621646
11299629214
11299635501
11299643863
11299650943
11299658084
11299664859
11299671878
11299677554
11299686587
11299693423
11299700686
11299708743
11299716006
11299722781
11299730044
11299737552
11299744571
11299751956
11299759341
11299766665
11299773989
11299782412
11299790225
11299794436
11299803958
11299811770
11299822024
11299829348
11299836672
11299845034
11299851748
11299861086
11299866885
11299873293
11299882144
11299890383
11299896487
11299902285
11299910525
11299918581
11299924990
11299931155
11299940676
11299947451
11299956972
11299962649
11299971560
11299978029
11299986513
11299992617
11299999880
11300007754
11300016543
11300022524
11300030947
11300037966
11300044069
11300051271
11300059084
11300066835
11300075624
11300082155
11300088381
11300095095
11300103517
11300112245
11300119142
11300127626
11300134645
11300143312
11300151125
11300158693
11300164369
11300174013
11300180971
11300189577
11300196840
11300202577
11300210451
11300217897
11300222963
11300232484
11300238649
11300248231
11300257387
11300266298
11300274171
11300282960
11300293031
11300305177
11300313661
11300322328
11300330385
11300338502
11300347047
11300354676
11300363099
11300369630
11300378175
11300386537
11300393373
11300400209
11300406983
11300416078
11300422059
11300430482
11300437745
11300444276
11300450135
11300459290
11300465577
11300473084
11300479432
11300486573
11300493470
11300503114
11300510621
11300516480
11300522706
11300531800
11300541077
11300547181
11300556580
11300564881
11300571595
11300578797
11300588013
11300593690
11300604249
11300609376
11300619385
11300625062
11300633179
11300641907
11300650025
11300657837
11300664002
11300674073
11300679993
11300688294
11300695862
11300704163
11300709961
11300719361
11300726807
11300734009
11300742005
11300749207
11300756653
11300764527
11300771912
11300779846
11300787781
11300796143
11300804871
11300812866
11300820496
11300826660
11300834961
11300840942
11300850159
11300856323
11300865784
11300872986
11300880493
11300889160
11300896667
11300903625
11300911682
11300918884
11300926941
11300935730
11300941528
11300950744
11300956054
11300965393
11300972290
11300981628
11300986999
11300997070
11301008239
11301015197
11301023193
11301029357
11301039001
11301046325
11301054321
11301065856
11301075866
11301082885
11301090881
11301099853
11301107421
11301115173
11301125487
11301136779
11301143432
11301151244
11301158141
11301165343
11301173949
11301181518
11301188109
11301195189
11301201293
11301209777
11301217894
11301225097
11301230834
11301237792
11301246520
11301252501
11301261046
11301266722
11301275145
11301281615
11301290160
11301297057
11301303893
11301310912
11301319335
11301326232
11301333006
11301339110
11301346312
11301354796
11301362303
11301368834
11301377928
11301383116
11301393126
11301400328
11301408446
11301416380
11301422179
11301428648
11301437865
11301446226
11301452513
11301462096
11301468016
11301477537
11301483580
11301492979
11301500548
11301509947
11301516722
11301525877
11301532286
11301541807
11301548521
11301557127
11301568357
11301575438
11301581236
11301589048
11301597166
11301604307
11301608335
11301617246
11301626097
11301633665
11301639829
11301647093
11301653013
11301660154
11301668577
11301676695
11301683897
11301693052
11301699278
11301706297
11301714841
11301721433
11301729002
11301735532
11301746458
11301754819
11301761960
11301766050
11301777341
11301784116
11301791440
11301798215
11301805906
11301814878
11301820920
11301828855
11301836545
11301842527
11301850827
11301859494
11301864560
11301873044
11301882321
11301888364
11301897031
11301904416
11301912290
11301920163
11301925656
11301934079
11301942136
11301947873
11301956357
11301961606
11301967404
11301975461
11301982053
11301989072
11301995602
11302003781
11302009396
11302017392
11302024472
11302030759
11302036374
11302045224
11302052060
11302060239
11302065549
11302073666
11302078610
11302086972
11302091549
11302100827
11302108822
11302115292
11302121579
11302128842
11302135678
11302142392
11302149289
11302156247
11302163388
11302172177
11302177182
11302184017
11302189205
11302197323
11302205197
11302212582
11302220272
11302228085
11302234005
11302243221
11302249081
11302255551
11302264401
11302270992
11302278256
11302285580
11302294491
11302301632
11302308346
11302315365
11302321957
11302328854
11302336422
11302343746
11302351559
11302358394
11302365841
11302371883
11302380184
11302385982
11302394161
11302402218
11302410152
11302418575
11302426998
11302432796
11302440181
11302446834
11302454036
11302461177
11302469051
11302478511
11302485958
11302493343
11302500301
11302506893
11302513729
11302521541
11302531185
11302538509
11302545040
11302552242
11302559993
11302567256
11302573665
11302581050
11302587764
11302597591
11302604182
11302613460
11302621211
11302628474
11302637324
11302645015
11302654780
11302662044
11302665767
11302675288
11302682796
11302689448
11302695674
11302702815
11302710261
11302717341
11302723750
11302732600
11302739192
11302746028
11302752864
11302759822
11302768550
11302775386
11302781184
11302787898
11302795954
11302802607
11302806330
11302814997
11302822749
11302829707
11302836726
11302843379
11302848872
11302857722
11302863642
11302872370
11302880122
11302885493
11302893671
11302900324
11302905634
11302913081
11302920771
11302925532
11302934626
11302943232
11302949335
11302955988
11302964655
11302969660
11302978998
11302986017
11302993158
11303000116
11303008173
11303016474
11303023249
11303029779
11303037226
11303041010
11303051142
11303058527
11303067316
11303073236
11303080561
11303088190
11303093439
11303101923
11303108026
11303115290
11303123773
11303130792
11303138666
11303145380
11303151727
11303158991
11303165949
11303173273
11303181390
11303191278
11303195123
11303203973
11303212274
11303219598
11303225275
11303231073
11303241205
11303247064
11303255853
11303266107
11303273431
11303281671
11303288446
11303299310
11303309747
11303318719
11303327020
11303335504
11303341912
11303352960
11303360284
11303368768
11303380059
11303387628
11303396173
11303404412
11303413201
11303421014
11303429254
11303438592
11303444817
11303452447
11303461419
11303469415
11303477288
11303485406
11303493218
11303500420
11303507561
11303515984
11303522881
11303528680
11303537774
11303543999
11303551385
11303558587
11303565728
11303572014
11303581292
11303588555
11303595757
11303601983
11303609612
11303618523
11303626580
11303633965
11303642083
11303648613
11303655083
11303664727
11303672783
11303679436
11303687859
11303695122
11303703240
11303710381
11303717888
11303725884
11303733330
11303741387
11303751763
11303758965
11303768303
11303775566
11303782402
11303790215
11303798576
11303806511
11303814690
11303820793
11303829399
11303836845
11303845207
11303850761
11303860527
11303868095
11303875419
11303884025
11303891044
11303898185
11303908256
11303913444
11303921501
11303930473
11303938713
11303942863
11303952873
11303959220
11303968071
11303974479
11303981864
11303991508
11303998039
11304007377
11304013908
11304024223
11304033439
11304042594
11304049735
11304056876
11304066154
11304074149
11304082572
11304089896
11304098075
11304108390
11304117911
11304125236
11304131522
11304139518
11304147208
11304155875
11304165641
11304174308
11304183829
11304191947
11304201346
11304212394
11304220633
11304231376
11304240043
11304247123
11304254996
11304264334
11304271414
11304279776
11304287467
11304296805
11304303336
11304310294
11304318228
11304325003
11304330130
11304339041
11304346854
11304353507
11304359854
11304366690
11304370535
11304381827
11304387625
11304394522
11304401236
11304410086
11304415396
11304422293
11304429922
11304436575
11304443472
11304450430
11304459280
11304467337
11304473379
11304480704
11304486502
11304494009
11304502981
11304508108
11304517202
11304525930
11304532095
11304538015
11304546499
11304553762
11304560598
11304566580
11304574087
11304581900
11304589651
11304593496
11304604910
11304609060
11304618643
11304626760
11304632253
11304643728
11304649526
11304657278
11304664724
11304670522
11304677114
11304685598
11304693410
11304699697
11304706960
11304716054
11304721181
11304729909
11304736928
11304743703
11304749624
11304757375
11304768239
11304775747
11304781301
11304788747
11304794607
11304803945
11304810170
11304817739
11304824758
11304833303
11304842214
11304850148
11304856984
11304867726
11304877675
11304886891
11304895497
11304903127
11304909413
11304916860
11304925221
11304931569
11304941335
11304947682
11304957509
11304964162
11304973683
11304983327
11304989491
11305001271
11305009999
11305018239
11305024708
11305033131
11305040089
11305047963
11305054616
11305060658
11305067921
11305074513
11305082753
11305089406
11305095631
11305101796
11305108265
11305115162
11305121815
11305128651
11305137501
11305144093
11305149891
11305158253
11305164662
11305171925
11305178334
11305185658
11305193348
11305202992
11305209706
11305217030
11305221607
11305231129
11305239491
11305244373
11305253895
11305262989
11305268971
11305277210
11305284168
11305293568
11305299793
11305310108
11305317432
11305328602
11305335438
11305342701
11305349415
11305358631
11305363575
11305374439
11305383960
11305392139
11305397510
11305405567
11305411304
11305421009
11305427417
11305436817
11305444080
11305452564
11305458667
11305466602
11305474475
11305480091
11305488574
11305493946
11305503101
11305509387
11305518970
11305524158
11305533862
11305539234
11305546619
11305555164
11305560779
11305568958
11305576953
11305582751
11305590991
11305596790
11305605334
11305611194
11305619983
11305626514
11305633655
11305643115
11305648303
11305656848
11305664172
11305670947
11305677478
11305686084
11305693286
11305701404
11305710498
11305718615
11305725268
11305736682
11305744372
11305754626
11305761340
11305770434
11305779467
11305785754
11305795764
11305801989
11305808703
11305816149
11305823229
11305830737
11305837389
11305844958
11305851672
11305858324
11305865344
11305872485
11305879198
11305886828
11305893725
11305899523
11305906115
11305911547
11305920336
11305930712
11305936327
11305942309
11305951281
11305956408
11305964464
11305969713
11305976427
11305985399
11305993883
11306003893
11306013598
11306021959
11306030626
11306038439
11306046251
11306053942
11306061571
11306068224
11306077440
11306082933
11306092455
11306098863
11306106920
11306115526
11306123705
11306130480
11306137865
11306146227
11306151842
11306157640
11306167406
11306174730
11306184007
11306189989
11306198412
11306203966
11306212389
11306220079
11306227464
11306233629
11306240831
11306249803
11306254625
11306263170
11306270128
11306276964
11306285203
11306292222
11306305162
11306313646
11306319200
11306327867
11306333970
11306342454
11306347337
11306358445
11306365831
11306372911
11306379258
11306386766
11306392808
11306401902
11306408494
11306415757
11306424729
11306432359
11306439195
11306446580
11306453355
11306460740
11306466721
11306476670
11306487107
11306496445
11306504380
11306512925
11306522141
11306530381
11306536423
11306547593
11306553940
11306562607
11306568833
11306576645
11306583176
11306591172
11306597031
11306605759
11306614182
11306620224
11306626511
11306634934
11306641404
11306649887
11306656906
11306663986
11306670334
11306679611
11306685837
11306694382
11306700913
11306707321
11306713547
11306723068
11306731125
11306737717
11306744553
11306750656
11306757126
11306765671
11306772446
11306779160
11306785385
11306795456
11306802292
11306811081
11306818588
11306825729
11306833664
11306841537
11306850265
11306858078
11306865646
11306874130
11306882187
11306890609
11306896835
11306906051
11306912887
11306921859
11306928085
11306938095
11306944564
11306951767
11306960922
11306968368
11306975753
11306983444
11306990707
11306999374
11307006515
11307013534
11307021530
11307027999
11307035934
11307044967
11307050826
11307059066
11307065902
11307075118
11307081649
11307088851
11307095565
11307106002
11307113692
11307121383
11307130294
11307137313
11307144149
11307151839
11307159163
11307167098
11307175277
11307183028
11307192061
11307197799
11307204085
11307213363
11307219649
11307229293
11307235457
11307245345
11307251754
11307262313
11307269210
11307277999
11307285872
11307295149
11307304000
11307314314
11307322615
11307330428
11307340682
11307346175
11307353743
11307361128
11307368330
11307376387
11307384016
11307391951
11307399275
11307406050
11307413435
11307419234
11307426863
11307433211
11307442244
11307448347
11307457258
11307463850
11307470686
11307475935
11307484053
11307492659
11307499739
11307505537
11307515181
11307522871
11307530622
11307538252
11307546614
11307555769
11307565596
11307577192
11307584761
11307593183
11307605085
11307613203
11307622358
11307630659
11307637922
11307645490
11307652753
11307659406
11307666608
11307673200
11307680402
11307687910
11307694318
11307701643
11307708417
11307716596
11307724164
11307731428
11307738202
11307743818
11307750409
11307757429
11307765180
11307773115
11307780561
11307787397
11307794782
11307801618
11307812543
11307819074
11307826825
11307835004
11307843122
11307847455
11307856549
11307864972
11307872479
11307879315
11307887616
11307894269
11307902387
11307910748
11307916791
11307925946
11307932721
11307939862
11307946820
11307953961
11307960309
11307969342
11307976727
11307985028
11307994122
11308003155
11308012189
11308018841
11308025983
11308034588
11308040570
11308048749
11308057293
11308062420
11308069134
11308076703
11308083111
11308088543
11308095990
11308102154
11308110821
11308119183
11308127179
11308136456
11308144696
11308149212
11308161175
11308167034
11308176983
11308184002
11308191754
11308195843
11308206951
11308213299
11308222698
11308230511
11308239544
11308245342
11308252911
11308260418
11308267376
11308272686
11308278484
11308287212
11308293987
11308300152
11308309551
11308315288
11308321819
11308330242
11308336407
11308344890
11308351848
11308360027
11308366131
11308374553
11308380230
11308388103
11308392620
11308402324
11308409587
11308415996
11308421917
11308428997
11308436260
11308443462
11308450481
11308460552
11308467998
11308475566
11308482585
11308490032
11308497417
11308504619
11308510600
11308517925
11308524516
11308532939
11308539409
11308549419
11308556255
11308568217
11308577251
11308586589
11308592021
11308604961
11308613261
11308621501
11308631145
11308639079
11308650371
11308661052
11308668559
11308683391
11308692424
11308704692
11308715434
11308728495
11308735453
11308751017
11308757792
11308773783
11308783854
11308794169
11308805888
11308816325
11308830546
11308837687
11308853434
11308864237
11308875651
11308888102
11308899515
11308913248
11308920695
11308932535
11308948038
11308958536
11308969339
11308978983
11308987650
11308998819
11309008097
11309019937
11309026163
11309036295
11309046427
11309054605
11309062662
11309073831
11309082437
11309093302
11309103006
11309111124
11309118692
11309126566
11309137613
11309145425
11309152872
11309164713
11309178506
11309187540
11309196878
11309204690
11309215311
11309225564
11309237466
11309243753
11309253702
11309266824
11309278482
11309286844
11309296853
11309305093
11309313882
11309324319
11309335366
11309346414
11309354287
11309366067
11309377603
11309383584
11309393289
11309407021
11309413491
11309425393
11309435525
11309443642
11309453408
11309463479
11309478066
11309487893
11309500283
11309513772
11309525368
11309535134
11309547646
11309556069
11309571511
11309580849
11309587075
11309598732
11309610512
11309619118
11309628334
11309638100
11309649758
11309659279
11309672402
11309682472
11309689980
11309701271
11309710610
11309722389
11309728920
11309738442
11309754066
11309763466
11309774147
11309783424
11309791847
11309800514
11309810463
11309820656
11309828773
11309840370
11309852516
11309861366
11309870399
11309880470
11309891517
11309899147
11309910987
11309919777
11309928138
11309938758
11309949745
11309960731
11309969886
11309978492
11309987159
11309995643
11310008704
11310016273
11310028663
11310036903
11310052711
11310064429
11310073280
11310083045
11310095069
11310105201
11310108436
11310122962
11310133277
11310143104
11310147864
11310158423
11310164222
11310173987
11310179419
11310186438
11310195960
11310204016
11310210059
11310216590
11310225196
11310230628
11310238318
11310245520
11310253211
11310260962
11310268653
11310275672
11310283179
11310289527
11310297034
11310303076
11310311743
11310322363
11310328650
11310336768
11310344946
11310352820
11310361609
11310370825
11310379309
11310388403
11310396765
11310402502
11310409827
11310417822
11310423620
11310432348
11310437781
11310448156
11310454504
11310463598
11310470068
11310476965
11310482885
11310492346
11310497595
11310504858
11310516394
11310523291
11310529333
11310536718
11310545019
11310550451
11310558935
11310563452
11310573217
11310580725
11310589147
11310596777
11310602575
11310610021
11310616857
11310623083
11310630956
11310641882
11310649145
11310654455
11310663671
11310669897
11310677526
11310684667
11310692113
11310700658
11310706274
11310712133
11310720861
11310726781
11310735448
11310743261
11310747838
11310757421
11310763768
11310772863
11310778722
11310787511
11310792394
11310801793
11310808202
11310816014
11310825292
11310832189
11310838719
11310846593
11310853368
11310861180
11310868505
11310876439
11310887303
11310896642
11310906529
11310915013
11310922032
11310929540
11310936925
11310942601
11310952672
11310960362
11310966405
11310973912
11310981663
11310989049
11310995091
11311001561
11311008641
11311016087
11311025181
11311031102
11311039952
11311045018
11311054112
11311060399
11311068028
11311076024
11311085850
11311090550
11311097874
11311106175
11311113499
11311119664
11311126988
11311133885
11311144078
11311150486
11311158238
11311163914
11311170872
11311177830
11311187718
11311195164
11311202305
11311211460
11311217197
11311224094
11311231785
11311238560
11311244968
11311252293
11311262424
11311269443
11311276585
11311284031
11311289890
11311297397
11311303440
11311312778
11311324741
11311332187
11311340549
11311348301
11311356418
11311364841
11311374180
11311381809
11311390110
11311397800
11311406772
11311413913
11311419712
11311429111
11311434848
11311442050
11311449680
11311459323
11311465610
11311472995
11311480075
11311487338
11311495090
11311500705
11311510715
11311518649
11311524692
11311534335
11311544101
11311552524
11311561435
11311569919
11311579257
11311587436
11311591403
11311600558
11311606235
11311615817
11311621615
11311630160
11311638339
11311647494
11311654635
11311664706
11311675692
11311684970
11311694125
11311703585
11311711276
11311719638
11311726290
11311732028
11311736972
11311741610
11311746432
11311751132
11311757601
11311762118
11311767611
11311776522
11311781710
11311787936
11311798495
11311804354
11311809481
11311814364
11311819857
11311825045
11311830538
11311835970
11311841891
11311848727
11311853182
11311858004
11311860812
11311870150
11311875948
11311880282
11311888155
11311893770
11311896883
11311904268
11311908480
11311915072
11311920870
11311925692
11311933626
11311940523
11311943697
11311950655
11311955111
11311960421
11311965426
11311971529
11311977938
11311983736
11311988924
11311994478
11311999605
11312004915
11312009859
11312015535
11312021089
11312026155
11312032198
11312037203
11312042757
11312048738
11312052889
11312057100
11312064241
11312070345
11312077242
11312081331
11312087618
11312091768
11312098543
11312103853
11312109041
11312115328
11312120699
11312126314
11312131929
11312138094
11312143343
11312149324
11312155672
11312162080
11312170686
11312175203
11312181978
11312188570
11312195772
11312199617
11312206941
11312216707
11312221406
11312231904
11312238801
11312249360
11312259614
11312268708
11312278230
11312288179
11312294954
11312309724
11312314302
11312324861
11312331941
11312340058
11312347566
11312354951
11312361054
11312371491
11312377534
11312383454
11312388947
11312397553
11312402009
11312409455
11312413483
11312420869
11312430817
11312437348
11312444367
11312449311
11312456147
11312461823
11312468110
11312474580
11312479096
11312486664
11312492646
11312496918
11312503937
11312506745
11312513581
11312519623
11312525117
11312529999
11312536774
11312541596
11312548249
11312553742
11312564301
11312570343
11312581757
11312591217
11312601105
11312606232
11312610932
11312615998
11312619355
11312625214
11312631134
11312636688
11312642365
11312646637
11312651825
11312656342
11312661591
11312666779
11312672943
11312679901
11312686554
11312691132
11312699310
11312701813
11312707611
11312712677
11312718903
11312723663
11312728363
11312733673
11312738495
11312743378
11312748138
11312753571
11312759613
11312762970
11312768829
11312773041
11312779083
11312783172
11312788177
11312794647
11312801056
11312805694
11312810882
11312815460
11312820953
11312825592
11312831146
11312835846
11312843109
11312849273
11312855011
11312859649
11312867340
11312872467
11312878753
11312885650
11312893829
11312898895
11312907135
11312914032
11312920928
11312925750
11312931243
11312937774
11312944061
11312948394
11312952545
11312956939
11312962737
11312967315
11312973541
11312978362
11312984344
11312988067
11312993926
11312998382
11313004180
11313007293
11313014129
11313019866
11313024810
11313028777
11313033904
11313036468
11313044646
11313048553
11313055572
11313061614
11313066741
11313073394
11313078216
11313082793
11313088042
11313093902
11313099273
11313106597
11313111724
11313115935
11313121856
11313128081
11313133391
11313138579
11313142730
11313150847
11313156646
11313161284
11313166839
11313172759
11313178130
11313182524
11313188506
11313194182
11313199736
11313206572
11313211150
11313216399
11313222319
11313227324
11313232146
11313239165
11313244780
11313251677
11313256621
11313261504
11313265776
11313273100
11313277251
11313282561
11313290617
11313296904
11313302336
11313308196
11313312773
11313317290
11313324370
11313329497
11313335356
11313342070
11313347746
11313353178
11313358061
11313362334
11313369597
11313374480
11313380583
11313386931
11313392424
11313397917
11313403349
11313408781
11313414885
11313419707
11313424589
11313431852
11313437773
11313443449
11313448942
11313457243
11313462309
11313470549
11313476103
11313484892
11313493010
11313497709
11313503508
11313510893
11313516935
11313521269
11313527983
11313533842
11313540312
11313545072
11313552091
11313556425
11313563261
11313567777
11313574796
11313578153
11313585966
11313590849
11313596098
11313600614
11313607694
11313612516
11313618009
11313625394
11313630827
11313636625
11313641752
11313646452
11313651334
11313655973
11313661100
11313668241
11313674100
11313680387
11313684293
11313688383
11313694486
11313699979
11313705106
11313711881
11313716459
11313723478
11313728605
11313733304
11313737516
11313744108
11313747770
11313753141
11313759610
11313765409
11313768399
11313775174
11313781583
11313785550
11313791227
11313794828
11313801358
11313806852
11313812406
11313817411
11313823697
11313827176
11313833341
11313839994
11313845792
11313852384
11313858487
11313863065
11313871976
11313876309
11313881253
11313885281
11313890286
11313898953
11313904141
11313909146
11313914578
11313918668
11313924832
11313928983
11313935269
11313940457
11313946927
11313951443
11313957913
11313962247
11313966214
11313972562
11313978238
11313988492
11313992459
11313998685
11314003079
11314009183
11314013211
11314019375
11314024685
11314033536
11314041409
11314046902
11314055569
11314060879
11314069180
11314075222
11314082730
11314088772
11314093594
11314098477
11314104336
11314109341
11314114590
11314120999
11314124844
11314131314
11314134426
11314142056
11314146145
11314151150
11314157009
11314161709
11314166104
11314171963
11314175381
11314182034
11314186245
11314192349
11314198086
11314202602
11314207180
11314213833
11314218777
11314224575
11314230801
11314236599
11314242275
11314246548
11314253933
11314258083
11314263515
11314267727
11314274135
11314279018
11314286953
11314291408
11314296718
11314303127
11314306850
11314313015
11314318386
11314324428
11314331936
11314337917
11314339382
11314349270
11314352443
11314360012
11314364650
11314370632
11314375881
11314384060
11314389431
11314395534
11314400112
11314406276
11314411769
11314416042
11314422084
11314428676
11314434902
11314441127
11314445461
11314450099
11314457790
11314462489
11314467555
11314473537
11314480495
11314486415
11314490505
11314502528
11314507106
11314512599
11314517970
11314523891
11314530605
11314536769
11314542689
11314548793
11314554469
11314560573
11314565639
11314571315
11314577663
11314583888
11314589931
11314594630
11314600123
11314607814
11314612514
11314621242
11314627040
11314634486
11314641139
11314646998
11314653834
11314660060
11314664515
11314670497
11314675380
11314682399
11314686854
11314691737
11314697108
11314701503
11314707118
11314711756
11314719081
11314723902
11314728968
11314733607
11314738063
11314742823
11314748499
11314753626
11314760157
11314765772
11314768824
11314775294
11314780726
11314785670
11314789515
11314795252
11314799708
11314806178
11314810694
11314814906
11314821070
11314825709
11314830836
11314836451
11314841944
11314848780
11314854578
11314857691
11314864710
11314870753
11314874537
11314878809
11314885279
11314889918
11314895777
11314900416
11314907313
11314911707
11314917078
11314921961
11314926478
11314931727
11314935633
11314943567
11314948816
11314954126
11314958521
11314963770
11314969324
11314973902
11314979273
11314983911
11314990808
11314996057
11315001123
11315006739
11315011621
11315016870
11315021082
11315025720
11315033106
11315038477
11315043665
11315048059
11315052271
11315058374
11315063318
11315069422
11315074121
11315080896
11315086389
11315091150
11315094873
11315101770
11315106714
11315111292
11315117456
11315126001
11315129846
11315136499
11315145288
11315148950
11315156946
11315161157
11315169824
11315179773
11315189416
11315198144
11315204492
11315214197
11315222253
11315228906
11315235681
11315244714
11315255334
11315263879
11315273950
11315281091
11315287622
11315294763
11315299646
11315307519
11315313623
11315318200
11315328515
11315334191
11315339257
11315345971
11315354333
11315360742
11315365441
11315373132
11315380395
11315386132
11315391625
11315401147
11315408532
11315415978
11315422509
11315430016
11315437829
11315444482
11315452416
11315458031
11315465722
11315472558
11315481103
11315485314
11315494347
11315501549
11315509911
11315517052
11315524132
11315529625
11315537377
11315545006
11315549218
11315557702
11315564965
11315574120
11315581078
11315588890
11315596337
11315602867
11315611534
11315618431
11315628075
11315636986
11315643761
11315649681
11315659508
11315664269
11315671898
11315679344
11315686058
11315694603
11315704186
11315712852
11315719322
11315727928
11315733055
11315740623
11315748558
11315756554
11315762718
11315769188
11315780479
11315785301
11315793785
11315801719
11315809654
11315817589
11315822410
11315832969
11315840538
11315847435
11315856285
11315861107
11315869835
11315877586
11315882835
11315891014
11315897361
11315906639
11315914817
11315920738
11315928611
11315935264
11315943931
11315948631
11315959251
11315966270
11315973777
11315979392
11315988487
11315995689
11316002708
11316009361
11316017295
11316023093
11316034690
11316042380
11316049033
11316057700
11316067588
11316078147
11316085349
11316092917
11316099387
11316107932
11316112510
11316118430
11316129050
11316135520
11316142783
11316148642
11316156272
11316160544
11316168601
11316176780
11316181418
11316191001
11316198020
11316204978
11316211692
11316216696
11316221762
11316229025
11316233786
11316238852
11316246665
11316253317
11316257834
11316263205
11316268088
11316274313
11316279318
11316283408
11316288840
11316294516
11316300436
11316305136
11316310751
11316316306
11316321921
11316328146
11316332541
11316341879
11316346396
11316350363
11316358847
11316365378
11316372336
11316376242
11316384604
11316390463
11316397177
11316403830
11316410544
11316416037
11316420981
11316426840
11316432577
11316438559
11316442160
11316450460
11316455587
11316460226
11316467001
11316472616
11316477926
11316482260
11316488302
11316494406
11316500997
11316506735
11316512533
11316517416
11316523275
11316527914
11316533834
11316539877
11316547262
11316555929
11316560140
11316567404
11316574362
11316580648
11316588155
11316597799
11316608175
11316612203
11316625082
11316629659
11316637838
11316646383
11316654012
11316661947
11316666769
11316676168
11316682455
11316689290
11316697591
11316703695
11316711812
11316718343
11316723470
11316733236
11316737508
11316745870
11316757955
11316765462
11316776326
11316782735
11316789815
11316799459
11316806783
11316814229
11316822652
11316831014
11316841390
11316848348
11316855672
11316861348
11316869100
11316874898
11316881062
11316888265
11316896016
11316903218
11316909077
11316914693
11316920674
11316929036
11316935078
11316940510
11316948567
11316955403
11316963582
11316970357
11316974995
11316984028
11316990254
11316997151
11317001729
11317009358
11317016194
11317024434
11317030049
11317037312
11317042683
11317046711
11317053914
11317059956
11317067524
11317073872
11317079182
11317084065
11317089802
11317093342
11317101460
11317106282
11317111836
11317117634
11317123432
11317127644
11317134724
11317139546
11317145710
11317150654
11317156147
11317164326
11317169392
11317175800
11317180256
11317187092
11317191120
11317197102
11317203022
11317208454
11317213703
11317219746
11317222492
11317229816
11317234516
11317241230
11317247517
11317251728
11317260029
11317264912
11317271381
11317276447
11317281818
11317286640
11317293110
11317299824
11317306904
11317312519
11317319782
11317324054
11317330402
11317336383
11317342548
11317347919
11317353840
11317359211
11317366535
11317370746
11317377216
11317381671
11317386676
11317393939
11317399433
11317405475
11317410480
11317417438
11317420429
11317428241
11317437457
11317444538
11317453632
11317456500
11317466144
11317473285
11317479755
11317486102
11317489887
11317496051
11317500873
11317506488
11317511249
11317514728
11317519855
11317524554
11317527789
11317534381
11317540423
11317544452
11317548907
11317554645
11317558978
11317563251
11317568683
11317573566
11317580951
11317586200
11317591937
11317596454
11317600360
11317605182
11317610248
11317615069
11317620013
11317626849
11317631305
11317636126
11317640094
11317645831
11317649676
11317654010
11317661456
11317667254
11317672015
11317678790
11317682940
11317687823
11317693865
11317698931
11317704364
11317708758
11317715594
11317720904
11317726092
11317731585
11317735674
11317739825
11317746478
11317751544
11317757586
11317763384
11317767962
11317774493
11317778704
11317784563
11317789263
11317795489
11317799822
11317807452
11317812456
11317817828
11317821917
11317825945
11317832049
11317837481
11317843401
11317849444
11317854693
11317859942
11317865435
11317869219
11317876299
11317881487
11317888689
11317893450
11317899126
11317904375
11317909197
11317915056
11317924212
11317930498
11317936419
11317942705
11317948992
11317954241
11317959978
11317966936
11317974749
11317985552
11317994829
11318001238
11318007341
11318016191
11318021135
11318029802
11318036638
11318045793
11318054826
11318061296
11318066667
11318077470
11318083513
11318088823
11318095415
11318099199
11318108232
11318115739
11318121049
11318130510
11318135637
11318142107
11318149187
11318157060
11318164018
11318168901
11318176103
11318182939
11318190446
11318196550
11318203996
11318210527
11318215349
11318222307
11318228593
11318236711
11318241533
11318251664
11318258928
11318266252
11318273332
11318278581
11318286698
11318291215
11318297624
11318305009
11318315080
11318323747
11318330216
11318335649
11318342362
11318350968
11318357072
11318363053
11318370744
11318374833
11318384415
11318390946
11318397904
11318404557
11318409440
11318417191
11318421708
11318429093
11318437638
11318446549
11318454423
11318464615
11318469803
11318475480
11318482865
11318487443
11318495194
11318502213
11318510270
11318518326
11318524796
11318532975
11318537003
11318543839
11318553421
11318559708
11318564896
11318571854
11318583145
11318587723
11318597977
11318604691
11318611832
11318616776
11318624222
11318630325
11318636917
11318644058
11318654312
11318658951
11318666336
11318673233
11318679092
11318685501
11318692154
11318699661
11318707901
11318715225
11318723343
11318729629
11318735916
11318744095
11318749039
11318753189
11318763870
11318770889
11318778274
11318786758
11318793045
11318801285
11318805313
11318815933
11318822036
11318827591
11318836258
11318844375
11318856643
11318863540
11318871719
11318878921
11318885086
11318891372
11318897171
11318907180
11318913223
11318920364
11318926895
11318933669
11318937454
11318946060
11318951858
11318957778
11318965102
11318971694
11318979141
11318985305
11318990493
11318996169
11319002883
11319009780
11319016311
11319021926
11319032302
11319040847
11319047683
11319054397
11319061416
11319067397
11319075576
11319082229
11319087050
11319094802
11319101516
11319110305
11319116835
11319124648
11319128981
11319136977
11319144118
11319150771
11319156874
11319161818
11319173537
11319179885
11319185378
11319192336
11319197646
11319206313
11319212111
11319220229
11319226332
11319233656
11319241225
11319243361
11319252944
11319259779
11319265028
11319271132
11319278456
11319283095
11319292433
11319301100
11319305251
11319313002
11319319289
11319326613
11319333571
11319338881
11319346205
11319350600
11319358534
11319366591
11319373671
11319381178
11319388258
11319397047
11319401991
11319413344
11319418348
11319429396
11319434523
11319442396
11319450575
11319457472
11319466383
11319470838
11319481092
11319486647
11319494825
11319503675
11319509535
11319517774
11319523817
11319529127
11319536695
11319544996
11319550794
11319558851
11319568556
11319576063
11319583692
11319593824
11319601392
11319609632
11319617139
11319622266
11319628309
11319644910
11319652601
11319662794
11319670118
11319679517
11319685377
11319694105
11319704908
11319713941
11319725171
11319732373
11319740064
11319745801
11319753186
11319760022
11319764783
11319773877
11319780408
11319787732
11319795667
11319802136
11319809339
11319814832
11319818555
11319828748
11319833692
11319840589
11319847119
11319853894
11319862988
11319870374
11319876660
11319884229
11319892102
11319899670
11319907422
11319913831
11319922559
11319927258
11319935498
11319945325
11319952527
11319960827
11319969372
11319982617
11319987195
11319994214
11320004529
11320009350
11320018200
11320022900
11320034192
11320041272
11320049450
11320055188
11320059765
11320068981
11320075512
11320084606
11320091076
11320096936
11320105358
11320115002
11320121777
11320128002
