11320714732
11320719981
11320724558
11320729563
11320735240
11320740183
11320746043
11320751963
11320756968
11320762583
11320768931
11320775095
11320780772
11320786387
11320791697
11320797984
11320804209
11320808848
11320814707
11320820566
11320826121
11320833018
11320840159
11320845042
11320850901
11320857004
11320864878
11320869944
11320875498
11320882151
11320887217
11320892893
11320900522
11320907297
11320913889
11320921091
11320928049
11320935068
11320941843
11320948008
11320959116
11320968759
11320977732
11320984751
11320993662
11321000192
11321007273
11321014841
11321020395
11321025278
11321032358
11321038034
11321044443
11321050241
11321055490
11321063120
11321068491
11321074045
11321081003
11321086557
11321093454
11321099985
11321106576
11321111948
11321119455
11321122751
11321130319
11321136484
11321141122
11321150155
11321156381
11321161874
11321167734
11321173898
11321179452
11321188119
11321195016
11321200998
11321206979
11321213327
11321220407
11321227609
11321235177
11321240304
11321247079
11321252389
11321258798
11321264413
11321273446
11321280587
11321287057
11321295541
11321301766
11321307626
11321316110
11321322274
11321329843
11321336923
11321341683
11321350167
11321356393
11321362801
11321370126
11321377389
11321383065
11321389901
11321395272
11321403695
11321409615
11321415536
11321423104
11321429146
11321435067
11321440987
11321446908
11321453316
11321459847
11321465340
11321471261
11321480660
11321489144
11321498360
11321507882
11321513680
11321520882
11321528878
11321537178
11321543221
11321549630
11321556038
11321561348
11321569466
11321575264
11321581368
11321586739
11321595650
11321601998
11321606636
11321611824
11321618904
11321624092
11321631600
11321637032
11321644356
11321651863
11321658211
11321661873
11321669441
11321676338
11321682625
11321689461
11321698555
11321704536
11321711922
11321719612
11321725960
11321731880
11321740120
11321746834
11321752571
11321760933
11321768440
11321774910
11321782478
11321789680
11321795234
11321803657
11321811103
11321817756
11321825264
11321829597
11321839424
11321843757
11321853157
11321857673
11321867012
11321873115
11321881782
11321888801
11321896003
11321902107
11321910896
11321917243
11321925300
11321933296
11321940620
11321948921
11321953803
11321963874
11321968818
11321978034
11321985114
11321993659
11322002326
11322009528
11322015754
11322024421
11322030402
11322039130
11322045234
11322049933
11322061713
11322066413
11322075873
11322080512
11322090400
11322096625
11322104377
11322111029
11322120185
11322126899
11322135016
11322141242
11322147467
11322155097
11322162299
11322167914
11322176642
11322184516
11322194220
11322203742
11322212897
11322224555
11322236395
11322242194
11322251715
11322261542
11322269843
11322277045
11322286444
11322293585
11322300848
11322307440
11322317938
11322325079
11322334234
11322341009
11322349493
11322356695
11322365118
11322371893
11322378180
11322386358
11322392950
11322401129
11322408514
11322416815
11322423712
11322432806
11322437567
11322447637
11322455511
11322461187
11322470587
11322478460
11322485357
11322494329
11322500616
11322508917
11322515203
11322523321
11322531683
11322538397
11322544622
11322553228
11322562505
11322567388
11322575872
11322582708
11322591558
11322598516
11322605291
11322613592
11322621465
11322627691
11322635503
11322643865
11322652349
11322658330
11322666692
11322672918
11322679876
11322689641
11322694402
11322704412
11322711370
11322718999
11322724981
11322732244
11322741033
11322748906
11322755193
11322763555
11322771855
11322778264
11322786443
11322792302
11322800664
11322808843
11322817082
11322821965
11322831304
11322839360
11322845403
11322851750
11322860905
11322866216
11322876347
11322881108
11322890691
11322898747
11322904668
11322913274
11322919377
11322929143
11322937504
11322944584
11322953007
11322957768
11322967351
11322972111
11322984318
11322989995
11323004765
11323013066
11323020573
11323030583
11323037297
11323046269
11323055668
11323061222
11323070988
11323077885
11323085453
11323094303
11323101689
11323107914
11323115544
11323123722
11323131657
11323139164
11323146549
11323153935
11323159794
11323167301
11323172611
11323180729
11323187931
11323195621
11323203800
11323209415
11323216740
11323224857
11323232059
11323237736
11323244083
11323253177
11323259403
11323266544
11323273136
11323282413
11323289188
11323297245
11323304447
11323311161
11323319339
11323327213
11323333377
11323342411
11323348514
11323357608
11323363773
11323370731
11323379032
11323385990
11323394290
11323401309
11323408817
11323415286
11323423587
11323431827
11323440128
11323446475
11323454654
11323462833
11323470828
11323477298
11323484378
11323492068
11323499026
11323509036
11323516238
11323523685
11323529910
11323539065
11323545230
11323554507
11323560855
11323569339
11323577517
11323580264
11323591922
11323596927
11323607791
11323612613
11323620913
11323630130
11323638858
11323645694
11323654544
11323661624
11323669558
11323675845
11323683962
11323692202
11323700076
11323708437
11323715151
11323723452
11323731081
11323737490
11323744326
11323753054
11323760317
11323769289
11323774233
11323784060
11323791933
11323800051
11323807009
11323816225
11323823305
11323832339
11323841799
11323849123
11323862002
11323869387
11323876528
11323885195
11323892214
11323902834
11323909914
11323918459
11323925539
11323933901
11323939943
11323948549
11323954653
11323963869
11323969972
11323974977
11323986330
11323991274
11324000612
11324007753
11324015321
11324021547
11324031313
11324040407
11324047548
11324053835
11324062440
11324068788
11324081911
11324091005
11324100648
11324106386
11324114747
11324123109
11324130495
11324137819
11324146425
11324154725
11324160158
11324170289
11324177125
11324184816
11324191957
11324200013
11324206300
11324216859
11324223085
11324231813
11324238282
11324246827
11324255189
11324261415
11324269715
11324274781
11324285035
11324293763
11324302247
11324307191
11324315797
11324322755
11324331056
11324338197
11324346131
11324352540
11324361390
11324369752
11324376588
11324384949
11324392884
11324399110
11324404298
11324414979
11324419800
11324429932
11324436707
11324445008
11324451966
11324460389
11324466675
11324475342
11324481507
11324491150
11324497254
11324505860
11324514283
11324521241
11324527588
11324536499
11324542908
11324550476
11324560608
11324568482
11324574890
11324581909
11324590027
11324598999
11324607117
11324613770
11324624939
11324632568
11324639832
11324646240
11324654541
11324662903
11324670837
11324679626
11324687256
11324695618
11324702698
11324708313
11324717346
11324725647
11324732666
11324741150
11324749328
11324755554
11324764526
11324770996
11324778869
11324785827
11324792907
11324800720
11324809692
11324816650
11324822692
11324831604
11324837829
11324846984
11324853271
11324861938
11324870056
11324876037
11324886474
11324889404
11324900146
11324908508
11324914855
11324921813
11324930785
11324937988
11324946227
11324953124
11324961730
11324968871
11324975585
11324984008
11324992004
11324998412
11325003356
11325014342
11325019225
11325029723
11325034606
11325044433
11325051452
11325058837
11325068114
11325077025
11325083983
11325090453
11325099608
11325106383
11325115294
11325122008
11325130309
11325137450
11325145690
11325151549
11325161498
11325166258
11325176207
11325181090
11325190489
11325196837
11325207579
11325214537
11325222960
11325229186
11325236144
11325244444
11325250975
11325259276
11325267454
11325273558
11325280638
11325290465
11325295470
11325305174
11325312315
11325320006
11325329161
11325337950
11325344969
11325352720
11325358946
11325367979
11325376219
11325382872
11325391050
11325397764
11325406004
11325414549
11325421629
11325429197
11325437071
11325446836
11325455320
11325462828
11325471433
11325484983
11325490904
11325499143
11325506956
11325515318
11325520994
11325529356
11325535154
11325542966
11325551206
11325559019
11325564756
11325571958
11325580137
11325584653
11325593931
11325601011
11325609312
11325615659
11325624143
11325630613
11325639036
11325646238
11325654050
11325659726
11325666990
11325674680
11325681211
11325688962
11325695676
11325703794
11325711362
11325719052
11325725461
11325733579
11325738462
11325749265
11325754270
11325762815
11325769834
11325778378
11325784787
11325793637
11325799924
11325808774
11325817136
11325823972
11325832272
11325839291
11325847714
11325852536
11325863217
11325868222
11325878049
11325884885
11325893063
11325900143
11325909482
11325916684
11325924679
11325934140
11325941464
11325947751
11325956845
11325963315
11325971737
11325979916
11325988522
11325995053
11326003903
11326010250
11326019223
11326025631
11326034176
11326042599
11326050534
11326056698
11326063656
11326071957
11326078976
11326086727
11326095883
11326103207
11326109493
11326117123
11326125423
11326133968
11326140255
11326148373
11326156673
11326161678
11326171078
11326176083
11326186397
11326193294
11326201473
11326208492
11326217281
11326224361
11326234920
11326241939
11326250789
11326260311
11326267391
11326276424
11326281856
11326292476
11326301754
11326310115
11326314571
11326324337
11326329036
11326338192
11326344539
11326352169
11326358577
11326367671
11326374019
11326381343
11326389705
11326396358
11326401973
11326409786
11326418025
11326426448
11326433101
11326440669
11326447017
11326455257
11326463496
11326471065
11326479365
11326487483
11326493159
11326501948
11326507564
11326516353
11326523067
11326528132
11326538203
11326546077
11326554255
11326562373
11326570613
11326575496
11326585566
11326593074
11326600337
11326607600
11326618281
11326625727
11326633906
11326642329
11326649165
11326654719
11326661006
11326669551
11326676631
11326685847
11326691035
11326700556
11326706904
11326713313
11326721552
11326726923
11326734675
11326743525
11326749934
11326758112
11326763972
11326772211
11326778010
11326782343
11326793085
11326798517
11326808893
11326816584
11326824396
11326828974
11326837519
11326843683
11326851862
11326858698
11326867548
11326874689
11326882868
11326889215
11326897516
11326904047
11326911432
11326917170
11326926813
11326933039
11326940912
11326948664
11326955622
11326963312
11326969171
11326976923
11326981745
11326992059
11327001398
11327012018
11327019647
11327028986
11327038568
11327047540
11327056146
11327063898
11327072259
11327075128
11327086297
11327094293
11327100152
11327109308
11327116876
11327126031
11327133050
11327142633
11327149530
11327157586
11327163385
11327171624
11327179681
11327186822
11327192682
11327200799
11327208367
11327215203
11327222772
11327230950
11327239129
11327247186
11327254937
11327262200
11327267938
11327275750
11327283257
11327287774
11327297601
11327301995
11327312249
11327317315
11327326165
11327332452
11327339593
11327345940
11327354424
11327360894
11327369500
11327375787
11327383294
11327389092
11327397698
11327403557
11327412652
11327420037
11327426934
11327434624
11327440484
11327447991
11327454766
11327462395
11327467156
11327477715
11327482598
11327493157
11327498223
11327506890
11327515740
11327523125
11327532341
11327538750
11327547661
11327555413
11327561638
11327569206
11327577690
11327585747
11327592095
11327600639
11327608940
11327611809
11327622734
11327627617
11327638115
11327645134
11327653130
11327660454
11327668510
11327674797
11327683708
11327689934
11327699638
11327706047
11327711113
11327721855
11327726860
11327737480
11327742241
11327751457
11327758476
11327766899
11327773857
11327781547
11327791862
11327799553
11327811882
11327818290
11327825737
11327836051
11327844169
11327851005
11327860710
11327868217
11327877799
11327885124
11327891288
11327899406
11327907707
11327914115
11327922355
11327930106
11327937553
11327943229
11327950858
11327958427
11327964103
11327970512
11327979545
11327984305
11327994010
11328000297
11328007133
11328015372
11328023124
11328029593
11328037040
11328043448
11328052054
11328058280
11328065909
11328071830
11328079398
11328087088
11328093863
11328101432
11328104117
11328115287
11328122184
11328130057
11328135672
11328143912
11328152030
11328158682
11328165824
11328173636
11328183035
11328190604
11328197745
11328204459
11328212698
11328218924
11328227408
11328237051
11328243338
11328248099
11328258536
11328264090
11328274039
11328281058
11328289969
11328296805
11328304068
11328310415
11328320608
11328327139
11328335440
11328342032
11328350638
11328358938
11328366140
11328374319
11328382376
11328388662
11328395681
11328404043
11328411184
11328419485
11328429251
11328436819
11328443960
11328451834
11328458059
11328466055
11328474539
11328482534
11328488760
11328493704
11328505117
11328513784
11328520010
11328527029
11328536245
11328543386
11328550100
11328559560
11328567068
11328573232
11328581350
11328590932
11328594106
11328607046
11328615224
11328622121
11328630910
11328640188
11328645864
11328656362
11328661245
11328671071
11328678640
11328684865
11328691274
11328700429
11328706777
11328716542
11328723928
11328729665
11328736013
11328745229
11328751637
11328762807
11328770497
11328779958
11328788442
11328796193
11328798818
11328809010
11328813527
11328824452
11328832448
11328838246
11328842763
11328852834
11328859853
11328867238
11328873646
11328881703
11328888173
11328895253
11328901478
11328909230
11328917531
11328923878
11328929554
11328938466
11328944569
11328954640
11328960438
11328968983
11328974659
11328981617
11328989186
11328997120
11329005055
11329009510
11329018666
11329026478
11329033558
11329038136
11329047291
11329055348
11329065357
11329073231
11329078968
11329087208
11329094959
11329100697
11329108692
11329117664
11329125294
11329131458
11329139027
11329143604
11329152943
11329160999
11329166614
11329173145
11329181568
11329188526
11329198047
11329205005
11329212940
11329220142
11329227955
11329234119
11329242359
11329250660
11329257251
11329265369
11329269764
11329280017
11329284839
11329294910
11329302051
11329309375
11329318531
11329325733
11329332141
11329340686
11329347034
11329355396
11329364185
11329373157
11329382190
11329391223
11329398364
11329407581
11329413928
11329422534
11329430957
11329442615
11329449206
11329456836
11329463122
11329471179
11329477466
11329485889
11329493213
11329501697
11329507983
11329515857
11329521533
11329529468
11329535388
11329543445
11329550952
11329557727
11329565356
11329573108
11329578723
11329583117
11329594043
11329598681
11329607775
11329612231
11329622668
11329630236
11329635974
11329642443
11329650805
11329657153
11329664294
11329669909
11329679186
11329685656
11329693591
11329699816
11329708300
11329716662
11329719408
11329731371
11329739001
11329745287
11329752245
11329761523
11329769640
11329776476
11329783495
11329791064
11329800219
11329809801
11329816881
11329825182
11329831408
11329840014
11329846666
11329854052
11329862474
11329869555
11329877977
11329882799
11329892870
11329900927
11329907823
11329914781
11329922655
11329929003
11329937792
11329946825
11329953539
11329962023
11329968370
11329976671
11329984300
11329990587
11329998277
11330006578
11330013658
11330021959
11330029039
11330037157
11330043809
11330052171
11330060716
11330069261
11330077501
11330086107
11330092454
11330099290
11330107774
11330116319
11330122606
11330127549
11330138292
11330145860
11330155504
11330163072
11330172227
11330179551
11330188768
11330196397
11330208726
11330214219
11330225816
11330234300
11330241319
11330250840
11330258653
11330265183
11330274278
11330280442
11330289842
11330296800
11330305589
11330311936
11330320786
11330327256
11330335313
11330343552
11330351670
11330357957
11330365098
11330374375
11330381516
11330388840
11330395493
11330404770
11330413743
11330419358
11330428086
11330436448
11330442612
11330451645
11330457810
11330468308
11330474594
11330483139
11330489365
11330496506
11330504685
11330511826
11330521591
11330528794
11330536850
11330543930
11330552292
11330558762
11330566513
11330574936
11330582260
11330588730
11330598373
11330604904
11330611984
11330621567
11330626450
11330636215
11330643356
11330651657
11330657883
11330667038
11330673324
11330682175
11330688400
11330697006
11330703293
11330708175
11330718063
11330725143
11330734604
11330741501
11330748886
11330755844
11330762558
11330770980
11330777877
11330786300
11330793502
11330801925
11330806869
11330817794
11330822677
11330832076
11330839096
11330847030
11330853988
11330862777
11330869064
11330876815
11330885238
11330893722
11330900008
11330905013
11330915389
11330920394
11330931564
11330939925
11330945785
11330954391
11330960616
11330969771
11330976363
11330981917
11330997054
11331005660
11331014937
11331022933
11331029647
11331038253
11331047835
11331054183
11331065291
11331073165
11331080001
11331087264
11331096053
11331103011
11331110457
11331117232
11331126082
11331133895
11331142134
11331147750
11331155501
11331163008
11331169661
11331177474
11331181929
11331192183
11331196822
11331206526
11331211226
11331221663
11331226546
11331235396
11331245406
11331252608
11331258955
11331266279
11331272749
11331281233
11331287703
11331294295
11331302778
11331308943
11331317183
11331324324
11331330793
11331338118
11331346357
11331353071
11331361433
11331369917
11331378462
11331385420
11331393660
11331398542
11331408918
11331413801
11331421980
11331431806
11331440168
11331448591
11331455976
11331462080
11331470442
11331477888
11331484419
11331492048
11331496870
11331507978
11331514021
11331521650
11331526228
11331534772
11331541059
11331548444
11331555219
11331566205
11331573224
11331578840
11331587324
11331594404
11331600263
11331606428
11331614301
11331622297
11331630292
11331638471
11331646711
11331653730
11331661969
11331671308
11331678327
11331687360
11331694501
11331702863
11331710126
11331720319
11331727643
11331736615
11331744184
11331753949
11331760602
11331768170
11331775861
11331785321
11331792950
11331801007
11331808331
11331822736
11331827435
11331838299
11331843854
11331854901
11331862958
11331870709
11331877911
11331886029
11331892193
11331900372
11331909527
11331916546
11331924969
11331932049
11331940411
11331945416
11331954815
11331962811
11331969281
11331976178
11331986004
11331993145
11332000897
11332007122
11332017071
11332022686
11332030682
11332038433
11332040997
11332052960
11332060711
11332069073
11332076336
11332086346
11332095074
11332101421
11332110149
11332117962
11332125591
11332131451
11332139690
11332147198
11332149761
11332160808
11332166180
11332175152
11332182781
11332188396
11332195293
11332203289
11332209575
11332218731
11332223247
11332232219
11332238811
11332246380
11332255535
11332263408
11332272319
11332280071
11332287029
11332294475
11332300762
11332309856
11332316143
11332324565
11332332988
11332337871
11332348674
11332353435
11332363567
11332368572
11332378337
11332385295
11332395854
11332400798
11332410503
11332417522
11332425944
11332432292
11332440288
11332446635
11332456157
11332464458
11332473002
11332479106
11332484233
11332494975
11332503276
11332509746
11332516826
11332525248
11332532145
11332539897
11332549052
11332556804
11332562968
11332571513
11332577983
11332589518
11332596415
11332605265
11332612101
11332621012
11332630290
11332637126
11332646586
11332652445
11332667277
11332674540
11332680766
11332689677
11332695597
11332703593
11332709452
11332718851
11332726359
11332733012
11332740702
11332746073
11332754069
11332761881
11332767618
11332774332
11332783610
11332789896
11332798502
11332805643
11332811625
11332818155
11332826822
11332833719
11332841288
11332847574
11332857035
11332862955
11332871744
11332877481
11332885782
11332893595
11332899942
11332907572
11332915628
11332921488
11332929300
11332936868
11332941263
11332950601
11332958170
11332964151
11332970560
11332979959
11332987161
11332993753
11333000162
11333007608
11333014139
11333024210
11333030740
11333037515
11333043191
11333052408
11333058694
11333067239
11333073465
11333081582
11333090005
11333098306
11333104593
11333113260
11333119668
11333126565
11333133889
11333143106
11333150857
11333157815
11333165139
11333171609
11333180459
11333188699
11333191629
11333202981
11333208352
11333218850
11333227639
11333233926
11333240945
11333249185
11333256326
11333264932
11333271157
11333280496
11333286782
11333295693
11333302102
11333311562
11333317971
11333326455
11333332864
11333343239
11333350991
11333359414
11333365822
11333374306
11333383889
11333391945
11333398781
11333404030
11333417702
11333423012
11333436989
11333446267
11333453225
11333461220
11333469521
11333478127
11333484230
11333491921
11333501381
11333507607
11333515358
11333520851
11333528725
11333537209
11333543495
11333550270
11333556252
11333563210
11333568459
11333576820
11333582069
11333592506
11333598671
11333605690
11333610817
11333618385
11333623817
11333631935
11333637306
11333645180
11333652748
11333659218
11333666237
11333671364
11333680458
11333685097
11333693763
11333701271
11333711830
11333720253
11333726173
11333732643
11333741798
11333748207
11333754249
11333762916
11333769996
11333778785
11333784767
11333792518
11333798805
11333806495
11333812232
11333819862
11333828468
11333836524
11333843788
11333849586
11333854469
11333864478
11333869056
11333876807
11333885413
11333891822
11333900672
11333907813
11333914039
11333921485
11333927161
11333934241
11333941993
11333949378
11333957618
11333965125
11333972754
11333978736
11333986365
11333991126
11333998572
11334004920
11334015235
11334022071
11334028052
11334036231
11334042762
11334048499
11334057105
11334062720
11334071387
11334079505
11334087378
11334095557
11334103797
11334110938
11334118628
11334125098
11334135413
11334147559
11334154517
11334162146
11334170630
11334177954
11334186926
11334194617
11334203467
11334212866
11334220923
11334227820
11334236426
11334242651
11334251501
11334257849
11334268164
11334274695
11334281897
11334290991
11334297644
11334306006
11334310705
11334321203
11334326086
11334337561
11334344458
11334352880
11334359899
11334367285
11334373510
11334381506
11334389807
11334397314
11334405554
11334412512
11334420812
11334425634
11334434301
11334441442
11334449621
11334456701
11334465124
11334474157
11334480322
11334489172
11334495519
11334503759
11334511083
11334517553
11334526525
11334532751
11334542089
11334548315
11334555517
11334563817
11334570714
11334578893
11334585180
11334594457
11334600560
11334608861
11334617284
11334623876
11334632299
11334637120
11334647069
11334652257
11334662145
11334669103
11334678380
11334685521
11334693517
11334699681
11334708715
11334715184
11334725438
11334731847
11334740880
11334747044
11334752843
11334762364
11334770238
11334776646
11334783849
11334794408
11334799290
11334809178
11334816197
11334824376
11334830540
11334839085
11334845372
11334855382
11334861668
11334869969
11334876439
11334885167
11334891514
11334898472
11334908360
11334913426
11334924351
11334932469
11334939244
11334946324
11334954930
11334961644
11334970494
11334977330
11334986668
11334996433
11335004307
11335013340
11335021031
11335030918
11335037632
11335046543
11335054539
11335062840
11335070774
11335077366
11335085056
11335092930
11335099766
11335109470
11335116672
11335124424
11335130649
11335139072
11335147373
11335154514
11335160740
11335169346
11335177830
11335183079
11335192478
11335199436
11335208896
11335216037
11335223056
11335229526
11335237461
11335245823
11335255222
11335261325
11335270603
11335277256
11335282138
11335292575
11335297641
11335308566
11335313693
11335324008
11335331027
11335338962
11335345187
11335353122
11335362338
11335368625
11335377048
11335384311
11335392673
11335401645
11335410007
11335416476
11335424899
11335431369
11335439792
11335444858
11335453342
11335460483
11335468173
11335477206
11335483432
11335491671
11335498385
11335506686
11335516085
11335522250
11335530856
11335537570
11335545748
11335553988
11335558871
11335567660
11335574801
11335583651
11335590365
11335600131
11335607272
11335613619
11335621859
11335629916
11335636324
11335644625
11335652987
11335655795
11335667147
11335672030
11335681734
11335688692
11335697054
11335703341
11335712679
11335719027
11335729098
11335735628
11335743868
11335750216
11335758150
11335766573
11335773348
11335784273
11335793429
11335800081
11335807894
11335816927
11335827608
11335836824
11335844698
11335854525
11335863436
11335871004
11335877046
11335884798
11335889376
11335897676
11335904756
11335916170
11335925569
11335934053
11335942110
11335948396
11335954317
11335964754
11335973177
11335979524
11335987398
11335995699
11336000581
11336011140
11336018098
11336024812
11336031038
11336041292
11336047700
11336054902
11336063447
11336071870
11336078401
11336083223
11336094758
11336103547
11336111970
11336117952
11336126313
11336134248
11336142244
11336149568
11336159700
11336171601
11336178620
11336183991
11336194612
11336199372
11336207917
11336214509
11336222749
11336229707
11336240022
11336245088
11336253877
11336260224
11336268342
11336274812
11336282441
11336288117
11336297883
11336304780
11336312592
11336318268
11336325165
11336332734
11336340058
11336345856
11336350190
11336362153
11336367219
11336377350
11336382050
11336392731
11336397675
11336408173
11336416291
11336423676
11336431855
11336440400
11336446625
11336455048
11336462250
11336468170
11336476959
11336485871
11336492584
11336498871
11336506134
11336514374
11336520172
11336527741
11336533173
11336543549
11336551972
11336557953
11336567841
11336577972
11336584808
11336592804
11336604095
11336613434
11336622101
11336631744
11336641327
11336649444
11336656524
11336666229
11336674591
11336681549
11336687957
11336692901
11336704986
11336709808
11336719207
11336726287
11336734527
11336741607
11336751434
11336758575
11336765899
11336772186
11336780181
11336788665
11336798431
11336804595
11336813812
11336820159
11336825042
11336835479
11336840606
11336849517
11336856475
11336865875
11336872405
11336881561
11336887969
11336897247
11336903594
11336912627
11336919036
11336924285
11336938445
11336946258
11336952666
11336960906
11336967437
11336976531
11336983001
11336990325
11337000335
11337007171
11337014922
11337022063
11337031279
11337038359
11337045195
11337054229
11337061675
11337068694
11337078520
11337084746
11337093230
11337101592
11337108550
11337114958
11337120146
11337131194
11337136137
11337147185
11337152007
11337162077
11337169035
11337176482
11337182646
11337191923
11337198149
11337206938
11337215239
11337222563
11337228850
11337233732
11337244963
11337250029
11337261137
11337266020
11337275419
11337282377
11337290556
11337299528
11337307280
11337313566
11337322172
11337328276
11337335905
11337344267
11337352934
11337358976
11337363737
11337374174
11337387419
11337394804
11337404630
11337414091
11337420744
11337427458
11337435941
11337444914
11337460661
11337467252
11337476469
11337485868
11337492460
11337501005
11337509367
11337518583
11337525541
11337530302
11337541898
11337547819
11337556547
11337561429
11337571500
11337578763
11337588102
11337595060
11337602872
11337609159
11337618253
11337624540
11337631986
11337640165
11337647245
11337655667
11337660611
11337671048
11337678189
11337685880
11337692716
11337701444
11337708646
11337717923
11337724881
11337731290
11337739591
11337748013
11337754239
11337760220
11337768216
11337778348
11337784634
11337789395
11337801480
11337806546
11337815152
11337822171
11337831509
11337838589
11337848172
11337854519
11337863553
11337869961
11337878079
11337884549
11337893582
11337899868
11337909451
11337915799
11337924466
11337930813
11337937893
11337946621
11337953701
11337961575
11337967861
11337976773
11337985134
11337993191
11337999478
11338008450
11338014797
11338022732
11338029141
11338036404
11338046597
11338051479
11338061306
11338068447
11338076992
11338084194
11338090725
11338099087
11338115810
11338126430
11338134853
11338145717
11338155605
11338164211
11338172939
11338179226
11338187221
11338193752
11338199978
11338207668
11338213894
11338221096
11338229213
11338236721
11338244411
11338251186
11338259120
11338265834
11338274013
11338280116
11338287685
11338295131
11338301357
11338308376
11338315944
11338321498
11338328212
11338335353
11338342433
11338349513
11338356349
11338363368
11338368983
11338376186
11338383022
11338390102
11338398036
11338404872
11338410670
11338417567
11338425258
11338431300
11338438807
11338446742
11338451564
11338460963
11338468226
11338475734
11338482936
11338489100
11338495509
11338503688
11338510035
11338520167
11338526637
11338533107
11338541346
11338548548
11338554896
11338561976
11338567713
11338576380
11338584010
11338590418
11338597926
11338606227
11338611903
11338620204
11338626063
11338633875
11338641444
11338648768
11338654383
11338660792
11338669276
11338675562
11338682215
11338690577
11338697596
11338704005
11338710902
11338716761
11338725489
11338731165
11338739832
11338748133
11338754664
11338763147
11338769678
11338778162
11338786463
11338792933
11338799830
11338808252
11338815271
11338825891
11338834619
11338840479
11338848841
11338855127
11338862024
11338871973
11338877100
11338886560
11338891748
11338901575
11338909143
11338917078
11338922327
11338931482
11338938501
11338951318
11338961938
11338968286
11338979150
11338985864
11338994592
11339001062
11339010950
11339021203
11339028833
11339035425
11339044275
11339050622
11339058069
11339064355
11339072778
11339081506
11339088525
11339094201
11339102624
11339108484
11339117028
11339123193
11339133264
11339141564
11339148217
11339154016
11339161767
11339169457
11339175561
11339183312
11339191186
11339198632
11339206017
11339211816
11339219506
11339227013
11339231591
11339241113
11339249291
11339255029
11339261315
11339269921
11339276452
11339284997
11339292382
11339298669
11339305749
11339313927
11339320153
11339328942
11339335168
11339343773
11339352074
11339358971
11339367272
11339372399
11339383690
11339388756
11339398705
11339405663
11339412682
11339421593
11339428063
11339437157
11339443199
11339451378
11339459862
11339466332
11339473229
11339481590
11339489769
11339496117
11339503136
11339513023
11339520775
11339528282
11339535179
11339542687
11339548912
11339557945
11339564171
11339574120
11339582420
11339588829
11339597130
11339603233
11339612327
11339617210
11339627159
11339634300
11339642540
11339649803
11339657982
11339664940
11339672264
11339680565
11339687584
11339694236
11339705040
11339712059
11339719566
11339726280
11339734520
11339742576
11339750083
11339759666
11339771324
11339776023
11339788108
11339793784
11339804649
11339810020
11339820640
11339827781
11339837302
11339844444
11339852927
11339859946
11339867820
11339874961
11339884360
11339890647
11339899436
11339907676
11339913901
11339922263
11339927390
11339937156
11339944968
11339952170
11339959189
11339969626
11339976706
11339984336
11339991782
11339999472
11340005820
11340013816
11340022239
11340029074
11340037375
11340042197
11340053183
11340058432
11340067893
11340075339
11340083212
11340092246
11340100913
11340107993
11340115256
11340121726
11340130576
11340136984
11340146384
11340152792
11340157858
11340169882
11340174704
11340184408
11340191366
11340198996
11340205893
11340214743
11340221091
11340230124
11340239096
11340244772
11340253256
11340260031
11340268393
11340276693
11340283163
11340292318
11340301413
11340310629
11340317099
11340325216
11340333639
11340338461
11340347677
11340354696
11340363119
11340370077
11340379782
11340386923
11340395284
11340401693
11340410238
11340416586
11340425375
11340433798
11340440206
11340448507
11340453390
11340463277
11340470296
11340477926
11340484945
11340494710
11340501790
11340508443
11340517354
11340523824
11340532796
11340540182
11340546712
11340556295
11340564534
11340573812
11340583089
11340591329
11340598409
11340607991
11340614400
11340629659
11340637654
11340646871
11340655416
11340661763
11340669576
11340678731
11340684529
11340696248
11340704854
11340713277
11340719319
11340728230
11340733174
11340743245
11340750447
11340759541
11340766499
11340774251
11340780598
11340789021
11340795247
11340804646
11340810994
11340819539
11340828084
11340834492
11340842976
11340847676
11340858418
11340863301
11340874165
11340879109
11340891011
11340896260
11340905598
11340912007
11340919819
11340926167
11340932514
11340940754
11340949116
11340955036
11340961567
11340969258
11340977497
11340983296
11340990620
11340998188
11341005024
11341013142
11341020832
11341028584
11341032978
11341044453
11341051105
11341058735
11341066364
11341074299
11341082172
11341090473
11341098225
11341106647
11341115497
11341122822
11341132343
11341140217
11341147053
11341154133
11341161640
11341168171
11341177082
11341181904
11341192951
11341197712
11341206684
11341213520
11341221576
11341228473
11341236835
11341243976
11341254718
11341262470
11341270648
11341275531
11341284931
11341293048
11341299213
11341306110
11341316791
11341321674
11341331744
11341336566
11341346210
11341352008
11341362628
11341369891
11341382281
11341391437
11341399371
11341408954
11341416278
11341425067
11341432635
11341440021
11341449969
11341456927
11341463641
11341472735
11341479205
11341486407
11341496539
11341502764
11341510455
11341518817
11341526019
11341534808
11341539996
11341550250
11341555071
11341565142
11341572405
11341580767
11341587542
11341596331
11341602618
11341609637
11341618060
11341625262
11341633563
11341641924
11341650164
11341657244
11341663592
11341670733
11341679156
11341686358
11341695330
11341702349
11341711138
11341718218
11341724444
11341732500
11341740557
11341746782
11341755144
11341761553
11341768694
11341778582
11341786516
11341793230
11341800432
11341808123
11341817156
11341823564
11341829912
11341839739
11341849016
11341857073
11341863237
11341871721
11341880083
11341887590
11341893938
11341899126
11341910906
11341915666
11341926408
11341931535
11341940202
11341947221
11341954851
11341961320
11341970537
11341979448
11341986711
11341993181
11342001481
11342009721
11342012590
11342024003
11342028886
11342039750
11342047807
11342054826
11342061723
11342070756
11342077592
11342085099
11342091325
11342101518
11342107560
11342117814
11342124345
11342133012
11342139237
11342145097
11342154862
11342159867
11342172929
11342181779
11342190751
11342197953
11342206986
11342210038
11342223649
11342228837
11342240006
11342247453
11342256364
11342263566
11342271867
11342280839
11342287003
11342293473
11342303422
11342312150
11342319596
11342325821
11342335221
11342341569
11342349991
11342356400
11342364945
11342375321
11342378312
11342390091
11342394913
11342403824
11342410782
11342419693
11342426651
11342435562
11342442337
11342448685
11342456986
11342462540
11342470169
11342477005
11342484635
11342492996
11342501053
11342508316
11342516678
11342525284
11342533646
11342541397
11342550430
11342557754
11342563858
11342573440
11342579788
11342585709
11342594986
11342600052
11342610489
11342615310
11342626053
11342633072
11342640457
11342646988
11342655227
11342664261
11342670547
11342679031
11342685989
11342694290
11342701736
11342709915
11342716018
11342724380
11342732376
11342738784
11342745803
11342754775
11342763748
11342771743
11342781326
11342789626
11342795913
11342804824
11342813125
11342820571
11342829055
11342837051
11342845290
11342851699
11342874770
11342883926
11342890884
11342900161
11342906264
11342915664
11342923171
11342929824
11342938796
11342945266
11342954604
11342961013
11342970168
11342976394
11342984267
11342991957
11342999709
11343008437
11343016188
11343029189
11343034133
11343045302
11343050551
11343063063
11343068984
11343079604
11343086928
11343095595
11343102675
11343110915
11343118056
11343126357
11343135573
11343143080
11343151747
11343160353
11343166884
11343176039
11343182814
11343191908
11343198256
11343205336
11343213331
11343222487
11343231215
11343238295
11343246046
11343252272
11343261122
11343269850
11343276320
11343284681
11343293653
11343301893
11343307936
11343316481
11343321424
11343331678
11343338880
11343346449
11343353407
11343361891
11343370802
11343376722
11343385084
11343391798
11343400099
11343408033
11343414503
11343423780
11343432142
11343437025
11343445936
11343453016
11343461378
11343468275
11343477125
11343486463
11343492933
11343502088
11343509046
11343515272
11343524427
11343530774
11343538770
11343547315
11343553357
11343562024
11343570020
11343576551
11343583631
11343593274
11343600293
11343607740
11343613965
11343623609
11343630017
11343637769
11343646375
11343653699
11343660108
11343669019
11343675549
11343682813
11343692212
11343699170
11343707105
11343714307
11343722791
11343729077
11343737073
11343745557
11343752148
11343760571
11343769116
11343775403
11343784619
11343790967
11343795727
11343805676
11343813366
11343822949
11343836133
11343845898
11343854870
11343861950
11343873120
11343882092
11343893078
11343901074
11343911206
11343919628
11343926831
11343934582
11343943737
11343952343
11343959240
11343966564
11343975720
11343983044
11343989330
11343998058
11344004345
11344013989
11344022350
11344028698
11344037121
11344042065
11344052013
11344060009
11344066540
11344073437
11344083141
11344090038
11344097545
11344103832
11344112011
11344120495
11344127025
11344135387
11344141857
11344151439
11344160289
11344166698
11344175304
11344181835
11344188793
11344196971
11344206310
11344213634
11344220836
11344230419
11344237377
11344245311
11344251659
11344259838
11344268016
11344274242
11344282543
11344290538
11344297069
11344304576
11344312206
11344319225
11344327037
11344336131
11344343578
11344349742
11344358775
11344365123
11344374095
11344380809
11344389293
11344395579
11344402720
11344412730
11344420726
11344428904
11344435740
11344443797
11344450816
11344459300
11344465831
11344475047
11344483348
11344489329
11344497691
11344505931
11344512278
11344520762
11344527110
11344534434
11344543345
11344550242
11344557688
11344566905
11344573374
11344582591
11344589304
11344597605
11344604868
11344613230
11344621897
11344628245
11344636240
11344644541
11344649790
11344659983
11344667795
11344679514
11344686594
11344695872
11344701731
11344711191
11344718821
11344729380
11344736948
11344744455
11344750986
11344759653
11344767954
11344774424
11344783335
11344792490
11344798777
11344807993
11344819040
11344828073
11344838327
11344846262
11344852487
11344860788
11344869089
11344875314
11344883676
11344891733
11344898081
11344907358
11344913767
11344920663
11344930063
11344937326
11344945505
11344952585
11344961496
11344967721
11344976938
11344983285
11344991586
11344999826
11345007516
11345015817
11345022836
11345031076
11345039316
11345045663
11345053598
11345060495
11345067636
11345076303
11345082589
11345092050
11345098580
11345107064
11345113412
11345121835
11345130319
11345136788
11345145455
11345150765
11345161752
11345167428
11345176583
11345183602
11345193368
11345200936
11345210275
11345217233
11345226144
11345233468
11345241402
11345247628
11345256722
11345263253
11345273080
11345279427
11345284249
11345294686
11345299691
11345310006
11345317086
11345324410
11345333687
11345340096
11345349190
11345354989
11345363411
11345370919
11345379341
11345386910
11345393319
11345401985
11345410469
11345419441
11345425728
11345430672
11345439766
11345447212
11345455696
11345465523
11345472725
11345479622
11345493599
11345500984
11345511055
11345523689
11345533577
11345544807
11345553352
11345558540
11345568733
11345576851
11345585274
11345590401
11345600227
11345609138
11345617622
11345626167
11345634468
11345641487
11345650337
11345653206
11345665657
11345670723
11345681099
11345689155
11345695625
11345702766
11345711860
11345718940
11345727424
11345734565
11345742378
11345748542
11345756599
11345765144
11345771308
11345779670
11345784614
11345794868
11345803352
11345810127
11345817207
11345825141
11345831428
11345839973
11345848945
11345856391
11345862556
11345870063
11345878303
11345884223
11345893683
11345898566
11345909003
11345913947
11345924262
11345931220
11345939521
11345946662
11345953925
11345960151
11345968756
11345975287
11345985663
11345991950
11346000617
11346007025
11346015387
11346021796
11346028754
11346038214
11346045172
11346052619
11346058844
11346067328
11346076483
11346082465
11346091010
11346097540
11346105841
11346111029
11346121466
11346129462
11346135809
11346143439
11346151251
11346160528
11346166266
11346175299
11346182684
11346188788
11346197333
11346205694
11346212530
11346219061
11346226873
11346235846
11346240973
11346252142
11346257208
11346267096
11346274237
11346281988
11346288519
11346297613
11346304815
11346314398
11346320867
11346333868
11346341497
11346350591
11346357794
11346367437
11346374517
11346384405
11346390752
11346399786
11346406194
11346414434
11346422857
11346427923
11346438177
11346445257
11346453680
11346460638
11346468511
11346475225
11346483220
11346491765
11346497747
11346506170
11346512029
11346520940
11346529424
11346535955
11346542913
11346552373
11346559575
11346566045
11346575017
11346581426
11346590459
11346597905
11346604070
11346612798
11346619329
11346627446
11346635686
11346640813
11346650823
11346658757
11346667302
11346672246
11346682195
11346689153
11346695866
11346704839
11346712285
11346718510
11346728032
11346734257
11346743474
11346749882
11346758488
11346764836
11346774296
11346786015
11346791203
11346801457
11346806462
11346816350
11346823430
11346831730
11346838688
11346846806
11346853215
11346861454
11346869816
11346876835
11346885197
11346891728
11346900517
11346909916
11346918339
11346921086
11346932560
11346940617
11346947148
11346954106
11346962467
11346968998
11346977726
11346983830
11346992436
11347000919
11347007511
11347015934
11347021732
11347030277
11347038944
11347045231
11347052311
11347060184
11347069279
11347077152
11347084476
11347092350
11347098575
11347106815
11347115360
11347122074
11347131290
11347138492
11347147220
11347153263
11347163944
11347168949
11347185367
11347193912
11347201358
11347210636
11347216922
11347224918
11347231326
11347240848
11347247257
11347257511
11347263980
11347272647
11347279056
11347285953
11347294132
11347303226
11347312015
11347318912
11347327212
11347333682
11347342349
11347348636
11347356631
11347365115
11347371707
11347380130
11347388797
11347395205
11347403628
11347409793
11347416995
11347427310
11347434390
11347444095
11347450991
11347458438
11347464846
11347472842
11347481326
11347487918
11347496340
11347504519
11347510684
11347519534
11347525942
11347532900
11347540774
11347547732
11347556094
11347562563
11347571780
11347578005
11347587161
11347595583
11347602663
11347611025
11347617068
11347625491
11347630495
11347641360
11347646303
11347656679
11347661562
11347671755
11347678774
11347686770
11347693056
11347700991
11347709902
11347718081
11347724611
11347733156
11347739443
11347747377
11347755922
11347761110
11347772280
11347777407
11347787477
11347795473
11347801576
11347806398
11347816896
11347826113
11347834535
11347840273
11347848512
11347853700
11347864198
11347872682
11347878725
11347884096
11347896364
11347904237
11347912477
11347918275
11347926210
11347932497
11347942323
11347947755
11347961061
11347969362
11347976747
11347986268
11347993410
11348002138
11348011537
11348017335
11348028322
11348035341
11348042970
11348049989
11348057801
11348066896
11348074952
11348081300
11348090577
11348097047
11348106080
11348114381
11348121217
11348127809
11348136353
11348142762
11348149781
11348160157
11348165162
11348173524
11348182618
11348188538
11348197694
11348205018
11348211427
11348218812
11348229127
11348238343
11348245545
11348254395
11348263795
11348270447
11348279053
11348285767
11348294190
11348299073
11348308533
11348315552
11348323060
11348332032
11348339478
11348345948
11348356141
11348362549
11348372193
11348378418
11348386475
11348395020
11348403137
11348409363
11348417908
11348426514
11348431580
11348441590
11348446716
11348456421
11348463440
11348470947
11348477417
11348488342
11348494934
11348502319
11348510864
11348518433
11348526794
11348532715
11348541138
11348546265
11348556824
11348564819
11348571228
11348578308
11348586181
11348595031
11348602600
11348608825
11348617065
11348625244
11348632690
11348639038
11348647705
11348653991
11348661132
11348671081
11348675842
11348685974
11348692871
11348700866
11348707153
11348715698
11348724792
11348732116
11348738525
11348746887
11348755187
11348762695
11348774169
11348781677
11348791076
11348803466
11348817626
11348827453
11348836608
11348843993
11348852843
11348860045
11348868651
11348877135
11348885558
11348891662
11348901061
11348906066
11348915954
11348923034
11348930358
11348936766
11348947875
11348954161
11348961913
11348968077
11348974852
11348982054
11348989501
11348996154
11349003600
11349009642
11349017394
11349023314
11349032286
11349036437
11349044982
11349051207
11349061705
11349069945
11349076964
11349083250
11349090392
11349096861
11349104063
11349112730
11349120177
11349128661
11349135191
11349140868
11349149840
11349155577
11349164183
11349171751
11349176939
11349181883
11349187437
11349192076
11349197996
11349204710
11349209898
11349214720
11349219053
11349225340
11349230528
11349234495
11349240232
11349244505
11349250120
11349254942
11349260008
11349265989
11349271482
11349276976
11349281858
11349287290
11349292234
11349297972
11349302854
11349308470
11349313902
11349317625
11349322325
11349328123
11349333372
11349339964
11349344969
11349348387
11349353391
11349357603
11349362180
11349366758
11349373960
11349378599
11349388303
11349392637
11349399290
11349405332
11349410947
11349417173
11349421262
11349426572
11349432493
11349437498
11349442075
11349447263
11349452817
11349456907
11349462400
11349466306
11349471677
11349476133
11349482114
11349487424
11349491330
11349497861
11349501890
11349507200
11349512815
11349517392
11349523923
11349529233
11349534848
11349539975
11349544980
11349550718
11349555295
11349560849
11349567014
11349571897
11349576535
11349581235
11349585813
11349589841
11349597409
11349603635
11349608396
11349613278
11349618161
11349622373
11349628598
11349633298
11349639218
11349644345
11349649960
11349655454
11349660764
11349667416
11349673642
11349678708
11349683408
11349688779
11349693051
11349695859
11349703244
11349708615
11349713193
11349718075
11349723752
11349728451
11349731625
11349737790
11349742612
11349748593
11349753598
11349758603
11349762936
11349768124
11349773068
11349778195
11349784360
11349789242
11349794735
11349799130
11349805356
11349810360
11349815487
11349821408
11349828976
11349838620
11349845761
11349852291
11349865475
11349872677
11349880917
11349888851
11349896237
11349904476
11349912045
11349918575
11349924923
11349932369
11349940060
11349950008
11349955685
11349965023
11349972408
11349980770
11349991085
11349995113
11350006954
11350014645
11350021725
11350029293
11350037838
11350045040
11350050899
11350061825
11350066707
11350077083
11350084041
11350092159
11350099178
11350106929
11350112178
11350119259
11350124813
11350134151
11350141842
11350152217
11350160213
11350168331
11350175350
11350183284
11350189693
11350196041
11350205074
11350211849
11350217098
11350226863
11350234615
11350240291
11350248226
11350251094
11350261043
11350266048
11350274165
11350281123
11350288448
11350294856
11350302791
11350309261
11350314632
11350323665
11350328120
11350336726
11350348689
11350353877
11350364253
11350369807
11350378352
11350385371
11350392085
11350398066
11350405391
11350411372
11350416133
11350426326
11350431208
11350438288
11350446467
11350453364
11350459651
11350464289
11350471614
11350477473
11350488887
11350495234
11350501948
11350508479
11350512995
11350521601
11350527522
11350534968
11350543879
11350546931
11350557429
11350562800
11350572138
11350578852
11350585322
11350591608
11350600092
11350606318
11350611140
11350622553
11350630183
11350637690
11350644465
11350647578
11350659296
11350663874
11350672236
11350679804
11350686274
11350697138
11350707087
11350712763
11350718683
11350730036
11350734674
11350744684
11350751215
11350760187
11350768671
11350774958
11350779962
11350784174
11350790949
11350796259
11350801813
11350806879
11350814752
11350820001
11350824152
11350830438
11350835260
11350841058
11350845758
11350851434
11350856989
11350863031
11350867792
11350873468
11350877130
11350883600
11350888239
11350893915
11350898859
11350905084
11350910638
11350916986
11350921808
11350926813
11350932184
11350937311
11350943170
11350949518
11350955255
11350959588
11350965265
11350968866
11350974847
11350979730
11350986139
11350991266
11350999078
11351002801
11351010980
11351016473
11351021783
11351025140
11351032037
11351036920
11351042840
11351048028
11351052850
11351059930
11351065972
11351070916
11351076837
11351083245
11351090081
11351096124
11351101251
11351107110
11351111382
11351117242
11351120599
11351128167
11351131463
11351139459
11351144097
11351150872
11351156304
11351162103
11351166558
11351172356
11351176690
11351184624
11351189263
11351195061
11351201409
11351206048
11351213433
11351219659
11351225396
11351231988
11351239068
11351245354
11351250115
11351256035
11351262261
11351269829
11351279656
11351297539
11351307488
11351317192
11351327080
11351334893
11351342217
11351347893
11351353020
11351361443
11351369866
11351373528
11351380852
11351386040
11351391167
11351395256
11351400871
11351405266
11351412041
11351415093
11351421501
11351424309
11351430779
11351433769
11351441826
11351447319
11351451225
11351455620
11351461479
11351466545
11351471611
11351476433
11351483269
11351486626
11351493340
11351498466
11351503410
11351508049
11351513359
11351517815
11351527458
11351534721
11351541069
11351545891
11351551689
11351556511
11351563286
11351568046
11351575248
11351580009
11351586113
11351589836
11351598137
11351601860
11351609550
11351611869
11351619804
11351625541
11351631034
11351634697
11351642387
11351648368
11351652763
11351655937
11351663993
11351667594
11351673881
11351678642
11351684745
11351689506
11351695732
11351702018
11351707206
11351712638
11351718620
11351723319
11351729667
11351734367
11351740226
11351744621
11351751701
11351757072
11351763541
11351767814
11351773612
11351779960
11351784171
11351790458
11351794120
11351802177
11351809013
11351814384
11351819938
11351825675
11351830558
11351836356
11351841361
11351850699
11351858085
11351863517
11351869132
11351875968
11351879325
11351885978
11351891959
11351900870
11351906546
11351914664
11351918814
11351928946
11351932792
11351940299
11351945731
11351952201
11351959464
11351963919
11351969657
11351974356
11351978568
11351985404
11351990225
11351997367
11352002066
11352008414
11352014700
11352020255
11352025321
11352031180
11352038077
11352043997
11352048819
11352055594
11352060599
11352065909
11352070731
11352076529
11352082388
11352087881
11352092886
11352098502
11352103018
11352109000
11352113333
11352119070
11352124625
11352126456
11352136526
11352142874
11352148123
11352151663
11352158499
11352163138
11352169424
11352172903
11352182730
11352187063
11352193716
11352198660
11352204153
11352209097
11352216116
11352221853
11352228811
11352236380
11352241934
11352248342
11352252859
11352259695
11352263479
11352270132
11352275381
11352282888
11352288931
11352296194
11352301626
11352307058
11352311697
11352318166
11352322744
11352326406
11352334829
11352338857
11352346487
11352350393
11352357351
11352362539
11352368642
11352373281
11352380239
11352385305
11352392385
11352397146
11352403310
11352408376
11352413686
11352420827
11352426382
11352433706
11352438100
11352445119
11352450857
11352456228
11352460805
11352467214
11352471853
11352475454
11352484304
11352488759
11352496511
11352503835
11352512197
11352520742
11352526174
11352536122
11352543752
11352549001
11352558034
11352562856
11352568654
11352572988
11352578603
11352583364
11352588979
11352594289
11352601308
11352604726
11352611806
11352615163
11352623647
11352629140
11352636037
11352639638
11352645924
11352650807
11352656361
11352660573
11352667897
11352672658
11352680043
11352684376
11352689015
11352694813
11352699879
11352705495
11352708974
11352719105
11352724110
11352729664
11352733143
11352739918
11352744618
11352749989
11352754994
11352761708
11352766774
11352771962
11352776356
11352782460
11352786671
11352793019
11352797352
11352803151
11352809559
11352814808
11352821217
11352824940
11352831898
11352837147
11352842274
11352846974
11352854115
11352861012
11352866200
11352871144
11352878102
11352882923
11352889576
11352894337
11352899586
11352906971
11352912708
11352918751
11352924549
11352930225
11352934986
11352941273
11352947620
11352954578
11352961170
11352966908
11352974781
11352979969
11352988270
11352992176
11352998035
11353004993
11353011280
11353016590
11353021839
11353029102
11353033985
11353040821
11353046375
11353051136
11353060169
11353065113
11353072315
11353077198
11353081470
11353087330
11353092640
11353098133
11353103687
11353116016
11353122730
11353129016
11353134510
11353139576
11353146656
11353154102
11353159473
11353168201
11353172229
11353179004
11353183521
11353189502
11353195362
11353200061
11353205737
11353211780
11353216785
11353223621
11353228320
11353234119
11353239002
11353244800
11353249744
11353257129
11353261096
11353267261
11353271472
11353278308
11353282519
11353288501
11353292773
11353299243
11353304980
11353310168
11353314441
11353317920
11353325976
11353329455
11353336230
11353339648
11353347339
11353353198
11353357470
11353362353
11353367846
11353374194
11353379077
11353383899
11353393115
11353398242
11353405810
11353410815
11353417834
11353423388
11353431628
11353439440
11353442248
11353454272
11353457202
11353467578
11353472644
11353479907
11353486743
11353489733
11353502490
11353507861
11353517382
11353525378
11353533984
11353541125
11353546740
11353553942
11353560778
11353563891
11353575426
11353584765
11353591540
11353599779
11353606432
11353613390
11353618761
11353627611
11353634569
11353642931
11353650011
11353655382
11353668444
11353674303
11353683764
11353687975
11353696886
11353703600
11353708971
11353719042
11353723497
11353731981
11353740709
11353748094
11353754930
11353762071
11353769029
11353775438
11353781664
11353788988
11353796556
11353805895
11353813402
11353816332
11353827501
11353832872
11353844469
11353851305
11353854356
11353867052
11353870714
11353883104
11353891954
11353903551
11353908494
11353916185
11353922838
11353932054
11353938035
11353943345
11353952379
11353957567
11353965440
11353972215
11353979783
11353985276
11353991258
11353997606
11354004258
11354010545
11354016221
11354022081
11354027452
11354031846
11354035325
11354042649
11354047898
11354054734
11354060166
11354066880
11354072129
11354078355
11354083238
11354089280
11354093980
11354100327
11354107041
11354114793
11354121995
11354127122
11354131699
11354138230
11354143174
11354151597
11354157029
11354161301
11354169541
11354175156
11354181382
11354186326
11354191453
11354197983
11354204148
11354208909
11354215378
11354219773
11354225144
11354229355
11354235215
11354239426
11354244004
11354250596
11354256272
11354262620
11354267624
11354272751
11354276963
11354283127
11354287766
11354293137
11354298813
11354304673
11354310837
11354316758
11354321274
11354328293
11354333237
11354340988
11354347458
11354353806
11354358444
11354365280
11354369858
11354376755
11354383164
11354388657
11354393112
11354400314
11354405380
11354410446
11354414719
11354420639
11354426071
11354428146
11354438583
11354444687
11354450913
11354452744
11354460678
11354463913
11354469894
11354474777
11354483627
11354491684
11354498093
11354505234
11354510971
11354517380
11354522934
11354535263
11354544540
11354554306
11354561203
11354566574
11354571212
11354580795
11354585617
11354593612
11354600326
11354607589
11354614547
11354622116
11354628646
11354633346
11354642440
11354648788
11354655624
11354661178
11354663742
11354674362
11354680099
11354689742
11354694198
11354700729
11354706039
11354712692
11354720260
11354727462
11354733871
11354739669
11354749435
11354755416
11354762557
11354768905
11354774764
11354785934
11354790755
11354799605
11354806624
11354811263
11354819747
11354826949
11354834456
11354842452
11354845504
11354855269
11354860396
11354870040
11354878402
11354885360
11354891707
11354896468
11354906112
11354909896
11354917342
11354923262
11354928206
11354938521
11354943526
11354950911
11354957442
11354964339
11354970137
11354975691
11354983382
11354987898
11354998824
11355005782
11355014571
11355020735
11355026717
11355032942
11355039412
11355044966
11355050703
11355057051
11355065169
11355070174
11355080061
11355090987
11355097517
11355103377
11355110335
11355116133
11355125410
11355132124
11355137495
11355146040
11355152632
11355159346
11355165266
11355171919
11355177656
11355182783
11355193647
11355197859
11355206831
11355212690
11355218000
11355225264
11355229719
11355238508
11355245527
11355252668
11355258772
11355263960
11355274763
11355279035
11355287824
11355294416
11355302046
11355308271
11355314069
11355328962
11355332380
11355343732
11355349348
11355360517
11355368818
11355374616
11355378156
11355384870
11355388654
11355395856
11355399091
11355405195
11355410627
11355415754
11355420942
11355427778
11355431379
11355438581
11355443769
11355447919
11355452375
11355457136
11355461774
11355470990
11355474836
11355480573
11355485090
11355490461
11355494855
11355499738
11355505475
11355511823
11355517133
11355523847
11355528241
11355532758
11355536603
11355542035
11355547284
11355551679
11355557538
11355564130
11355568891
11355572186
11355578961
11355585126
11355589398
11355594220
11355601849
11355607770
11355613019
11355618268
11355623395
11355629071
11355634930
11355639569
11355646100
11355651715
11355656964
11355663312
11355669049
11355673566
11355681012
11355685834
11355691998
11355698895
11355704571
11355709271
11355715558
11355720441
11355724652
11355730389
11355732281
11355742291
11355748089
11355754315
11355756207
11355763958
11355767132
11355774395
11355777874
11355785260
11355790875
11355797223
11355802288
11355807415
11355811932
11355817547
11355823162
11355825054
11355836041
11355842816
11355847698
11355850872
11355857220
11355862103
11355867596
11355872357
11355881268
11355887188
11355895245
11355901592
11355905804
11355910565
11355918499
11355922710
11355930157
11355935589
11355941692
11355945904
11355952190
11355956707
11355962688
11355967144
11355974102
11355977154
11355983318
11355989178
11355994366
11355998394
11356003704
11356006817
11356014019
11356020244
11356024700
11356029644
11356034710
11356037639
11356043621
11356047832
11356054302
11356059429
11356065899
11356071453
11356077007
11356081096
11356086101
11356091900
11356097759
11356103008
11356109111
11356115154
11356119304
11356125225
11356128582
11356135295
11356139873
11356148540
11356153728
11356159038
11356163860
11356169841
11356174053
11356179851
11356185344
11356187419
11356196269
11356198467
11356209148
11356211284
11356220134
11356222087
11356229656
11356233073
11356242839
11356246989
11356253764
11356258647
11356264690
11356269878
11356274455
11356279216
11356285258
11356290324
11356296672
11356301616
11356307536
11356311992
11356318522
11356322673
11356327617
11356333415
11356339519
11356343730
11356346904
11356354533
11356357707
11356363994
11356368876
11356375468
11356381694
11356389262
11356394877
11356399211
11356403666
11356410502
11356415507
11356419535
11356429118
11356433940
11356440959
11356448588
11356454020
11356463664
11356467082
11356476969
11356484721
11356494059
11356502421
11356511271
11356517985
11356525553
11356532999
11356541056
11356547160
11356553629
11356560343
11356566447
11356575419
11356581644
11356589091
11356596598
11356603678
11356610392
11356615397
11356626871
11356634257
11356641581
11356647501
11356654947
11356660563
11356665323
11356673624
11356680460
11356689798
11356696756
11356699930
11356708658
11356715738
11356723368
11356727579
11356735208
11356741434
11356748575
11356757608
11356765970
11356772928
11356780130
11356787271
11356793741
11356800394
11356805704
11356814310
11356817117
11356826761
11356836710
11356843607
11356847879
11356856058
11356862527
11356867349
11356876077
11356883218
11356889932
11356896341
11356903970
11356910318
11356915262
11356923684
11356930093
11356934976
11356942666
11356945291
11356954751
11356963601
11356970132
11356974221
11356981912
11356987710
11356992227
11357000100
11357006753
11357014077
11357020669
11357028970
11357035562
11357041787
11357049600
11357053750
11357061074
11357069192
11357072000
11357085244
11357091226
11357098855
11357105203
