11128076187
11128081131
11128085952
11128090713
11128097000
11128101944
11128107559
11128112991
11128117691
11128124038
11128128677
11128133743
11128140152
11128146133
11128152786
11128158035
11128163711
11128169387
11128174941
11128180496
11128187087
11128193252
11128199233
11128206375
11128213088
11128218215
11128224868
11128230483
11128236221
11128242507
11128248367
11128254653
11128261001
11128267043
11128273269
11128279311
11128285049
11128290664
11128295974
11128303725
11128309951
11128317275
11128321975
11128329604
11128335341
11128342055
11128347609
11128352797
11128357070
11128363295
11128369277
11128375625
11128381484
11128385451
11128392165
11128396804
11128402297
11128407180
11128414138
11128419997
11128425490
11128431105
11128436049
11128439528
11128447341
11128452285
11128458205
11128463027
11128469069
11128474867
11128478774
11128484755
11128490126
11128496596
11128501174
11128507277
11128512099
11128517775
11128523757
11128529311
11128534621
11128539320
11128544997
11128551955
11128559035
11128564467
11128570204
11128577223
11128582106
11128586989
11128593336
11128599867
11128606215
11128611586
11128617140
11128623610
11128628309
11128634352
11128641188
11128646864
11128652174
11128658522
11128665114
11128670729
11128678236
11128683973
11128689711
11128695326
11128700209
11128706862
11128713392
11128718336
11128723951
11128731153
11128736341
11128742628
11128749281
11128755018
11128760633
11128767835
11128773390
11128779005
11128784803
11128791700
11128796583
11128804334
11128810865
11128818128
11128823866
11128828748
11128835828
11128840650
11128847852
11128853346
11128859083
11128866407
11128871534
11128878675
11128883131
11128889600
11128894666
11128903516
11128909925
11128916944
11128923780
11128930799
11128939283
11128945691
11128954542
11128961438
11128967603
11128974439
11128981458
11128988782
11128996961
11129002454
11129009839
11129016492
11129022473
11129030469
11129036145
11129043653
11129049329
11129058057
11129064343
11129071790
11129078259
11129088757
11129096326
11129102490
11129109265
11129117322
11129122632
11129130628
11129137219
11129143384
11129149731
11129157788
11129165906
11129173169
11129179822
11129187390
11129193066
11129199414
11129207776
11129213452
11129220898
11129228039
11129234570
11129241467
11129249463
11129255078
11129262646
11129266919
11129279309
11129284680
11129291882
11129296399
11129306164
11129313977
11129320202
11129327832
11129336682
11129342297
11129350170
11129355297
11129360790
11129368725
11129374035
11129383251
11129392895
11129398815
11129404980
11129413220
11129418957
11129428234
11129435619
11129440563
11129452587
11129461010
11129465527
11129475903
11129482922
11129489880
11129497570
11129506359
11129514355
11129524486
11129530529
11129537243
11129546764
11129552746
11129561657
11129567638
11129576671
11129584179
11129591015
11129599071
11129606090
11129613414
11129620372
11129626720
11129634838
11129641246
11129655895
11129667369
11129673778
11129681346
11129689159
11129697399
11129704357
11129713695
11129720470
11129729137
11129733775
11129742198
11129748363
11129757945
11129765514
11129773570
11129780528
11129787059
11129794139
11129800670
11129808848
11129815257
11129822215
11129830333
11129835399
11129843638
11129851085
11129858165
11129865794
11129874217
11129879100
11129887156
11129894603
11129901744
11129906016
11129914744
11129922801
11129931529
11129937327
11129945750
11129950450
11129958506
11129965464
11129971263
11129981150
11129990611
11129998362
11130004710
11130011973
11130017466
11130024180
11130032603
11130039133
11130048716
11130055674
11130062083
11130067759
11130076914
11130083445
11130090464
11130096262
11130105173
11130113901
11130121897
11130128000
11130134958
11130142161
11130149729
11130156504
11130162851
11130171213
11130178476
11130184397
11130191294
11130199350
11130205027
11130210581
11130219797
11130227793
11130234812
11130241403
11130248667
11130254709
11130261606
11130268991
11130277597
11130285776
11130293588
11130300546
11130307382
11130314035
11130320932
11130328073
11130334787
11130343454
11130351694
11130358957
11130365915
11130373727
11130381113
11130387094
11130395334
11130402475
11130412546
11130419748
11130426645
11130432931
11130442026
11130449045
11130457406
11130465707
11130472238
11130480478
11130487497
11130493783
11130504892
11130513925
11130520822
11130529611
11130535531
11130544869
11130550912
11130558175
11130564645
11130572518
11130580087
11130586862
11130595223
11130604196
11130611276
11130618356
11130627999
11130635262
11130643014
11130649239
11130656258
11130662728
11130669686
11130676705
11130684090
11130690804
11130698861
11130706124
11130713692
11130719735
11130726266
11130736947
11130744332
11130751351
11130758065
11130765755
11130771920
11130779732
11130786446
11130792611
11130799874
11130806160
11130813729
11130819527
11130828255
11130834664
11130841439
11130849190
11130858040
11130864876
11130873055
11130880074
11130887703
11130896614
11130902535
11130908455
11130915962
11130922310
11130931038
11130937508
11130946114
11130952644
11130959236
11130967293
11130979378
11130985237
11130992195
11130999763
11131006660
11131010994
11131021065
11131029182
11131036934
11131044502
11131051338
11131058601
11131066108
11131071846
11131077522
11131084663
11131093940
11131101387
11131107246
11131115119
11131123176
11131128486
11131138618
11131145271
11131154243
11131162544
11131170783
11131177558
11131185981
11131192451
11131197578
11131208015
11131229011
11131236030
11131243476
11131252082
11131261542
11131268684
11131275397
11131283637
11131289558
11131297248
11131304145
11131310370
11131317328
11131325019
11131332587
11131337043
11131344550
11131351020
11131357856
11131364447
11131374457
11131380927
11131386786
11131392340
11131399909
11131405280
11131411750
11131419684
11131427008
11131432990
11131440924
11131446784
11131453314
11131459845
11131466376
11131473517
11131482916
11131489630
11131495551
11131502631
11131508307
11131513800
11131522284
11131530157
11131536932
11131542914
11131551093
11131556891
11131565436
11131571112
11131580878
11131589056
11131594794
11131602057
11131608404
11131615973
11131622442
11131629645
11131640265
11131647589
11131653509
11131659918
11131668524
11131675360
11131681768
11131689215
11131696478
11131703436
11131710272
11131717413
11131723883
11131730230
11131737249
11131744146
11131754583
11131760137
11131769415
11131774236
11131781744
11131788397
11131796758
11131802252
11131809881
11131816229
11131826299
11131833135
11131840765
11131847539
11131855535
11131862554
11131872686
11131878789
11131886358
11131893072
11131901739
11131906927
11131913885
11131922063
11131927678
11131935857
11131943364
11131950139
11131957525
11131964910
11131969976
11131978154
11131984075
11131992253
11132000249
11132007939
11132015264
11132021733
11132028752
11132035894
11132043950
11132050481
11132057683
11132065312
11132072331
11132078130
11132085393
11132093633
11132100957
11132107182
11132115666
11132121892
11132130681
11132137517
11132143925
11132150029
11132159245
11132165593
11132174687
11132181950
11132188847
11132198064
11132205388
11132214909
11132222355
11132230351
11132238102
11132245305
11132251774
11132259099
11132265873
11132273869
11132281437
11132288823
11132294865
11132304814
11132310917
11132317875
11132324650
11132330204
11132337895
11132345829
11132353459
11132360356
11132366520
11132373783
11132380802
11132386540
11132395695
11132403141
11132409428
11132417057
11132424259
11132431705
11132438847
11132446842
11132454288
11132461857
11132469303
11132476322
11132483646
11132490726
11132497440
11132504886
11132512028
11132519413
11132526432
11132534122
11132540165
11132548221
11132555851
11132564029
11132571964
11132579898
11132585331
11132592716
11132600162
11132607608
11132615116
11132620853
11132628055
11132637454
11132642520
11132649661
11132656986
11132663761
11132670780
11132680118
11132686099
11132694583
11132702823
11132708133
11132716129
11132721133
11132729190
11132735233
11132742313
11132752078
11132758792
11132765506
11132772098
11132779605
11132785342
11132791324
11132801272
11132808597
11132815982
11132822940
11132828555
11132836734
11132842166
11132848575
11132857058
11132864932
11132871219
11132880191
11132886477
11132891970
11132900332
11132906985
11132915103
11132922305
11132930911
11132936953
11132945498
11132951846
11132958193
11132965945
11132974001
11132982546
11132989260
11132996340
11133002810
11133010256
11133017336
11133024661
11133031863
11133039858
11133046267
11133053469
11133060549
11133069338
11133076540
11133084414
11133092898
11133101137
11133107790
11133114809
11133121889
11133129030
11133135561
11133140505
11133148501
11133159792
11133167360
11133173952
11133181093
11133188967
11133194643
11133204592
11133210878
11133219728
11133227053
11133235536
11133243410
11133247927
11133257753
11133267214
11133273195
11133281679
11133287660
11133296266
11133301515
11133310365
11133319154
11133326967
11133335878
11133342836
11133351198
11133356569
11133363588
11133369691
11133378358
11133386964
11133393434
11133399171
11133407899
11133414430
11133420900
11133427614
11133434694
11133441285
11133449464
11133458497
11133464418
11133472108
11133480897
11133486940
11133497316
11133503175
11133509767
11133517152
11133525331
11133532777
11133539674
11133547547
11133555116
11133563233
11133570252
11133577393
11133583009
11133590028
11133598145
11133605775
11133612733
11133620301
11133627381
11133634705
11133641297
11133648621
11133656129
11133662537
11133670777
11133678467
11133685059
11133692200
11133698243
11133705384
11133713013
11133721253
11133729126
11133736695
11133743653
11133750550
11133757264
11133765137
11133771607
11133779724
11133787110
11133795288
11133802124
11133809754
11133817261
11133823731
11133830933
11133839722
11133847656
11133855835
11133864624
11133872009
11133879212
11133887085
11133893189
11133902039
11133909729
11133917297
11133924316
11133933105
11133942627
11133955139
11133963623
11133974975
11133981750
11133993408
11134001526
11134013428
11134023620
11134033325
11134044250
11134054138
11134061828
11134070556
11134077880
11134087951
11134095825
11134105957
11134111267
11134120727
11134127563
11134136474
11134143188
11134150207
11134157470
11134164672
11134173156
11134180541
11134187682
11134195373
11134202819
11134210693
11134218261
11134224181
11134230285
11134238586
11134245849
11134253966
11134261047
11134269897
11134276977
11134282653
11134290160
11134297240
11134305114
11134312255
11134320067
11134328185
11134333617
11134339538
11134346923
11134355346
11134360961
11134370848
11134378478
11134384948
11134391967
11134398558
11134405699
11134413207
11134419982
11134428221
11134436278
11134444152
11134450804
11134456236
11134464842
11134469481
11134476073
11134483397
11134493834
11134500609
11134509032
11134514586
11134523070
11134527708
11134536803
11134541930
11134549620
11134556639
11134564207
11134572508
11134579771
11134585509
11134592894
11134598631
11134605589
11134613768
11134622007
11134628660
11134636839
11134643492
11134650694
11134657225
11134664000
11134672239
11134678526
11134688169
11134694822
11134702085
11134708860
11134714292
11134720396
11134729490
11134738157
11134746214
11134751951
11134759702
11134765562
11134772764
11134779539
11134787168
11134794737
11134803709
11134811460
11134816282
11134825925
11134831113
11134838499
11134845640
11134853635
11134859861
11134869504
11134875303
11134883787
11134889707
11134899839
11134905759
11134912595
11134921933
11134929319
11134937864
11134944333
11134952146
11134959043
11134964597
11134973020
11134979795
11134988279
11134994992
11135001035
11135007749
11135015378
11135022214
11135030332
11135038816
11135045346
11135053281
11135063779
11135071347
11135076535
11135083005
11135089780
11135097470
11135103940
11135111081
11135116635
11135123776
11135129330
11135137448
11135148190
11135152158
11135160824
11135165890
11135175046
11135180600
11135187131
11135195492
11135202145
11135208798
11135217038
11135222531
11135230343
11135236325
11135243405
11135249264
11135258358
11135265194
11135272824
11135277768
11135285946
11135290707
11135299679
11135307308
11135313595
11135324703
11135331600
11135338070
11135345883
11135353817
11135359554
11135367794
11135376705
11135382504
11135391171
11135396542
11135403011
11135410336
11135419552
11135425350
11135432186
11135438595
11135444576
11135450375
11135456966
11135465084
11135472835
11135479305
11135488399
11135495785
11135504329
11135510616
11135518917
11135526912
11135534847
11135544002
11135549801
11135558406
11135564876
11135571895
11135580928
11135589412
11135596553
11135603023
11135610591
11135618465
11135626888
11135633235
11135641170
11135644954
11135654231
11135661983
11135669307
11135676021
11135682308
11135690547
11135697871
11135705196
11135710628
11135718990
11135726314
11135732661
11135740413
11135747493
11135755672
11135762630
11135769710
11135776912
11135781428
11135790095
11135801753
11135808101
11135815547
11135823420
11135829219
11135835017
11135843623
11135849299
11135857722
11135866206
11135872004
11135877375
11135886164
11135891902
11135900996
11135908686
11135916316
11135923945
11135931513
11135939448
11135947138
11135952998
11135961970
11135970149
11135976557
11135985590
11135993220
11136000056
11136007746
11136016291
11136024287
11136031184
11136039851
11136046931
11136054804
11136062067
11136069575
11136076777
11136084223
11136090815
11136099360
11136106806
11136114740
11136121149
11136128656
11136136591
11136143671
11136150080
11136158136
11136165277
11136174494
11136181879
11136188410
11136195978
11136202509
11136209589
11136218073
11136227716
11136233759
11136242304
11136249994
11136254572
11136261347
11136270624
11136281305
11136287775
11136296564
11136303705
11136307550
11136318475
11136324701
11136333063
11136341241
11136348505
11136354974
11136361993
11136369379
11136376092
11136383783
11136390558
11136397821
11136405267
11136411920
11136421136
11136426019
11136433038
11136439752
11136448602
11136455804
11136464105
11136470941
11136477960
11136484429
11136491632
11136499017
11136505059
11136513116
11136520989
11136527947
11136533257
11136540826
11136548150
11136554437
11136562737
11136571954
11136579705
11136586175
11136591485
11136599541
11136604852
11136613641
11136621331
11136628838
11136636162
11136642327
11136649468
11136657281
11136662285
11136668694
11136678887
11136688347
11136695977
11136702874
11136710381
11136717888
11136725152
11136732781
11136739800
11136747918
11136755791
11136763787
11136770256
11136776482
11136783440
11136791985
11136799492
11136805962
11136815178
11136821953
11136828789
11136834282
11136841118
11136848381
11136858391
11136865654
11136874748
11136879936
11136888847
11136895134
11136902519
11136908745
11136916252
11136923088
11136930595
11136936882
11136944633
11136952080
11136959526
11136963737
11136973381
11136984245
11136990288
11136999138
11137004997
11137010978
11137019462
11137027763
11137036125
11137044059
11137051628
11137057792
11137064994
11137071952
11137079093
11137085197
11137094596
11137101860
11137108634
11137115653
11137123222
11137129753
11137136588
11137142936
11137150565
11137159477
11137166801
11137174186
11137183830
11137189506
11137196830
11137207633
11137216666
11137224601
11137231864
11137239127
11137247794
11137254203
11137262260
11137269645
11137276908
11137285575
11137292716
11137301383
11137309256
11137315970
11137322440
11137331961
11137339774
11137345389
11137352713
11137359000
11137366141
11137372184
11137378714
11137389762
11137397574
11137401480
11137408927
11137417777
11137422293
11137430716
11137438040
11137448111
11137453482
11137460379
11137470389
11137476126
11137481802
11137489066
11137495963
11137505301
11137512808
11137519400
11137525809
11137533926
11137540884
11137547537
11137554983
11137564322
11137569693
11137578970
11137586111
11137591665
11137599234
11137605215
11137611563
11137620535
11137628347
11137635672
11137642630
11137650808
11137655813
11137664053
11137670401
11137680166
11137688528
11137695547
11137703115
11137709585
11137717459
11137724844
11137732717
11137739431
11137747305
11137754385
11137761587
11137768667
11137773977
11137781240
11137789236
11137799673
11137807241
11137815115
11137820425
11137828908
11137836355
11137842824
11137850881
11137859548
11137866140
11137871938
11137879201
11137886709
11137894460
11137901235
11137909536
11137918996
11137926076
11137933217
11137940175
11137947316
11137954518
11137960988
11137968618
11137975087
11137982289
11137990102
11137995473
11138003163
11138010549
11138016530
11138024343
11138033498
11138039113
11138047414
11138054494
11138060841
11138068105
11138074330
11138081776
11138090871
11138097585
11138103932
11138110524
11138118092
11138125294
11138132558
11138140187
11138148549
11138155507
11138163319
11138169789
11138176930
11138183705
11138190907
11138197682
11138204640
11138210988
11138218922
11138225453
11138232350
11138240590
11138245655
11138256886
11138262806
11138270802
11138277821
11138285511
11138291065
11138296803
11138306263
11138313099
11138322071
11138328236
11138336170
11138341725
11138348683
11138355030
11138362049
11138371204
11138379322
11138385548
11138393787
11138399830
11138407215
11138415943
11138420704
11138431690
11138440052
11138445850
11138452869
11138461475
11138469044
11138476124
11138485035
11138491565
11138498707
11138506031
11138514820
11138521473
11138530384
11138535633
11138543689
11138553028
11138560108
11138567554
11138574634
11138581043
11138587696
11138595142
11138602405
11138609058
11138616565
11138623828
11138631336
11138637439
11138644336
11138650745
11138658679
11138665332
11138672839
11138680774
11138688037
11138693591
11138701343
11138709949
11138717456
11138724597
11138731982
11138738086
11138745227
11138751391
11138759936
11138765063
11138772449
11138781299
11138788012
11138793261
11138800891
11138807483
11138814990
11138821704
11138830066
11138839892
11138846789
11138852526
11138859851
11138867358
11138874682
11138880664
11138888720
11138895678
11138903124
11138909960
11138917224
11138925158
11138930468
11138937182
11138944811
11138953845
11138961535
11138968676
11138976122
11138982348
11138989489
11138995226
11139004809
11139013232
11139021044
11139028368
11139035998
11139041918
11139048937
11139054491
11139061632
11139071825
11139079149
11139085924
11139092882
11139099047
11139106920
11139112780
11139119494
11139128283
11139136461
11139143175
11139150743
11139159288
11139164904
11139172533
11139180651
11139188280
11139199755
11139207201
11139214708
11139220873
11139228624
11139236070
11139243578
11139252550
11139259508
11139267198
11139273790
11139280077
11139287523
11139295641
11139320543
11139327745
11139333971
11139342332
11139351427
11139357652
11139366441
11139375780
11139385423
11139392930
11139399278
11139406724
11139413926
11139431749
11139441514
11139448350
11139455613
11139463243
11139469895
11139477464
11139486497
11139494493
11139501573
11139509202
11139516038
11139523728
11139532762
11139539292
11139550218
11139557664
11139564195
11139571824
11139580796
11139589158
11139595872
11139604783
11139614243
11139622788
11139630356
11139634995
11139641892
11139650498
11139657639
11139664963
11139674302
11139682602
11139689560
11139698838
11139705857
11139712265
11139721177
11139727097
11139737839
11139745346
11139749680
11139759568
11139766159
11139774338
11139780747
11139788803
11139797043
11139805710
11139812180
11139819931
11139827133
11139832810
11139840378
11139848496
11139855148
11139862778
11139869309
11139875534
11139882736
11139890060
11139897507
11139904098
11139913132
11139921860
11139928635
11139933456
11139942673
11139949447
11139957931
11139964767
11139972824
11139979904
11139987716
11139993576
11140001144
11140008773
11140013717
11140020370
11140029098
11140036117
11140043258
11140049911
11140056869
11140063339
11140070724
11140077194
11140084457
11140091781
11140098556
11140108505
11140115768
11140125533
11140135238
11140143112
11140154220
11140165389
11140172042
11140181747
11140191512
11140201217
11140209823
11140218368
11140229781
11140237227
11140250167
11140259871
11140270186
11140278243
11140289351
11140295333
11140305159
11140315841
11140323226
11140335433
11140345565
11140354903
11140363509
11140372847
11140382796
11140390486
11140402510
11140412642
11140421431
11140435530
11140443465
11140454268
11140463057
11140474776
11140482649
11140490767
11140499556
11140508833
11140519881
11140528487
11140540327
11140550642
11140559248
11140565535
11140576216
11140586165
11140593977
11140605330
11140616133
11140625532
11140633955
11140645063
11140654158
11140659956
11140671125
11140680036
11140692365
11140701643
11140712690
11140722090
11140730634
11140739790
11140746870
11140758466
11140767439
11140779096
11140789655
11140798505
11140807905
11140818525
11140826154
11140836286
11140844709
11140856000
11140863447
11140876325
11140890790
11140897260
11140909406
11140919049
11140925885
11140937177
11140949018
11140958478
11140968915
11140975690
11140986554
11140996137
11141007977
11141014508
11141024335
11141032086
11141044598
11141055035
11141067120
11141077191
11141086041
11141094342
11141104108
11141113873
11141121075
11141132428
11141143353
11141152814
11141161053
11141169171
11141182049
11141188580
11141198956
11141208355
11141217022
11141228619
11141235821
11141245770
11141257000
11141264019
11141274456
11141282513
11141288433
11141299481
11141312786
11141321819
11141331585
11141338970
11141349773
11141360149
11141368023
11141376873
11141386822
11141397686
11141407391
11141414593
11141424663
11141432903
11141441326
11141450115
11141459881
11141468487
11141479839
11141488933
11141500042
11141505901
11141516338
11141526165
11141536174
11141543743
11141553691
11141565898
11141575664
11141582866
11141592876
11141603618
11141613201
11141619548
11141630107
11141639568
11141648113
11141658183
11141668559
11141678203
11141688640
11141698405
11141705730
11141716594
11141727031
11141739360
11141748515
11141756206
11141766826
11141778850
11141787516
11141795085
11141806987
11141817302
11141829264
11141839701
11141849833
11141858378
11141868205
11141874552
11141884684
11141892375
11141900920
11141911295
11141918925
11141929423
11141937907
11141948710
11141958109
11141965372
11141975321
11141985148
11141995951
11142006083
11142016764
11142025675
11142037150
11142046305
11142057657
11142069620
11142079569
11142091776
11142100260
11142108500
11142117533
11142126444
11142133585
11142143595
11142155435
11142163614
11142174173
11142185465
11142193765
11142199930
11142209207
11142216837
11142226785
11142234415
11142246133
11142256632
11142265115
11142273416
11142281595
11142293863
11142302103
11142312356
11142322244
11142331338
11142341470
11142348916
11142359659
11142370218
11142378763
11142385598
11142396280
11142407998
11142416604
11142427346
11142439065
11142445718
11142454934
11142464700
11142475076
11142481790
11142492043
11142500710
11142511086
11142518472
11142530923
11142536599
11142547280
11142555276
11142566262
11142572488
11142581704
11142593606
11142605019
11142614968
11142622353
11142631997
11142641823
11142649697
11142660988
11142668679
11142679116
11142687844
11142698037
11142707680
11142718544
11142725747
11142737221
11142743203
11142753945
11142766152
11142774086
11142785561
11142795387
11142804115
11142809364
11142821755
11142829750
11142838905
11142846840
11142856728
11142867653
11142877480
11142885536
11142894752
11142901527
11142914589
11142922218
11142932960
11142942909
11142953834
11142964027
11142974891
11142983925
11142995704
11143005348
11143017311
11143023353
11143033302
11143042884
11143053993
11143063514
11143071327
11143081642
11143088172
11143099098
11143108619
11143119544
11143127723
11143134437
11143144569
11143152381
11143162574
11143172401
11143180396
11143189857
11143202003
11143210425
11143222999
11143231788
11143241553
11143250892
11143258338
11143269202
11143279944
11143287818
11143293250
11143306678
11143315100
11143322181
11143333289
11143338904
11143349463
11143360633
11143371436
11143380591
11143388159
11143398291
11143407691
11143413794
11143425574
11143431982
11143444189
11143453406
11143464575
11143469946
11143482642
11143490637
11143496802
11143506995
11143515845
11143523718
11143536658
11143543554
11143553137
11143563696
11143570410
11143579748
11143589941
11143595495
11143606909
11143618383
11143628576
11143638159
11143644934
11143655920
11143665991
11143672888
11143682470
11143693579
11143701147
11143710546
11143721349
11143726721
11143739050
11143747045
11143754308
11143764440
11143773473
11143779699
11143790014
11143802831
11143810949
11143817541
11143827733
11143837499
11143845067
11143853368
11143863012
11143873937
11143884801
11143894506
11143903234
11143915075
11143927343
11143936132
11143948583
11143956151
11143968236
11143978185
11143988683
11143997533
11144007970
11144013402
11144024205
11144033543
11144040868
11144051610
11144061742
11144069676
11144078099
11144085606
11144095433
11144105443
11144116185
11144121617
11144130528
11144142918
11144155430
11144165013
11144172886
11144183629
11144189366
11144198155
11144210728
11144219761
11144227452
11144239720
11144247532
11144256687
11144263096
11144275364
11144282078
11144292576
11144300144
11144306553
11144322361
11144329258
11144338474
11144345676
11144355991
11144365025
11144375400
11144383518
11144392734
11144401523
11144411716
11144422458
11144430698
11144440952
11144449253
11144455234
11144465854
11144474765
11144481235
11144495945
11144504001
11144512180
11144522068
11144528904
11144540134
11144547641
11144555942
11144564365
11144578037
11144585178
11144595615
11144605075
11144612888
11144621005
11144630161
11144639438
11144647983
11144658786
11144668185
11144679111
11144684970
11144698703
11144707553
11144717685
11144725253
11144731418
11144747226
11144754062
11144766696
11144774691
11144782260
11144791293
11144798739
11144808871
11144818637
11144826205
11144839633
11144848422
11144856295
11144864291
11144873446
11144882968
11144891268
11144900607
11144907198
11144919344
11144931612
11144939791
11144947176
11144957857
11144966524
11144973543
11144985934
11144994906
11145002718
11145013705
11145025423
11145034701
11145041231
11145049105
11145059054
11145068392
11145076204
11145086519
11145098299
11145107088
11145114656
11145123690
11145132601
11145140230
11145148653
11145155184
11145170015
11145177339
11145187654
11145198152
11145207613
11145217073
11145226411
11145234102
11145245271
11145253084
11145262849
11145272432
11145282320
11145290864
11145298250
11145306184
11145316133
11145327302
11145337556
11145346650
11145355806
11145365571
11145373628
11145383271
11145388887
11145399629
11145412202
11145420198
11145429048
11145438813
11145448335
11145455232
11145465730
11145471589
11145482758
11145494477
11145501130
11145510407
11145520234
11145530122
11145538911
11145546784
11145555390
11145566010
11145575165
11145586579
11145594392
11145603974
11145611054
11145620270
11145631196
11145639802
11145651398
11145661896
11145672333
11145680573
11145690522
11145696381
11145707489
11145716706
11145723297
11145737885
11145747589
11145757172
11145766571
11145775177
11145784149
11145791412
11145799713
11145805878
11145821137
11145828217
11145839935
11145847504
11145856476
11145865204
11145876007
11145884369
11145891632
11145902923
11145914764
11145923065
11145932037
11145941498
11145950897
11145961883
11145970672
11145981170
11145991241
11145999725
11146010467
11146018219
11146028961
11146035064
11146044769
11146052947
11146065826
11146076385
11146086761
11146096221
11146104339
11146112640
11146119537
11146131500
11146138213
11146149200
11146159881
11146168548
11146177581
11146187286
11146195769
11146203765
11146213592
11146225677
11146233611
11146243804
11146254973
11146261138
11146273833
11146281768
11146290191
11146299590
11146306060
11146317290
11146326323
11146336577
11146346343
11146356413
11146365019
11146372649
11146381072
11146391326
11146400847
11146411345
11146420622
11146429167
11146438200
11146448943
11146458037
11146469023
11146476836
11146487089
11146497099
11146506926
11146514311
11146523649
11146530119
11146539335
11146551664
11146560698
11146568205
11146579802
11146589506
11146597563
11146604887
11146618376
11146627104
11146635832
11146646452
11146657682
11146666715
11146674406
11146682157
11146690275
11146701811
11146709684
11146717252
11146728117
11146739164
11146747770
11146755827
11146763883
11146772489
11146781644
11146790983
11146799222
11146809476
11146817838
11146830655
11146838163
11146845853
11146853544
11146862577
11146870633
11146881498
11146891385
11146902433
11146908658
11146921292
11146928983
11146937894
11146944669
11146954679
11146963162
11146973905
11146986112
11146994412
11147000577
11147009305
11147024625
11147031155
11147039212
11147049771
11147060086
11147071194
11147076993
11147088040
11147096524
11147106412
11147115262
11147122342
11147132840
11147142056
11147153347
11147160367
11147170865
11147179226
11147187405
11147196621
11147207486
11147217312
11147227017
11147234158
11147245144
11147253262
11147263882
11147270291
11147280239
11147289578
11147299831
11147310146
11147320156
11147327663
11147340603
11147348476
11147359768
11147368801
11147380398
11147388515
11147398464
11147407131
11147417202
11147426357
11147436123
11147441433
11147453518
11147463833
11147473903
11147482692
11147490200
11147500454
11147510280
11147517971
11147527675
11147533779
11147545375
11147554653
11147564601
11147575099
11147585231
11147594814
11147603847
11147611903
11147623378
11147632716
11147643153
11147652797
11147660792
11147668727
11147675563
11147686427
11147694240
11147706508
11147713710
11147725551
11147732814
11147744349
11147751979
11147764552
11147772059
11147782191
11147792201
11147802577
11147805506
11147819178
11147828150
11147834559
11147843409
11147852748
11147862208
11147870081
11147881495
11147891688
11147901576
11147909876
11147919398
11147928370
11147936854
11147946925
11147954981
11147963343
11147972376
11147981409
11147990626
11147999781
11148007471
11148015467
11148027369
11148035608
11148044275
11148053858
11148063318
11148072901
11148079248
11148087915
11148098902
11148109461
11148120325
11148125696
11148135767
11148145288
11148155176
11148162195
11148173242
11148182092
11148192835
11148200220
11148209131
11148217615
11148226831
11148235071
11148245691
11148254785
11148268152
11148271936
11148288110
11148296655
11148306665
11148315942
11148321985
11148332177
11148341760
11148349939
11148362024
11148372277
11148377710
11148388757
11148398767
11148407373
11148416345
11148423486
11148434289
11148444299
11148455773
11148463708
11148470361
11148479943
11148490197
11148499596
11148505639
11148516991
11148528710
11148536889
11148545922
11148555871
11148564233
11148571313
11148580712
11148589257
11148597252
11148608361
11148616417
11148624352
11148634911
11148644005
11148653954
11148660729
11148669213
11148681115
11148691796
11148699669
11148708824
11148714867
11148723595
11148733116
11148742516
11148751976
11148760826
11148770287
11148781700
11148790062
11148800987
11148809227
11148815269
11148826744
11148837669
11148849144
11148857933
11148868004
11148876121
11148885155
11148892906
11148903648
11148913475
11148922325
11148931053
11148940086
11148950706
11148959617
11148969017
11148977684
11148985374
11148994957
11149002098
11149015342
11149024803
11149034812
11149044639
11149056114
11149066917
11149079612
11149089500
11149102317
11149111716
11149122642
11149127647
11149139243
11149148154
11149158713
11149165183
11149174216
11149181846
11149198203
11149207236
11149231162
11149248618
11149262717
11149277854
11149289878
11149300009
11149308921
11149316245
11149324118
11149331687
11149339194
11149346091
11149353598
11149362021
11149369223
11149376242
11149383139
11149389426
11149396872
11149403952
11149411948
11149418967
11149424582
11149432700
11149438376
11149444907
11149451376
11149459006
11149465903
11149475241
11149481772
11149487814
11149493063
11149501120
11149507528
11149515280
11149522116
11149529806
11149536093
11149542074
11149549032
11149558249
11149566549
11149573812
11149581076
11149589132
11149596517
11149602377
11149609640
11149619223
11149625021
11149634420
11149642355
11149649008
11149656637
11149664999
11149672140
11149677816
11149685995
11149695516
11149702413
11149708578
11149716207
11149724264
11149731161
11149737020
11149744772
11149752035
11149759359
11149766317
11149773885
11149782125
11149787435
11149794088
11149802511
11149812398
11149820150
11149825643
11149832784
11149840108
11149847310
11149853963
11149861531
11149870565
11149876302
11149884114
11149891744
11149898091
11149905355
11149912862
11149917623
11149928975
11149936605
11149943135
11149950520
11149958272
11149962666
11149972554
11149980245
11149986592
11149994161
11150002400
11150007832
11150015706
11150023457
11150029256
11150037678
11150048054
11150055257
11150062825
11150069112
11150077778
11150085164
11150091511
11150099385
11150106465
11150115681
11150123189
11150129902
11150135762
11150143269
11150150471
11150158467
11150165547
11150173115
11150180622
11150188374
11150194660
11150201924
11150208210
11150216084
11150224751
11150232136
11150237812
11150245197
11150251545
11150259602
11150266743
11150274860
11150282856
11150290180
11150296528
11150303974
11150311481
11150317585
11150326679
11150334797
11150343525
11150350666
11150358356
11150365009
11150372272
11150378681
11150385883
11150392902
11150400959
11150407856
11150414753
11150421344
11150429706
11150436725
11150444233
11150452778
11150459247
11150467548
11150475666
11150483844
11150489032
11150497394
11150504779
11150510883
11150519123
11150526691
11150531818
11150539935
11150546771
11150553302
11150560321
11150567401
11150574359
11150582538
11150589191
11150595660
11150601764
11150610736
11150616656
11150625507
11150633624
11150641132
11150654071
11150660602
11150670123
11150676471
11150686603
11150692157
11150701434
11150709430
11150718829
11150727130
11150733539
11150745074
11150750567
11150760272
11150767901
11150775347
11150783282
11150790789
11150798297
11150806109
11150814410
11150821307
11150828204
11150837420
11150844866
11150852557
11150862017
11150869708
11150877093
11150883990
11150891070
11150897356
11150904253
11150909930
11150917986
11150927203
11150935320
11150939898
11150948565
11150954363
11150961993
11150967608
11150976153
11150986468
11150992144
11150997698
11151006548
11151012041
11151020952
11151029619
11151034929
11151044268
11151052446
11151059099
11151066912
11151074907
11151080522
11151088579
11151096270
11151103777
11151111589
11151118914
11151126665
11151133928
11151140642
11151149126
11151154985
11151163225
11151171159
11151177202
11151184770
11151192705
11151198259
11151205705
11151213396
11151221819
11151230119
11151237016
11151244829
11151251482
11151260759
11151266130
11151274064
11151283098
11151290178
11151295244
11151304399
11151309404
11151318742
11151326310
11151333268
11151340776
11151347551
11151354020
11151361345
11151367997
11151377824
11151383927
11151392839
11151402360
11151411576
11151417069
11151425797
11151431962
11151438615
11151444779
11151452714
11151461198
11151467973
11151474870
11151481156
11151487687
11151497392
11151504411
11151512589
11151518998
11151527421
11151534928
11151542435
11151548173
11151557816
11151564225
11151575760
11151582657
11151589554
11151596512
11151605057
11151611954
11151620255
11151628129
11151635331
11151644181
11151651322
11151658646
11151662491
11151671158
11151679215
11151684464
11151692643
11151700638
11151709061
11151716690
11151723709
11151730667
11151736466
11151744522
11151752091
11151761490
11151766495
11151775650
11151782364
11151789078
11151794693
11151803055
11151810684
11151818924
11151827591
11151834183
11151839859
11151848770
11151855484
11151861099
11151869766
11151877395
11151884598
11151891922
11151898147
11151905227
11151912857
11151918655
11151928054
11151935562
11151941726
11151950515
11151956741
11151964431
11151970779
11151978653
11151986587
11151994827
11152001968
11152009048
11152015151
11152024063
11152029800
11152037673
11152044509
11152052017
11152059402
11152066665
11152072585
11152080276
11152088210
11152096755
11152103042
11152111037
11152117507
11152124648
11152133315
11152139480
11152148391
11152156447
11152164077
11152171218
11152178359
11152184951
11152192885
11152199355
11152205459
11152213576
11152220229
11152227980
11152234267
11152243605
11152249648
11152257766
11152264235
11152274245
11152281569
11152289199
11152295546
11152304885
11152313124
11152319594
11152326369
11152333510
11152339980
11152349562
11152356032
11152366164
11152374709
11152383315
11152391737
11152399001
11152406325
11152412428
11152420668
11152427565
11152434523
11152441115
11152448683
11152456923
11152464552
11152471022
11152478102
11152484205
11152492262
11152500563
11152508497
11152515272
11152524000
11152530531
11152538527
11152545790
11152554396
11152560621
11152569288
11152576673
11152584303
11152592237
11152600904
11152605543
11152614393
11152621534
11152630628
11152637769
11152644422
11152651685
11152657850
11152664930
11152672926
11152677442
11152687574
11152694898
11152701307
11152708936
11152714796
11152721265
11152727979
11152735609
11152747205
11152754774
11152760572
11152769056
11152775037
11152783216
11152788770
11152796216
11152805677
11152812879
11152819532
11152826673
11152834363
11152840589
11152846997
11152855420
11152864026
11152870557
11152876294
11152884900
11152891309
11152899304
11152905347
11152914807
11152921643
11152928357
11152934644
11152942334
11152949475
11152956799
11152964063
11152970715
11152979077
11152987073
11152994275
11153002515
11153009167
11153019116
11153026623
11153034558
11153043225
11153051404
11153058423
11153063672
11153074536
11153082287
11153089978
11153096692
11153105237
11153109936
11153118969
11153124829
11153132275
11153138501
11153147595
11153156384
11153163464
11153171398
11153178234
11153184765
11153191601
11153200024
11153208203
11153215893
11153222851
11153227856
11153237316
11153243298
11153250256
11153256970
11153265942
11153273876
11153281933
11153290173
11153297558
11153303112
11153310192
11153316479
11153324413
11153333019
11153339855
11153347118
11153353649
11153361156
11153367687
11153374462
11153382030
11153390819
11153398021
11153404857
11153411693
11153416637
11153425365
11153432323
11153438305
11153447338
11153455700
11153461071
11153468090
11153475414
11153483043
11153490795
11153499034
11153506664
11153513866
11153520091
11153527965
11153534618
11153541698
11153548107
11153555858
11153565440
11153571483
11153579234
11153586925
11153593944
11153601329
11153607677
11153615367
11153622203
11153629649
11153633494
11153643138
11153650584
11153658214
11153664134
11153672252
11153680980
11153688853
11153693431
11153703441
11153710338
11153717723
11153724437
11153732127
11153739695
11153748179
11153755381
11153763438
11153769969
11153777110
11153784678
11153792979
11153801402
11153809031
11153815623
11153822581
11153831187
11153836802
11153844187
11153852122
11153858958
11153866404
11153873545
11153880930
11153888377
11153895762
11153901804
11153909922
11153917551
11153925303
11153932749
11153940256
11153948130
11153953623
11153961497
11153969370
11153977060
11153984995
11153991709
11153999277
11154005991
11154012827
11154019175
11154027597
11154034861
11154042551
11154050425
11154058054
11154064707
11154071848
11154078623
11154084116
11154093698
11154101511
11154107920
11154115488
11154121286
11154128793
11154136301
11154141367
11154151743
11154159128
11154166513
11154174875
11154180917
11154189096
11154197519
11154205698
11154213083
11154220773
11154228769
11154235422
11154242868
11154249460
11154255319
11154263559
11154270212
11154279062
11154284799
11154291879
11154299630
11154307382
11154314340
11154322763
11154329232
11154336984
11154344247
11154351876
11154355783
11154364328
11154371408
11154380197
11154388375
11154395883
11154400399
11154410043
11154414010
11154423104
11154428903
11154438424
11154448556
11154454781
11154461923
11154469247
11154476876
11154484933
11154493295
11154501046
11154509774
11154517281
11154523080
11154532052
11154538644
11154545602
11154553109
11154560677
11154566781
11154575570
11154583077
11154589547
11154597054
11154603768
11154609322
11154617379
11154625801
11154632637
11154638253
11154647286
11154653267
11154660530
11154667061
11154674752
11154682442
11154689827
11154696846
11154704415
11154711983
11154718880
11154724678
11154732613
11154739632
11154746895
11154753182
11154760323
11154767525
11154775520
11154783516
11154791084
11154798836
11154806587
11154812569
11154819649
11154825264
11154833626
11154839119
11154847542
11154855354
11154864082
11154870308
11154877327
11154885811
11154893318
11154899055
11154906501
11154916938
11154924873
11154932441
11154940071
11154947822
11154954780
11154962471
11154970954
11154977851
11154986946
11154993293
11155000373
11155006599
11155014106
11155021858
11155030341
11155038703
11155047126
11155055000
11155062324
11155068305
11155075507
11155083320
11155090400
11155098640
11155106269
11155112678
11155119147
11155126350
11155133002
11155140693
11155150947
11155156806
11155166205
11155172187
11155179389
11155187568
11155193915
11155201911
11155208991
11155216559
11155224494
11155232367
11155240058
11155247077
11155253913
11155261847
11155272162
11155279914
11155289069
11155296332
11155302985
11155310065
11155317450
11155325812
11155331854
11155341620
11155348578
11155355658
11155366339
11155373053
11155380988
11155390631
11155400092
11155406622
11155413580
11155420599
11155430060
11155435797
11155445257
11155453680
11155459356
11155469061
11155475775
11155483526
11155490728
11155498419
11155508184
11155515875
11155522467
11155532171
11155538275
11155544928
11155551947
11155560797
11155570013
11155580267
11155587835
11155596136
11155603216
11155609991
11155616827
11155624822
11155632757
11155641790
11155648321
11155658270
11155665960
11155673345
11155682256
11155689642
11155696966
11155704900
11155712408
11155719121
11155726385
11155732854
11155740606
11155748479
11155756475
11155762334
11155769353
11155777227
11155782659
11155791082
11155799260
11155807317
11155815068
11155821660
11155828862
11155836309
11155843450
11155849492
11155857305
11155864751
11155872258
11155878911
11155886724
11155893804
11155900945
11155907292
11155914983
11155924016
11155931889
11155938970
11155947087
11155953313
11155961308
11155967534
11155974736
11155984502
11155991948
11155999821
11156007634
11156013921
11156021123
11156027775
11156035832
11156043584
11156050786
11156057377
11156065007
11156070744
11156078496
11156084294
11156093388
11156102726
11156110356
11156118718
11156129521
11156137089
11156144291
11156152348
11156158757
11156166691
11156174443
11156181278
11156189884
11156197209
11156203861
11156209965
11156220890
11156227543
11156236515
11156244206
11156250187
11156257145
11156265385
11156273197
11156280521
11156287174
11156295597
11156302738
11156311161
11156318302
11156324955
11156332645
11156340031
11156347843
11156354801
11156360966
11156364811
11156370182
11156375248
11156379276
11156385563
11156392765
11156397403
11156403141
11156408817
11156414188
11156419315
11156425480
11156430179
11156435306
11156440250
11156446781
11156452030
11156457157
11156464298
11156468997
11156475833
11156480777
11156486331
11156491458
11156496585
11156503787
11156511905
11156518558
11156524600
11156532413
11156538028
11156543277
11156551395
11156556278
11156564761
11156570926
11156579288
11156586917
11156595706
11156603030
11156608646
11156616763
11156626041
11156636844
11156646792
11156652591
11156663150
11156668521
11156677676
11156686465
11156693972
11156700137
11156705264
11156716128
11156722720
11156731692
11156736636
11156744876
11156752749
11156758670
11156767703
11156775942
11156783267
11156789919
11156795230
11156803958
11156810061
11156818606
11156825320
11156832705
11156838686
11156848513
11156855105
11156859927
11156869631
11156875246
11156884035
11156890383
11156897097
11156903994
11156909914
11156918764
11156925783
11156932680
11156940493
11156948305
11156954836
11156961367
11156968325
11156975710
11156984255
11156990847
11157000124
11157006411
11157015810
11157021303
11157033022
11157040041
11157048891
11157059267
11157065309
11157075014
11157079958
11157089601
11157098268
11157105470
11157112367
11157119570
11157125856
11157134645
11157143922
11157151003
11157159486
11157165346
11157173952
11157184511
11157192995
11157198671
11157211122
11157213685
11157227601
11157232545
11157241456
11157249940
11157257387
11157267030
11157271730
11157280702
11157290101
11157296266
11157305055
11157312562
11157322389
11157327577
11157338990
11157344056
11157352601
11157361451
11157369203
11157378297
11157384034
11157392823
11157400331
11157405457
11157414552
11157421815
11157428590
11157437745
11157445130
11157453614
11157461793
11157467774
11157472840
11157484559
11157490052
11157498048
11157507447
11157515931
11157528199
11157536194
11157546937
11157556153
11157562928
11157568909
11157580201
11157585633
11157593689
11157601136
11157609497
11157616700
11157623597
11157630310
11157638062
11157644593
11157653199
11157657959
11157663697
11157672913
11157679077
11157686096
11157691223
11157698731
11157706848
11157714417
11157719788
11157728638
11157733337
11157740479
11157747803
11157756775
11157764099
11157769531
11157780945
11157787109
11157795105
11157801941
11157810425
11157814941
11157825317
11157832458
11157838257
11157848755
11157857605
11157864746
11157872131
11157877380
11157885070
11157893799
11157899353
11157908020
11157913635
11157922424
11157930481
11157935913
11157943237
11157951904
11157956542
11157965576
11157971496
11157978576
11157984863
11157992858
11158003112
11158007934
11158014465
11158022521
11158030273
11158036132
11158042480
11158050475
11158061218
11158067870
11158074462
11158083923
11158089782
11158096191
11158103820
11158109069
11158117919
11158124023
11158129149
11158138549
11158146483
11158153014
11158161315
11158165343
11158174560
11158181395
11158187194
11158194335
11158202697
11158208983
11158217101
11158225829
11158231688
11158242858
11158250304
11158257201
11158264281
11158273009
11158279173
11158286986
11158294798
11158300475
11158304625
11158313780
11158321227
11158328063
11158334349
11158343138
11158350157
11158356749
11158365416
11158372679
11158380125
11158386961
11158394530
11158401976
11158409666
11158416502
11158428099
11158432188
11158441038
11158446592
11158452330
11158458983
11158467711
11158473326
11158478331
11158482237
11158489012
11158493589
11158498472
11158503050
11158508909
11158514769
11158520567
11158525816
11158531309
11158537107
11158542417
11158546812
11158552183
11158560240
11158565855
11158570860
11158576597
11158582151
11158588316
11158593015
11158600706
11158607420
11158611265
11158617368
11158622678
11158628782
11158632566
11158639280
11158644163
11158649961
11158656553
11158662534
11158666990
11158672727
11158678892
11158683408
11158688535
11158694395
11158702817
11158707212
11158713926
11158717832
11158724485
11158728513
11158734373
11158740232
11158746457
11158752134
11158758054
11158763425
11158768003
11158772580
11158778440
11158785459
11158789548
11158795591
11158802366
11158807737
11158814084
11158819516
11158823423
11158829221
11158834043
11158839353
11158847287
11158855771
11158862729
11158868039
11158873105
11158880979
11158885678
11158891660
11158899289
11158904904
11158912412
11158917783
11158923703
11158929990
11158938596
11158945615
11158954099
11158963132
11158971799
11158979672
11158986020
11158993344
11159001218
11159009640
11159017270
11159027646
11159033444
11159043759
11159053586
11159061642
11159070553
11159075619
11159083981
11159091916
11159098324
11159107663
11159118039
11159124081
11159132443
11159137142
11159143124
11159148800
11159153744
11159159970
11159165707
11159171505
11159175656
11159182064
11159186276
11159191281
11159196224
11159202023
11159209347
11159215206
11159219479
11159224789
11159230282
11159233761
11159238644
11159244259
11159249569
11159255672
11159261898
11159267208
11159272152
11159277462
11159282467
11159287289
11159293026
11159299129
11159304989
11159310482
11159314388
11159319881
11159325374
11159328304
11159334469
11159339657
11159347042
11159351619
11159356930
11159362179
11159368160
11159373592
11159378170
11159386776
11159393428
11159399837
11159405574
11159409908
11159416561
11159420894
11159425472
11159432186
11159438289
11159444332
11159449886
11159456478
11159462825
11159469844
11159477107
11159484737
11159492122
11159498531
11159506221
11159511043
11159521419
11159528987
11159537959
11159543880
11159553889
11159561397
11159566768
11159576594
11159585750
11159590510
11159599055
11159603572
11159613032
11159620662
11159627009
11159633662
11159643184
11159649470
11159657710
11159665645
11159671260
11159679499
11159684871
11159692927
11159701838
11159708247
11159720149
11159726863
11159731562
11159741755
11159750361
11159752986
11159767878
11159773127
11159782588
11159791804
11159800654
11159809687
11159817866
11159827143
11159836787
11159844660
11159852351
11159860773
11159868647
11159874811
11159883784
11159890131
11159896052
11159902216
11159909357
11159916559
11159922907
11159928889
11159935785
11159943537
11159950983
11159957636
11159965571
11159970636
11159978632
11159984980
11159992426
11159998407
11160008417
11160015253
11160019831
11160028070
11160037653
11160044001
11160050592
11160057550
11160063898
11160073664
11160082514
11160089288
11160093866
11160103021
11160110712
11160117181
11160123895
11160132562
11160137628
11160145502
11160152399
11160161432
11160167291
11160172540
11160182062
11160186273
11160194818
11160202386
11160208673
11160216852
11160222650
11160232049
11160237054
11160245599
11160252069
11160257318
11160264642
11160273065
11160278863
11160286371
11160295465
11160299615
11160308465
11160313775
11160320428
11160328729
11160332818
11160341729
11160348077
11160356622
11160365289
11160372003
11160379510
11160385980
11160392144
11160400079
11160407037
11160413323
11160422540
11160430901
11160438470
11160444268
11160452447
11160459161
11160464226
11160471795
11160479424
11160486504
11160495965
11160505425
11160511284
11160516595
11160524773
11160533013
11160538872
11160545342
11160550713
11160560174
11160566948
11160576165
11160580315
11160590569
11160597649
11160602898
11160611565
11160619683
11160625786
11160633843
11160645256
11160652214
11160661736
11160669609
11160676323
11160685173
11160689751
11160699577
11160707390
11160717094
11160724052
11160729424
11160737846
11160743828
11160751823
11160758232
11160765922
11160772942
11160777397
11160785759
11160792900
11160799614
11160806633
11160813469
11160815483
11160826652
11160836906
11160843254
11160850456
11160855461
11160862175
11160867973
11160875480
11160879509
11160890495
11160898613
11160903556
11160910698
11160918388
11160927665
11160934257
11160939994
11160946464
11160953727
11160960136
11160968986
11160977470
11160983940
11160989372
11160996696
11161004630
11161011833
11161017936
11161026481
11161034843
11161040641
11161046378
11161052238
11161059684
11161066764
11161074821
11161079154
11161088676
11161096000
11161103141
11161110282
11161116019
11161123710
11161128287
11161137015
11161144767
11161149955
11161158439
11161166373
11161172965
11161179190
11161185172
11161192862
11161199759
11161208182
11161215262
11161220389
11161228263
11161236563
11161243888
11161249259
11161257498
11161261771
11161271109
11161276297
11161283072
11161291800
11161298819
11161304373
11161312735
11161320059
11161327933
11161333914
11161339529
11161347769
11161355276
11161363394
11161370291
11161379629
11161383780
11161394461
11161399344
11161407706
11161415335
11161421194
11161426260
11161436148
11161445120
11161452688
11161458914
11161468741
11161475699
11161481131
11161490103
11161498648
11161505850
11161514395
11161523306
11161531057
11161538259
11161546804
11161553091
11161558584
11161565054
11161570974
11161577688
11161583669
11161591665
11161595083
11161602834
11161607717
11161614126
11161620657
11161625051
11161631094
11161637380
11161642507
11161647390
11161654226
11161659109
11161665090
11161670705
11161677419
11161682485
11161688589
11161694448
11161699880
11161704641
11161712881
11161717763
11161723562
11161729238
11161736074
11161745778
11161752370
11161756398
11161764333
11161770009
11161775258
11161779958
11161785878
11161791310
11161796010
11161800893
11161806874
11161811025
11161816823
11161822866
11161828603
11161833730
11161837575
11161842702
11161848683
11161854482
11161860097
11161867177
11161871266
11161879567
11161885365
11161891896
11161900380
11161909108
11161915334
11161923695
11161927968
11161935841
11161943105
11161952565
11161958058
11161966603
11161972645
11161980763
11161986073
11161994252
11162004140
11162012379
11162019459
11162025990
11162033009
11162041493
11162049977
11162057179
11162065907
11162073719
11162079762
11162086354
11162093678
11162101673
11162107167
11162112294
11162122792
11162133106
11162141835
11162149281
11162155506
11162162220
11162168568
11162176258
11162184254
11162192188
11162197743
11162211720
11162220692
11162230457
11162235584
11162244617
11162249805
11162257618
11162267322
11162276173
11162283985
11162291736
11162296924
11162305103
11162311390
11162316150
11162322986
11162331470
11162340137
11162347400
11162353138
11162359974
11162367054
11162373768
11162379993
11162386951
11162397449
11162403797
11162407764
11162417774
11162424366
11162431690
11162438587
11162443225
11162451221
11162459522
11162466297
11162472644
11162477893
11162486011
11162492603
11162500842
11162507678
11162512866
11162521533
11162530383
11162536243
11162544177
11162553210
11162562793
11162569873
11162577014
11162585437
11162594348
11162603747
11162609179
11162618457
11162626208
11162632800
11162639087
11162646167
11162653247
11162662280
11162670214
11162679736
11162686999
11162692187
11162699939
11162706530
11162714953
11162719531
11162727526
11162736682
11162746264
11162752917
11162761401
11162771349
11162776232
11162785082
11162794177
11162802233
11162811327
11162818469
11162828539
11162833361
11162842455
11162851549
11162859545
11162867602
11162875353
11162884814
11162890490
11162898913
11162907397
11162913805
11162922289
11162924608
11162933642
11162944628
11162949083
11162958483
11162967394
11162978319
11162985155
11162991991
11162999071
11163006334
11163014452
11163020372
11163029833
11163035387
11163044603
11163052294
11163060838
11163067369
11163076280
11163082689
11163091905
11163100633
11163107713
11163120714
11163132188
11163136522
11163145616
11163152757
11163160448
11163166856
11163176927
11163183031
11163190172
11163197557
11163200670
11163207017
11163214280
11163219774
11163224717
11163229234
11163237230
11163242784
11163247972
11163252366
11163259324
11163263414
11163268846
11163274705
11163278856
11163286058
11163290330
11163296250
11163301988
11163308091
11163313707
11163318284
11163323899
11163330735
11163336534
11163339280
11163346421
11163350816
11163356187
11163362351
11163367295
11163372788
11163377915
11163385606
11163390550
11163395921
11163401353
11163407212
11163413010
11163417466
11163426133
11163430711
11163435532
11163441819
11163448106
11163454148
11163458848
11163464158
11163471543
11163477341
11163482957
11163486924
11163492661
11163499192
11163503708
11163510239
11163514451
11163520188
11163528061
11163532761
11163538682
11163544175
11163550034
11163555405
11163559922
11163567612
11163572922
11163579636
11163585312
11163589707
11163595444
11163601731
11163606430
11163613755
11163619004
11163625351
11163631638
11163637314
11163643418
11163649338
11163655258
11163660568
11163665146
11163672226
11163676865
11163681442
11163687912
11163695297
11163698898
11163705673
11163711472
11163718491
11163725327
11163732529
11163740890
11163745712
11163751633
11163759201
11163765549
11163772079
11163778000
11163783127
11163788437
11163793442
11163798874
11163803573
11163809372
11163814682
11163821090
11163826095
11163831039
11163838791
11163848495
11163853439
11163860824
11163864853
11163872543
11163876937
11163885788
11163889022
11163896835
11163901351
11163906662
11163911972
11163917709
11163924972
11163931014
11163935165
11163939498
11163945846
11163951278
11163956832
11163961410
11163967208
11163972457
11163977828
11163982101
11163987594
11163993636
11163997970
11164005477
11164009322
11164014632
11164021651
11164027450
11164033858
11164039291
11164043380
11164049422
11164055648
11164061812
11164067489
11164072066
11164076583
11164082503
11164089400
11164093978
11164099593
11164106917
11164112716
11164117354
11164123275
11164128768
11164133284
11164138656
11164144820
11164150802
11164158980
11164163863
11164168868
11164175643
11164181258
11164186751
11164191085
11164197310
11164204329
11164209273
11164216475
11164222396
11164227645
11164233687
11164238875
11164243025
11164251082
11164255538
11164263045
11164269148
11164275618
11164281538
11164290877
11164297469
11164304732
11164311446
11164316634
11164324507
11164331221
11164338789
11164347334
11164356489
11164363631
11164370589
11164377669
11164388899
11164397261
11164405012
11164413923
11164419600
11164428145
11164432417
11164440657
11164450117
11164456770
11164465315
11164470442
11164478865
11164485212
11164491682
11164498701
11164506208
11164512373
11164517073
11164527204
11164534651
11164541487
11164548200
11164556196
11164561628
11164568830
11164576643
11164582319
11164591718
11164598188
11164604902
11164609602
11164617109
11164623212
11164631330
11164638044
11164643964
11164650678
11164657941
11164667646
11164673200
11164682111
11164686628
11164693708
11164701948
11164708112
11164717145
11164725080
11164731916
11164738141
11164746686
11164752057
11164759626
11164766462
11164773481
11164783551
11164793378
11164801129
11164808820
11164815412
11164822614
11164831159
11164838178
11164844892
11164852277
11164860333
11164867291
11164876569
11164883649
11164888898
11164896771
11164903424
11164911969
11164916547
11164924115
11164936261
11164943768
11164950482
11164958539
11164964886
11164972943
11164978070
11164985760
11164992413
11164998944
11165007428
11165015851
11165023541
11165030011
11165038739
11165043255
11165050457
11165058453
11165067120
11165073895
11165084637
11165091900
11165099163
11165105694
11165113385
11165119793
11165125408
11165133343
11165140057
11165150860
11165160870
11165167889
11165172894
11165181133
11165189129
11165196087
11165202557
11165209576
11165216717
11165226910
11165235760
11165246807
11165256206
11165262310
11165272014
11165279522
11165287334
11165294842
11165304363
11165314434
11165322796
11165328838
11165335186
11165341655
11165348613
11165355693
11165362957
11165368389
11165376934
11165382793
11165389690
11165394268
11165401470
11165408306
11165416118
11165421733
11165429058
11165438030
11165443523
11165450420
11165457378
11165465556
11165470928
11165479045
11165485576
11165491679
11165498393
11165506084
11165514384
11165520854
11165529338
11165537273
11165543498
11165550944
11165559550
11165568706
11165581218
11165590983
11165598430
11165607524
11165613505
11165621989
11165629069
11165633952
11165643718
11165652995
11165660380
11165668071
11165673503
11165681742
11165687968
11165694194
11165701335
11165708293
11165716715
11165724162
11165733927
11165738566
11165746623
11165755107
11165761515
11165770365
11165774943
11165783732
11165791178
11165798441
11165807475
11165815165
11165821146
11165829325
11165835978
11165842448
11165849711
11165857035
11165864847
11165871622
11165878519
11165886881
11165893168
11165899515
11165906107
11165913920
11165920755
11165927164
11165934671
11165941080
11165949625
11165956644
11165964823
11165969339
11165977274
11165985331
11165991617
11166000101
11166007669
11166014139
11166018350
11166027201
11166034464
11166040506
11166049234
11166053690
11166063455
11166071756
11166077799
11166085855
11166093118
11166102152
11166108560
11166119180
11166128091
11166137247
11166146280
11166154642
11166166177
11166173685
11166179971
11166185281
11166196695
11166203287
11166209695
11166216226
11166228433
11166234781
11166242471
