11540779293
11540785824
11540789547
11540794308
11540798031
11540802547
11540806209
11540809932
11540813717
11540817806
11540822323
11540827327
11540832271
11540836971
11540842708
11540846615
11540849971
11540854000
11540857357
11540861629
11540865780
11540870235
11540874202
11540878597
11540883968
11540888362
11540892696
11540898494
11540902767
11540908199
11540913387
11540918636
11540924739
11540929439
11540933895
11540938594
11540943172
11540948116
11540953426
11540958003
11540963191
11540967647
11540971858
11540977474
11540982662
11540987056
11540992366
11540997127
11541003169
11541010249
11541020869
11541026790
11541032710
11541039302
11541045650
11541050655
11541058711
11541065181
11541070064
11541075313
11541081599
11541087337
11541093074
11541097468
11541102839
11541108088
11541113826
11541117244
11541123774
11541130855
11541136775
11541143672
11541149409
11541155574
11541159907
11541167720
11541171992
11541178889
11541183467
11541192500
11541198970
11541204035
11541210749
11541215754
11541222041
11541227046
11541234553
11541240718
11541247187
11541253108
11541259333
11541265132
11541271296
11541276057
11541285822
11541291193
11541298151
11541304560
11541309809
11541315913
11541322688
11541328364
11541336604
11541341853
11541347773
11541353937
11541360102
11541366572
11541372797
11541380366
11541385309
11541392451
11541396845
11541403193
11541409723
11541416193
11541419306
11541427973
11541431452
11541440485
11541447199
11541452448
11541458551
11541464411
11541472040
11541478571
11541484735
11541489313
11541496759
11541501276
11541508783
11541513910
11541523615
11541528864
11541536676
11541541498
11541547846
11541552728
11541562311
11541568353
11541575800
11541582269
11541587885
11541594843
11541600397
11541607355
11541612909
11541618097
11541627863
11541631525
11541640802
11541646905
11541655328
11541662347
11541668573
11541677667
11541686151
11541692621
11541701532
11541709771
11541717157
11541723565
11541730096
11541737603
11541744378
11541751580
11541757684
11541764642
11541767816
11541777764
11541782281
11541792230
11541796991
11541804315
11541811029
11541816766
11541822625
11541830682
11541836541
11541843926
11541851068
11541858209
11541863580
11541871514
11541877129
11541884881
11541891473
11541899773
11541907708
11541914666
11541919854
11541927727
11541934441
11541939629
11541951043
11541958550
11541966363
11541973260
11541979180
11541986260
11541993889
11541999261
11542007989
11542015313
11542023186
11542028435
11542036370
11542041741
11542049065
11542056389
11542065300
11542071160
11542078850
11542085869
11542092888
11542098076
11542106316
11542112053
11542121269
11542126702
11542134270
11542141106
11542146355
11542153557
11542160820
11542168388
11542176872
11542184990
11542191338
11542198479
11542203423
11542212029
11542220268
11542227104
11542233391
11542242180
11542249138
11542255669
11542264213
11542270927
11542276726
11542285332
11542291435
11542302177
11542306389
11542317070
11542322868
11542329948
11542337578
11542344352
11542352348
11542358818
11542367607
11542373588
11542383171
11542397087
11542405937
11542416801
11542426383
11542435356
11542441276
11542449516
11542455009
11542464042
11542469657
11542477165
11542482597
11542493095
11542499259
11542505363
11542510856
11542519828
11542525932
11542535453
11542539420
11542549979
11542557609
11542563834
11542570670
11542578788
11542583610
11542591727
11542599845
11542607902
11542615836
11542622794
11542628348
11542636832
11542642997
11542649894
11542657279
11542666068
11542672110
11542680533
11542687552
11542694449
11542700431
11542708121
11542713919
11542724112
11542730521
11542738394
11542746085
11542752493
11542760306
11542765860
11542773551
11542782156
11542790213
11542796072
11542803763
11542811270
11542817068
11542824271
11542832815
11542839163
11542848685
11542856314
11542863089
11542869070
11542877493
11542883230
11542895621
11542899283
11542910391
11542916556
11542924551
11542930288
11542939871
11542945852
11542953665
11542959280
11542969839
11542975821
11542983755
11542991629
11542996267
11543004751
11543010671
11543019155
11543028921
11543036856
11543042410
11543051077
11543056448
11543065054
11543071523
11543078237
11543085134
11543094412
11543098623
11543106985
11543114675
11543124013
11543130849
11543139883
11543146047
11543158987
11543163442
11543174245
11543178335
11543190053
11543197561
11543206106
11543212575
11543220693
11543228139
11543235158
11543241079
11543248220
11543255971
11543261220
11543272145
11543278005
11543284841
11543291738
11543299489
11543304921
11543312551
11543318349
11543326894
11543334706
11543340749
11543347951
11543353871
11543360890
11543368642
11543374074
11543384572
11543391957
11543398549
11543403981
11543411305
11543418263
11543425160
11543430409
11543438588
11543445363
11543455739
11543463063
11543474721
11543482045
11543494496
11543502125
11543514821
11543521657
11543529347
11543535389
11543545277
11543551320
11543559742
11543565724
11543575734
11543581959
11543588368
11543593678
11543603443
11543610401
11543616810
11543622792
11543633351
11543640675
11543646839
11543653675
11543659901
11543666493
11543674427
11543677967
11543688221
11543695301
11543701405
11543706898
11543715443
11543720631
11543728504
11543733875
11543743519
11543749012
11543756580
11543761890
11543769337
11543776539
11543783802
11543788990
11543798084
11543805408
11543813099
11543818592
11543825428
11543832691
11543837940
11543845813
11543855091
11543863453
11543869861
11543877185
11543884937
11543892993
11543900684
11543908740
11543917041
11543925403
11543933704
11543941211
11543948413
11543953723
11543960864
11543968311
11543975696
11543981372
11543989185
11543996326
11544003894
11544009143
11544016894
11544022205
11544030505
11544038074
11544045093
11544050647
11544058337
11544065600
11544071033
11544078296
11544085681
11544093066
11544098742
11544105761
11544110827
11544118701
11544124133
11544132190
11544139819
11544147326
11544155322
11544160571
11544167956
11544175036
11544179614
11544187487
11544194262
11544202319
11544209460
11544216540
11544221606
11544229968
11544237902
11544244738
11544248950
11544259997
11544264513
11544273791
11544282580
11544289538
11544295458
11544303637
11544309679
11544321459
11544327929
11544334887
11544342577
11544349718
11544357470
11544363634
11544371264
11544380602
11544386767
11544392382
11544401171
11544406603
11544415392
11544420946
11544429613
11544437120
11544444017
11544451342
11544458178
11544464159
11544474108
11544479906
11544487963
11544493822
11544502489
11544510851
11544517015
11544524706
11544532274
11544538072
11544545641
11544553331
11544559129
11544568346
11544577074
11544583971
11544593370
11544603319
11544610399
11544621812
11544632555
11544641405
11544648302
11544656663
11544664720
11544671739
11544680589
11544686021
11544695665
11544703416
11544712388
11544719774
11544726426
11544733384
11544740159
11544746202
11544756517
11544762193
11544771714
11544777269
11544784532
11544789842
11544798387
11544804429
11544813767
11544819383
11544826951
11544834092
11544840806
11544846116
11544853684
11544861741
11544871812
11544877793
11544884324
11544892930
11544899949
11544906724
11544912034
11544920579
11544928086
11544935044
11544942612
11544951157
11544958237
11544964768
11544970688
11544978318
11544984055
11544992966
11545001206
11545009934
11545019639
11545028122
11545033921
11545040940
11545048508
11545056687
11545064621
11545070908
11545079697
11545085800
11545094773
11545100266
11545108933
11545115280
11545124436
11545134506
11545142868
11545149521
11545157883
11545165695
11545177658
11545185837
11545193161
11545200424
11545208115
11545215012
11545224716
11545231735
11545239548
11545246567
11545253647
11545262436
11545269882
11545278488
11545282394
11545292770
11545296554
11545308212
11545315780
11545322433
11545328903
11545337631
11545343246
11545351913
11545357833
11545366684
11545375289
11545385604
11545391952
11545400802
11545407821
11545419235
11545427474
11545435775
11545444381
11545452987
11545458968
11545465255
11545473190
11545479476
11545486678
11545494674
11545500411
11545508285
11545514999
11545522079
11545528976
11545535934
11545540755
11545548934
11545555587
11545563582
11545567183
11545577132
11545583480
11545590499
11545598678
11545607039
11545611922
11545619979
11545627242
11545633468
11545640792
11545646895
11545653487
11545662459
11545668685
11545674849
11545680159
11545687972
11545695601
11545702193
11545708235
11545718917
11545725386
11545734358
11545740096
11545747298
11545755171
11545761946
11545769515
11545777998
11545784590
11545793013
11545798750
11545806380
11545814009
11545819624
11545828291
11545832503
11545843245
11545850630
11545859419
11545866072
11545876509
11545883406
11545890425
11545896589
11545905317
11545911604
11545920454
11545926436
11545934675
11545940535
11545946333
11545955122
11545964765
11545970930
11545980207
11545986616
11545993574
11546002851
11546010176
11546019453
11546028730
11546036115
11546043501
11546050276
11546059980
11546066145
11546074323
11546080305
11546091962
11546098371
11546105207
11546113020
11546119550
11546128339
11546133771
11546143537
11546156354
11546163312
11546171918
11546178266
11546187360
11546195234
11546202253
11546208844
11546217756
11546225141
11546232160
11546239362
11546244916
11546252057
11546259442
11546264936
11546274091
11546281720
11546287824
11546294904
11546300214
11546308148
11546315289
11546322370
11546331586
11546338971
11546346600
11546352399
11546359662
11546365216
11546372662
11546379803
11546387860
11546395306
11546401471
11546410626
11546417584
11546425885
11546434796
11546443646
11546452008
11546460492
11546467389
11546475079
11546479657
11546488263
11546493817
11546502423
11546508954
11546518292
11546525677
11546533856
11546542462
11546550457
11546557537
11546565228
11546574383
11546580731
11546589215
11546594891
11546598675
11546610516
11546617535
11546624310
11546628460
11546639752
11546644024
11546654522
11546660687
11546669964
11546675945
11546683453
11546689190
11546698833
11546707073
11546713055
11546720867
11546728313
11546734051
11546740154
11546748882
11546757427
11546765606
11546771770
11546778423
11546785991
11546792644
11546798687
11546808574
11546816204
11546823894
11546830059
11546838115
11546846599
11546853252
11546859111
11546867717
11546873699
11546882183
11546890850
11546897808
11546906291
11546912700
11546921367
11546930400
11546936748
11546946574
11546954448
11546963786
11546971904
11546980876
11546987407
11546996684
11547002971
11547012614
11547018779
11547027202
11547032451
11547042033
11547047587
11547055827
11547061381
11547071025
11547077678
11547085551
11547090739
11547098491
11547105510
11547111796
11547119548
11547128154
11547136393
11547142863
11547151286
11547157328
11547164225
11547172526
11547179423
11547186747
11547193705
11547200663
11547209269
11547215739
11547222575
11547228373
11547237467
11547243266
11547252970
11547259074
11547266581
11547274332
11547282694
11547289469
11547297831
11547305949
11547315043
11547321390
11547330424
11547336832
11547345743
11547351664
11547359354
11547367045
11547375773
11547383951
11547391520
11547397318
11547406229
11547412149
11547418680
11547427286
11547433207
11547442057
11547450052
11547459024
11547465067
11547474344
11547481180
11547490763
11547499063
11547506876
11547514200
11547521890
11547528482
11547536295
11547542886
11547550760
11547561502
11547567667
11547574258
11547582803
11547589578
11547596536
11547604715
11547610696
11547614664
11547626260
11547633279
11547639932
11547643777
11547655862
11547661111
11547671182
11547677957
11547687295
11547694497
11547704202
11547713174
11547719400
11547725015
11547735269
11547741372
11547751260
11547756997
11547764199
11547769815
11547777200
11547784219
11547791482
11547796914
11547805764
11547813149
11547819497
11547826699
11547834023
11547839456
11547846963
11547854226
11547860757
11547869119
11547874795
11547883462
11547889016
11547899087
11547905801
11547912698
11547919900
11547929482
11547936196
11547943032
11547948891
11547956948
11547962685
11547972268
11547978127
11547988503
11547994545
11548002968
11548009011
11548017189
11548022866
11548031289
11548037697
11548045449
11548054787
11548063027
11548069069
11548075905
11548082924
11548089089
11548098915
11548105934
11548112831
11548119301
11548127480
11548135231
11548143349
11548149147
11548156654
11548164467
11548172585
11548178627
11548187538
11548193336
11548199379
11548208107
11548215858
11548221718
11548229164
11548238624
11548246254
11548253151
11548261024
11548267921
11548273659
11548282142
11548288429
11548297645
11548307045
11548313270
11548321266
11548329383
11548337074
11548344886
11548350990
11548358497
11548368019
11548376869
11548385719
11548393958
11548402503
11548408363
11548417701
11548425453
11548433997
11548441200
11548449744
11548457801
11548466285
11548471229
11548480384
11548490089
11548497962
11548507056
11548512427
11548520362
11548526160
11548536292
11548540198
11548549781
11548556556
11548564490
11548568030
11548577979
11548581824
11548590064
11548595435
11548607032
11548611121
11548620765
11548624305
11548633704
11548639075
11548646888
11548652442
11548662390
11548668250
11548675574
11548682471
11548688147
11548695960
11548702918
11548710608
11548717566
11548725684
11548730994
11548739722
11548746253
11548755103
11548762000
11548768835
11548777136
11548784338
11548791785
11548798621
11548806921
11548813757
11548819556
11548828161
11548834143
11548844824
11548851050
11548857397
11548865149
11548872229
11548879065
11548886755
11548894445
11548901098
11548910131
11548918982
11548927160
11548934057
11548942297
11548948706
11548957861
11548965673
11548972936
11548981115
11548989355
11548996923
11549004614
11549013098
11549020849
11549025182
11549038000
11549042333
11549051855
11549058080
11549068334
11549075109
11549082922
11549088964
11549097631
11549105871
11549113805
11549119543
11549127843
11549133703
11549140294
11549149022
11549155065
11549164098
11549173070
11549178991
11549186681
11549193456
11549197850
11549209325
11549213781
11549225927
11549234105
11549240514
11549248693
11549255223
11549258885
11549270421
11549276952
11549285069
11549292211
11549298497
11549305333
11549311498
11549316930
11549324132
11549331456
11549340489
11549346227
11549354039
11549359532
11549368260
11549373692
11549381566
11549386876
11549396825
11549402745
11549410985
11549416478
11549424107
11549431126
11549438817
11549444249
11549453099
11549458653
11549466893
11549472325
11549480198
11549485508
11549491551
11549499791
11549506443
11549515477
11549522984
11549529637
11549536229
11549542942
11549550938
11549557591
11549564549
11549573826
11549581883
11549589634
11549593479
11549602451
11549610325
11549617344
11549623142
11549633152
11549639317
11549645603
11549654392
11549660618
11549669224
11549674778
11549681431
11549689487
11549696751
11549705112
11549711948
11549719089
11549726047
11549731907
11549740207
11549748508
11549757786
11549764255
11549772617
11549778415
11549786533
11549794468
11549800815
11549806675
11549816013
11549824131
11549832065
11549837925
11549845554
11549852451
11549859287
11549865879
11549871860
11549883701
11549887973
11549896823
11549902744
11549912021
11549917819
11549924960
11549932712
11549942355
11549948764
11549957004
11549963046
11549972690
11549978976
11549985141
11549994784
11550002048
11550011081
11550020907
11550027621
11550035312
11550042575
11550050754
11550056613
11550065097
11550072848
11550079074
11550084445
11550091952
11550097812
11550106845
11550112277
11550122165
11550127719
11550135653
11550141635
11550150058
11550155856
11550163241
11550171115
11550179904
11550188265
11550194613
11550201632
11550209628
11550216219
11550223788
11550230380
11550238436
11550245516
11550254427
11550265353
11550273531
11550280794
11550289156
11550296175
11550305208
11550312228
11550320589
11550327669
11550334749
11550342196
11550348543
11550357577
11550364290
11550373873
11550380037
11550390291
11550397799
11550405611
11550412386
11550421236
11550428499
11550437593
11550444124
11550452852
11550459017
11550467806
11550474153
11550483675
11550490450
11550501436
11550508821
11550518099
11550525362
11550533296
11550541902
11550547456
11550558260
11550564668
11550573396
11550581453
11550589815
11550597017
11550604707
11550612764
11550619234
11550629304
11550636445
11550643281
11550650056
11550658784
11550667817
11550675630
11550683503
11550691255
11550697419
11550705232
11550713594
11550723848
11550737825
11550745454
11550754914
11550763398
11550769929
11550779145
11550785371
11550795869
11550801545
11550809785
11550815766
11550823823
11550829987
11550838899
11550844636
11550855012
11550860810
11550868623
11550874543
11550882844
11550890595
11550898041
11550903840
11550910432
11550919037
11550925019
11550933625
11550940217
11550948639
11550954133
11550963532
11550969819
11550979096
11550985627
11550993012
11551002350
11551009797
11551014008
11551025177
11551031830
11551040863
11551049225
11551056427
11551064728
11551071015
11551079376
11551085541
11551094940
11551103912
11551110443
11551117401
11551126923
11551131195
11551142059
11551148346
11551157074
11551163422
11551172455
11551180695
11551187469
11551195953
11551201996
11551210419
11551219330
11551225799
11551232879
11551242218
11551249847
11551257354
11551263702
11551271515
11551279937
11551287079
11551295440
11551304473
11551310760
11551319061
11551327545
11551334869
11551342315
11551346466
11551356170
11551362823
11551372711
11551379058
11551388641
11551394988
11551404022
11551410613
11551419341
11551428314
11551437103
11551443389
11551449859
11551459258
11551467864
11551474578
11551482207
11551489471
11551498565
11551506072
11551514251
11551522552
11551529693
11551538726
11551545806
11551555449
11551565032
11551574309
11551582854
11551591704
11551597869
11551606963
11551614714
11551622039
11551629790
11551637175
11551644683
11551651152
11551658904
11551665740
11551673430
11551679106
11551687773
11551693327
11551705290
11551712004
11551720488
11551729765
11551735869
11551743254
11551752470
11551761626
11551769865
11551775603
11551784636
11551791716
11551798735
11551806547
11551815764
11551820158
11551830229
11551836516
11551845854
11551851957
11551861601
11551867888
11551875700
11551884062
11551892973
11551901396
11551909574
11551915251
11551922575
11551930326
11551936369
11551944914
11551949674
11551959562
11551967130
11551973905
11551979521
11551988493
11551994230
11552001798
11552009611
11552020597
11552027067
11552034330
11552042875
11552051786
11552058195
11552067228
11552074247
11552084257
11552090482
11552099393
11552106229
11552115568
11552122342
11552131437
11552140653
11552148099
11552154386
11552163114
11552169278
11552178190
11552184232
11552193143
11552199369
11552208463
11552214749
11552223416
11552232755
11552241239
11552248197
11552257047
11552265470
11552272855
11552281705
11552289273
11552297452
11552304471
11552312711
11552319119
11552328580
11552339566
11552346829
11552355374
11552362271
11552372830
11552378934
11552387540
11552394070
11552405057
11552408841
11552418118
11552423855
11552433865
11552439908
11552448208
11552453946
11552462613
11552470120
11552477078
11552484890
11552490811
11552498562
11552503811
11552512295
11552521328
11552528836
11552533902
11552542507
11552549526
11552556423
11552563442
11552571987
11552575894
11552586147
11552593044
11552599880
11552605679
11552615688
11552621975
11552630276
11552638760
11552646511
11552654629
11552661221
11552669643
11552675320
11552684597
11552690639
11552700100
11552711147
11552720791
11552728237
11552735561
11552743496
11552750942
11552755336
11552766689
11552773037
11552780605
11552788967
11552797206
11552803737
11552810268
11552819728
11552825038
11552834377
11552842006
11552849391
11552858180
11552865566
11552869777
11552879482
11552885829
11552895778
11552904262
11552912746
11552919032
11552927882
11552934230
11552940578
11552950038
11552958644
11552965053
11552973292
11552980800
11552987208
11552996791
11553003078
11553011928
11553020289
11553027553
11553036708
11553045802
11553051967
11553061244
11553067592
11553073817
11553083339
11553091700
11553097987
11553106959
11553114344
11553120509
11553131129
11553137965
11553147120
11553153956
11553164088
11553174159
11553182948
11553192591
11553206812
11553213709
11553221705
11553229029
11553236170
11553245631
11553249964
11553260218
11553266749
11553272974
11553278162
11553290797
11553297144
11553307093
11553314234
11553320460
11553325709
11553334681
11553340052
11553347803
11553353235
11553363245
11553367212
11553376612
11553381861
11553389063
11553396265
11553402491
11553409510
11553416651
11553424341
11553430078
11553437281
11553443689
11553450830
11553456507
11553464319
11553470545
11553479090
11553485193
11553493738
11553502222
11553510462
11553518091
11553526819
11553535486
11553543542
11553552026
11553560510
11553569055
11553575525
11553584436
11553590906
11553600366
11553606653
11553613733
11553623193
11553629785
11553642114
11553648340
11553657922
11553667382
11553675378
11553681726
11553690026
11553696252
11553705529
11553711450
11553720605
11553725000
11553735925
11553743005
11553749658
11553755822
11553764184
11553769799
11553778771
11553786828
11553796288
11553802697
11553811120
11553816674
11553824609
11553832238
11553838219
11553845971
11553853173
11553862328
11553869225
11553876916
11553882836
11553889550
11553898095
11553907372
11553917260
11553926049
11553935509
11553943749
11553949669
11553959618
11553967797
11553973900
11553983300
11553992760
11553998803
11554005638
11554012780
11554021447
11554025414
11554034325
11554040245
11554051781
11554058312
11554067833
11554073937
11554083702
11554089928
11554098168
11554106041
11554115196
11554121361
11554128807
11554135582
11554139915
11554148399
11554155113
11554162437
11554167503
11554177757
11554183494
11554191002
11554200340
11554208031
11554214989
11554223717
11554230491
11554238731
11554248131
11554254417
11554262901
11554268760
11554276329
11554284385
11554291954
11554300315
11554306724
11554314353
11554322288
11554328086
11554336570
11554342491
11554351219
11554359702
11554368614
11554378013
11554385398
11554394065
11554402366
11554410728
11554418723
11554427146
11554434531
11554443626
11554450767
11554459006
11554466025
11554473533
11554482444
11554490378
11554496726
11554505454
11554511985
11554520835
11554524680
11554533042
11554538779
11554549521
11554553977
11554563010
11554570884
11554577292
11554584861
11554592368
11554598349
11554607932
11554613974
11554622946
11554628867
11554636862
11554642722
11554650412
11554657126
11554665427
11554672568
11554676901
11554690207
11554699179
11554707724
11554718527
11554725607
11554736777
11554744894
11554753622
11554762778
11554770834
11554777609
11554785971
11554794394
11554800741
11554809286
11554815756
11554822348
11554829733
11554836325
11554840109
11554851156
11554858664
11554866598
11554874044
11554880331
11554890951
11554897055
11554905416
11554914022
11554921591
11554928121
11554937582
11554944113
11554954366
11554960775
11554969442
11554975973
11554985555
11554991781
11555000936
11555007345
11555016317
11555022665
11555031026
11555040670
11555047018
11555054647
11555060751
11555070028
11555076192
11555085897
11555092184
11555100240
11555108602
11555114522
11555122152
11555128805
11555135396
11555143758
11555150472
11555154622
11555165914
11555173726
11555180379
11555187032
11555193746
11555199483
11555208516
11555214376
11555225423
11555229695
11555239949
11555245748
11555253255
11555260823
11555268147
11555273946
11555284322
11555290486
11555298299
11555306599
11555315389
11555325154
11555332173
11555341084
11555348531
11555357075
11555364033
11555371480
11555378743
11555386128
11555395100
11555399495
11555411580
11555417988
11555424885
11555434590
11555441609
11555448506
11555456624
11555465290
11555476460
11555485920
11555493428
11555501728
11555512104
11555519551
11555526875
11555535542
11555545552
11555553364
11555559101
11555566425
11555575215
11555580586
11555589069
11555596577
11555603291
11555607014
11555618732
11555626057
11555632832
11555640827
11555647907
11555655231
11555662617
11555668293
11555678242
11555685444
11555692097
11555698078
11555706623
11555712787
11555721332
11555729572
11555739216
11555745929
11555755146
11555761676
11555771137
11555777362
11555788410
11555794757
11555803669
11555810260
11555818683
11555827045
11555834796
11555842182
11555848773
11555858112
11555865375
11555872821
11555881366
11555888751
11555895160
11555904804
11555911151
11555919940
11555926227
11555935260
11555943805
11555950580
11555958881
11555964862
11555973346
11555980609
11555990130
11555995868
11556005450
11556013934
11556020099
11556027667
11556035174
11556045184
11556052447
11556060382
11556067645
11556077044
11556084246
11556091937
11556099200
11556105365
11556116656
11556123797
11556131243
11556137652
11556148028
11556155413
11556162432
11556169024
11556179949
11556186236
11556195147
11556201556
11556209551
11556218157
11556224627
11556233538
11556243304
11556249529
11556257220
11556268572
11556279619
11556291277
11556301043
11556312029
11556321062
11556331072
11556339922
11556348101
11556355974
11556362261
11556371843
11556377153
11556385332
11556394792
11556401689
11556407671
11556416521
11556422197
11556431841
11556437639
11556446794
11556452532
11556460344
11556466142
11556476213
11556482012
11556490312
11556495927
11556503862
11556511552
11556519182
11556526811
11556533342
11556540971
11556547868
11556555559
11556562517
11556570878
11556577836
11556584489
11556590959
11556599504
11556604753
11556613786
11556621110
11556627702
11556636674
11556643998
11556651567
11556659135
11556665422
11556675859
11556682206
11556691484
11556697953
11556707902
11556714311
11556722795
11556731339
11556738969
11556747514
11556754411
11556762406
11556771134
11556777238
11556783585
11556792680
11556801408
11556809953
11556816422
11556825028
11556834122
11556840226
11556848283
11556856156
11556864579
11556871049
11556879471
11556887650
11556894059
11556902237
11556908280
11556917618
11556926713
11556935074
11556942337
11556950455
11556956742
11556964798
11556973099
11556981400
11556989151
11556997574
11557005204
11557011246
11557019608
11557025772
11557033097
11557042435
11557054825
11557060928
11557071793
11557081863
11557088883
11557094864
11557103165
11557111649
11557123245
11557131668
11557137527
11557144791
11557153397
11557158584
11557167068
11557175308
11557182022
11557188797
11557197342
11557201431
11557211685
11557218948
11557225601
11557231460
11557240738
11557246658
11557256729
11557261123
11557271621
11557277420
11557284378
11557292251
11557300552
11557306411
11557314346
11557322097
11557327835
11557337173
11557343398
11557351394
11557357986
11557366470
11557375930
11557382400
11557390395
11557398879
11557406753
11557413467
11557421828
11557429336
11557437209
11557444900
11557452041
11557461501
11557465713
11557476821
11557481032
11557491836
11557500258
11557508498
11557514907
11557523330
11557531691
11557536452
11557545729
11557551772
11557560866
11557569960
11557578871
11557587355
11557596755
11557605849
11557613112
11557624648
11557631423
11557638686
11557647902
11557654677
11557661940
11557670180
11557677504
11557687026
11557694289
11557702040
11557708693
11557714552
11557722975
11557728834
11557737013
11557744948
11557752760
11557760817
11557767103
11557774916
11557781080
11557788954
11557794935
11557803541
11557809950
11557819349
11557828138
11557834242
11557841810
11557850721
11557857435
11557864698
11557874464
11557882704
11557892713
11557899977
11557906935
11557916883
11557921583
11557930921
11557939588
11557948133
11557954237
11557962904
11557969923
11557976698
11557985365
11557994642
11558002515
11558011182
11558016737
11558025831
11558034986
11558043409
11558052015
11558058423
11558068799
11558074537
11558081861
11558090223
11558096876
11558102796
11558110914
11558117078
11558126966
11558133069
11558142102
11558148572
11558158033
11558167127
11558174390
11558180616
11558190137
11558197156
11558206800
11558213941
11558222791
11558228223
11558236951
11558244214
11558254956
11558261487
11558269544
11558278394
11558287305
11558294995
11558300000
11558311414
11558318799
11558327527
11558334546
11558342358
11558349988
11558357922
11558367932
11558374585
11558383984
11558392102
11558400586
11558408703
11558414685
11558424756
11558431897
11558443066
11558451672
11558458020
11558467358
11558473095
11558483349
11558491894
11558500439
11558508984
11558515148
11558524548
11558528637
11558539807
11558547558
11558555981
11558564404
11558570751
11558580395
11558587292
11558597485
11558608593
11558617260
11558627148
11558636669
11558643383
11558653576
11558663463
11558671398
11558677807
11558685436
11558693126
11558698559
11558705944
11558713024
11558719738
11558727062
11558733410
11558740429
11558748607
11558755748
11558761486
11558768505
11558775524
11558783092
11558790660
11558796031
11558801403
11558809581
11558815868
11558823985
11558830516
11558838817
11558846080
11558854320
11558862987
11558869151
11558878551
11558884593
11558894542
11558900218
11558910106
11558916026
11558926097
11558933299
11558940318
11558948863
11558957957
11558964671
11558971507
11558980540
11558987742
11558994578
11559004222
11559010508
11559019969
11559025767
11559033885
11559039195
11559047862
11559053599
11559062205
11559067515
11559077464
11559084239
11559092417
11559096202
11559105967
11559111827
11559120005
11559125193
11559133189
11559139170
11559146800
11559155100
11559161204
11559167002
11559174265
11559181529
11559189219
11559194956
11559202952
11559211131
11559217844
11559225718
11559232554
11559240183
11559249216
11559255198
11559263499
11559269358
11559275461
11559284006
11559290964
11559297678
11559305308
11559314463
11559320871
11559329722
11559339731
11559348948
11559354807
11559361948
11559371775
11559380320
11559387949
11559395456
11559403696
11559411569
11559418222
11559425302
11559435617
11559442026
11559450144
11559453928
11559464365
11559467905
11559477304
11559485056
11559491830
11559498666
11559506540
11559510141
11559518686
11559524179
11559532541
11559537973
11559548410
11559552560
11559561166
11559566354
11559575693
11559581064
11559588083
11559593515
11559602914
11559608712
11559617502
11559623727
11559632211
11559638131
11559646066
11559651986
11559662301
11559670236
11559677255
11559683175
11559691598
11559697213
11559704598
11559711312
11559719125
11559728036
11559732491
11559742745
11559751412
11559758309
11559766732
11559776681
11559783883
11559790963
11559799630
11559807015
11559815438
11559824837
11559831551
11559840829
11559848031
11559857308
11559863656
11559871224
11559879159
11559886666
11559895882
11559903328
11559909615
11559919259
11559925545
11559934700
11559941231
11559949776
11559956368
11559962899
11559972481
11559978646
11559988350
11559994942
11560004219
11560011849
11560019112
11560023445
11560033455
11560039803
11560051155
11560057564
11560066109
11560071785
11560079536
11560087898
11560094795
11560103340
11560109932
11560120918
11560129585
11560139168
11560148262
11560154426
11560164558
11560171272
11560185982
11560191658
11560198311
11560205574
11560212227
11560219795
11560228279
11560235298
11560241951
11560248726
11560257392
11560264289
11560270881
11560278266
11560284919
11560290840
11560300605
11560306770
11560316474
11560322273
11560329597
11560337409
11560344062
11560351753
11560358711
11560366889
11560373786
11560382148
11560388129
11560397651
11560404792
11560411262
11560419746
11560426459
11560433967
11560440620
11560449164
11560456428
11560460822
11560470832
11560477241
11560486579
11560495002
11560500800
11560510138
11560515509
11560525031
11560533271
11560539740
11560548896
11560556037
11560560126
11560570197
11560577582
11560588874
11560599738
11560607062
11560616156
11560624091
11560630560
11560637824
11560645453
11560650641
11560658881
11560664191
11560674262
11560679877
11560687506
11560692877
11560701422
11560706671
11560713934
11560720892
11560728339
11560735846
11560742071
11560749701
11560756170
11560764776
11560770453
11560777167
11560781012
11560794134
11560801397
11560808111
11560815374
11560822088
11560827826
11560836615
11560842352
11560853338
11560859747
11560868109
11560879949
11560889593
11560899847
11560909429
11560920904
11560928900
11560937322
11560944952
11560954717
11560963506
11560971929
11560979925
11560986028
11560995184
11561003606
11561008977
11561018316
11561024602
11561034002
11561040227
11561049688
11561058538
11561064886
11561069097
11561080999
11561085149
11561096502
11561100713
11561111821
11561118108
11561126409
11561134893
11561143377
11561149663
11561158696
11561165288
11561174260
11561180791
11561188603
11561196050
11561203435
11561212834
11561216985
11561227849
11561234685
11561243474
11561247441
11561258061
11561264226
11561273137
11561278874
11561286870
11561294560
11561302495
11561309880
11561316838
11561324956
11561331670
11561339909
11561346806
11561355351
11561361394
11561370915
11561379277
11561385624
11561394047
11561401616
11561409062
11561416569
11561422856
11561432194
11561440556
11561448429
11561454899
11561462895
11561470402
11561476750
11561486149
11561495182
11561501713
11561510746
11561518070
11561522526
11561533695
11561537907
11561547550
11561554081
11561565556
11561571781
11561580936
11561587345
11561595402
11561603703
11561610477
11561618900
11561626957
11561635013
11561642948
11561649418
11561658451
11561664860
11561674564
11561681766
11561691593
11561703861
11561712223
11561718753
11561728580
11561735477
11561746463
11561753299
11561766849
11561775272
11561784976
11561793582
11561799991
11561808536
11561817020
11561821842
11561831363
11561840335
11561846561
11561854800
11561862247
11561870364
11561877689
11561885440
11561897830
11561901920
11561912784
11561917300
11561928531
11561935000
11561942752
11561951297
11561958316
11561965884
11561973636
11561979373
11561987735
11561993594
11562001712
11562009341
11562017581
11562023257
11562031985
11562037783
11562044741
11562053286
11562059024
11562067507
11562073123
11562081729
11562088137
11562095095
11562101504
11562110598
11562117007
11562127078
11562133425
11562142947
11562151247
11562158267
11562166811
11562173525
11562182131
11562189211
11562196474
11562205630
11562213076
11562221133
11562228335
11562234621
11562243838
11562250185
11562259768
11562265993
11562275942
11562282351
11562290346
11562298830
11562306582
11562313112
11562319704
11562329165
11562336794
11562346193
11562354311
11562360537
11562367494
11562376345
11562382204
11562391115
11562399599
11562408144
11562414125
11562423158
11562431337
11562439577
11562446535
11562454530
11562462038
11562470338
11562479066
11562485048
11562491945
11562502626
11562509157
11562519105
11562525819
11562536500
11562544313
11562554872
11562563783
11562570619
11562579652
11562587037
11562595765
11562603456
11562610475
11562618470
11562625184
11562632814
11562641053
11562646913
11562655824
11562664003
11562670655
11562679078
11562686402
11562694032
11562699647
11562708131
11562714356
11562723145
11562728639
11562737183
11562743897
11562750611
11562757142
11562766175
11562773377
11562782105
11562788758
11562796021
11562802491
11562811707
11562818116
11562827149
11562835572
11562842530
11562850770
11562857300
11562865662
11562872254
11562881531
11562887024
11562896424
11562900879
11562911927
11562919312
11562926514
11562932801
11562942017
11562948365
11562957337
11562963562
11562972779
11562981201
11562989258
11562995606
11563003784
11563012146
11563017517
11563026917
11563036560
11563043762
11563051148
11563058472
11563065064
11563073120
11563079346
11563090027
11563096558
11563104980
11563113159
11563119995
11563128418
11563133789
11563143188
11563151916
11563158386
11563166748
11563176574
11563182068
11563191589
11563198974
11563206298
11563212890
11563221496
11563229919
11563238159
11563244384
11563253540
11563260009
11563266357
11563275695
11563284240
11563290588
11563298583
11563309387
11563318603
11563329528
11563339782
11563347106
11563354675
11563364196
11563374877
11563383483
11563392272
11563398498
11563407409
11563413879
11563422423
11563428710
11563437255
11563445373
11563451293
11563459472
11563467040
11563472411
11563480895
11563487243
11563496215
11563500365
11563511290
11563518065
11563524840
11563532042
11563538634
11563544432
11563554137
11563559935
11563568846
11563574767
11563582884
11563588622
11563597411
11563603697
11563612059
11563620421
11563627379
11563635802
11563642394
11563649840
11563657164
11563666624
11563674864
11563682005
11563689391
11563696776
11563706175
11563713621
11563719847
11563728514
11563734923
11563742369
11563750670
11563757139
11563766722
11563772276
11563781553
11563785765
11563797484
11563804930
11563812132
11563818480
11563828367
11563834837
11563843199
11563849668
11563858702
11563865110
11563874327
11563882505
11563889158
11563897581
11563903562
11563912840
11563920408
11563927732
11563936460
11563946653
11563954771
11563962095
11563966367
11563977842
11563984129
11563992063
11564000974
11564007993
11564016355
11564025022
11564031431
11564037717
11564047300
11564053220
11564062620
11564071775
11564079404
11564086484
11564093992
11564100278
11564109433
11564116574
11564125180
11564133298
11564148618
11564155576
11564162412
11564170774
11564179441
11564186093
11564194821
11564202573
11564210019
11564214963
11564223386
11564230405
11564237058
11564243588
11564252072
11564258969
11564267697
11564274594
11564281247
11564286984
11564295407
11564301144
11564310483
11564316281
11564325192
11564330990
11564338620
11564346249
11564352231
11564360043
11564367978
11564375790
11564383725
11564389584
11564397397
11564405331
11564413021
11564420773
11564426815
11564435055
11564442929
11564450558
11564456845
11564464535
11564472164
11564477963
11564484493
11564493160
11564501278
11564508541
11564515011
11564523678
11564527584
11564538326
11564545590
11564552853
11564559078
11564567501
11564575863
11564584347
11564590939
11564599056
11564605282
11564612545
11564621883
11564629635
11564636959
11564641353
11564651424
11564657650
11564667354
11564674679
11564684200
11564690487
11564696590
11564707821
11564715389
11564724605
11564733516
11564739803
11564749141
11564756160
11564764705
11564772212
11564780086
11564787654
11564795833
11564803035
11564809322
11564819087
11564825435
11564835689
11564841975
11564849971
11564858333
11564864558
11564872920
11564878841
11564888240
11564896480
11564906612
11564915645
11564923518
11564934199
11564943538
11564952266
11564958308
11564968562
11564974849
11564984919
11564990840
11564999629
11565005549
11565013057
11565020625
11565028682
11565034297
11565041804
11565049555
11565057368
11565063105
11565070918
11565078547
11565084712
11565093623
11565101557
11565107478
11565114314
11565122981
11565129450
11565136286
11565142268
11565151484
11565158381
11565165156
11565170954
11565179438
11565185297
11565195185
11565201350
11565209467
11565217036
11565223383
11565231806
11565238703
11565246454
11565252009
11565260492
11565268305
11565274531
11565281855
11565291315
11565298456
11565305780
11565313654
11565321100
11565327326
11565338312
11565344538
11565352655
11565359064
11565367914
11565376520
11565383295
11565391718
11565397821
11565407160
11565415277
11565421625
11565429987
11565437189
11565443658
11565453851
11565461176
11565470575
11565476739
11565484918
11565493219
11565501459
11565507806
11565516229
11565522760
11565531244
11565541009
11565546014
11565555536
11565564142
11565571588
11565577874
11565585809
11565594110
11565602777
11565609124
11565617974
11565624261
11565632501
11565640863
11565646600
11565655938
11565663323
11565670770
11565678338
11565685845
11565692071
11565703423
11565710381
11565719415
11565726128
11565735650
11565742852
11565751641
11565760064
11565765557
11565775445
11565784539
11565790887
11565798028
11565806817
11565810845
11565821587
11565825493
11565835686
11565839593
11565849907
11565855767
11565865166
11565871026
11565878533
11565884270
11565894219
11565900017
11565907402
11565915215
11565923577
11565929253
11565937065
11565944878
11565952141
11565957878
11565965386
11565972954
11565979607
11565988213
11565994499
11566003105
11566008904
11566017387
11566023979
11566030937
11566037468
11566048882
11566055962
11566063469
11566069817
11566077995
11566086235
11566092766
11566101189
11566110039
11566116264
11566124443
11566132805
11566138298
11566147697
11566155510
11566162956
11566169243
11566177971
11566184440
11566193290
11566201591
11566209037
11566217582
11566223991
11566232353
11566240104
11566249504
11566256095
11566263298
11566270988
11566278373
11566284599
11566293022
11566301627
11566310661
11566316947
11566325492
11566332267
11566340812
11566347038
11566355582
11566364188
11566370475
11566380424
11566386771
11566396354
11566400687
11566409782
11566418754
11566426261
11566432670
11566444694
11566453055
11566462089
11566468436
11566476798
11566485343
11566492789
11566499259
11566507560
11566516349
11566527457
11566533805
11566544852
11566552115
11566562064
11566568228
11566578971
11566587515
11566597464
11566603751
11566612296
11566619681
11566625479
11566632376
11566641043
11566647757
11566656241
11566661246
11566669974
11566677054
11566683585
11566689322
11566699698
11566706900
11566713492
11566719229
11566727102
11566734915
11566742850
11566748526
11566758047
11566763723
11566771902
11566777823
11566785452
11566793936
11566801992
11566808523
11566817190
11566825796
11566831289
11566840872
11566848745
11566856375
11566860586
11566871755
11566878103
11566888601
11566894766
11566903066
11566911489
11566918020
11566926321
11566931875
11566941518
11566948293
11566957632
11566963979
11566971426
11566977895
11566986928
11566993276
11567001577
11567009878
11567017690
11567026235
11567033803
11567040212
11567048879
11567055349
11567062307
11567071828
11567079152
11567088796
11567094655
11567103810
11567110585
11567117726
11567125966
11567133107
11567142079
11567149526
11567158315
11567164418
11567172719
11567180409
11567188100
11567194020
11567204152
11567211415
11567215566
11567227284
11567231496
11567241322
11567248036
11567257558
11567263844
11567273183
11567281544
11567288563
11567297047
11567304188
11567313710
11567322682
11567331776
11567340504
11567350514
11567359913
11567368641
11567374012
11567383168
11567390370
11567398671
11567404347
11567413929
11567422535
11567428517
11567436085
11567442738
11567449818
11567458607
11567462574
11567473255
11567480580
11567487415
11567493214
11567500965
11567507313
11567515736
11567523548
11567531788
11567537220
11567545521
11567552601
11567558887
11567565968
11567573292
11567578968
11567585560
11567594593
11567603443
11567612171
11567619739
11567628040
11567637501
11567643909
11567652149
11567658130
11567664783
11567676197
11567683704
11567691700
11567698108
11567706592
11567715625
11567721668
11567729969
11567737598
11567744434
11567752552
11567760486
11567768176
11567776782
11567783008
11567792285
11567798145
11567806812
11567812854
11567820728
11567826953
11567834827
11567843860
11567850696
11567860644
11567869617
11567877551
11567885730
11567892261
11567901050
11567909289
11567916919
11567924426
11567931811
11567937610
11567945788
11567951770
11567959216
11567969958
11567975268
11567983874
11567992114
11567999865
11568005481
11568014209
11568018237
11568029589
11568036792
11568043505
11568051928
11568058642
11568065905
11568072985
11568078845
11568088915
11568095690
11568104174
11568110522
11568121264
11568127245
11568135241
11568142809
11568151476
11568157702
11568168566
11568174731
11568182116
11568190050
11568196093
11568203234
11568212389
11568217760
11568227282
11568234972
11568241564
11568250109
11568257067
11568266466
11568273607
11568282030
11568288622
11568296190
11568302782
11568311571
11568318346
11568322130
11568333788
11568337938
11568346788
11568352526
11568362291
11568368212
11568377794
11568387254
11568396410
11568402147
11568409532
11568416795
11568427049
11568432726
11568444383
11568448595
11568459337
11568466356
11568476060
11568484605
11568490892
11568501146
11568507493
11568514024
11568522508
11568532457
11568537340
11568544053
11568547227
11568554735
11568557786
11568566270
11568572557
11568578172
11568584214
11568589708
11568592820
11568600389
11568605333
11568613938
11568619432
11568623704
11568630906
11568635118
11568640794
11568644578
11568653428
11568657151
11568664048
11568669847
11568673570
11568680039
11568685044
11568692735
11568697678
11568704575
11568708909
11568715562
11568721421
11568725205
11568731797
11568738267
11568744736
11568750291
11568755906
11568761033
11568769456
11568779282
11568784836
11568792039
11568799119
11568806626
11568813279
11568819138
11568827012
11568832017
11568836167
11568840928
11568845566
11568849961
11568853440
11568859299
11568865159
11568869248
11568874192
11568879502
11568883347
11568888291
11568894699
11568900071
11568905136
11568910691
11568915390
11568920212
11568923325
11568928391
11568934067
11568939682
11568943527
11568949265
11568953293
11568958481
11568963181
11568967697
11568970322
11568979721
11568984848
11568989792
11568994309
11569000168
11569004135
11569010056
11569013962
11569022446
11569026657
11569033066
11569037216
11569042587
11569047714
11569052475
11569057541
11569063400
11569069260
11569073654
11569079452
11569085800
11569091171
11569098007
11569103012
11569109237
11569115280
11569119858
11569124923
11569130050
11569135177
11569139572
11569144882
11569150314
11569155990
11569161300
11569166977
11569171859
11569177169
11569181930
11569186996
11569192916
11569198898
11569204879
11569209152
11569214218
11569219284
11569223251
11569228927
11569233505
11569239669
11569244796
11569251205
11569256149
11569261764
11569265243
11569270919
11569276901
11569282455
11569288070
11569297775
11569305465
11569312240
11569315841
11569326949
11569333114
11569338424
11569343490
11569348495
11569354110
11569357528
11569363692
11569371749
11569377608
11569383773
11569391769
11569397872
11569401290
11569408248
11569412581
11569417342
11569422042
11569426742
11569431441
11569435958
11569441329
11569445296
11569450667
11569455306
11569459823
11569464583
11569469039
11569474898
11569479476
11569483260
11569487471
11569492842
11569496077
11569501632
11569505110
11569512801
11569517501
11569522078
11569526839
11569532698
11569537581
11569541793
11569545272
11569553694
11569556929
11569563033
11569567000
11569572371
11569576521
11569583479
11569587447
11569595747
11569598555
11569604903
11569608809
11569616133
11569620467
11569625777
11569631636
11569637679
11569643111
11569649397
11569653609
11569660750
11569665022
11569669966
11569675825
11569682356
11569687971
11569692366
11569698958
11569704207
11569710310
11569716231
11569721419
11569727766
11569732039
11569738997
11569746687
11569751692
11569754744
11569763594
11569769331
11569775557
11569782820
11569787275
11569793806
11569798078
11569801680
11569810041
11569814497
11569824263
11569830244
11569835920
11569841902
11569847334
11569850996
11569859480
11569864363
11569872602
11569876875
11569883405
11569885969
11569892439
11569896406
11569902326
11569907453
11569916486
11569921064
11569926984
11569930891
11569937727
11569942670
11569950666
11569954755
11569962385
11569966596
11569972455
11569976484
11569982160
11569986371
11569991926
11569997663
11570005109
11570011091
11570016706
11570022260
11570027448
11570031720
11570037824
11570042402
11570048139
11570054181
11570059308
11570065534
11570070417
11570077619
11570082990
11570090192
11570096234
11570103498
11570109296
11570113874
11570121747
11570126447
11570132123
11570138288
11570144513
11570148908
11570155499
11570160016
11570165143
11570170758
11570176373
11570181745
11570186566
11570195905
11570200848
11570207379
11570212262
11570217511
11570223798
11570228436
11570234052
11570241498
11570246442
11570252484
11570257611
11570262982
11570268048
11570272320
11570278180
11570284100
11570290753
11570296368
11570302350
11570306988
11570314251
11570319134
11570323895
11570327923
11570334698
11570342755
11570347638
11570352337
11570358807
11570363018
11570369671
11570374127
11570381024
11570390423
11570395794
11570404034
11570411480
11570416180
11570423626
11570430279
11570435711
11570443035
11570449505
11570456402
11570460919
11570467999
11570471295
11570479839
11570484905
11570489483
11570494793
11570501080
11570505779
11570512554
11570517498
11570525249
11570532452
11570538372
11570543743
11570549358
11570554790
11570560650
11570566570
11570572674
11570577251
11570582928
11570586956
11570593365
11570598980
11570603191
11570610210
11570615764
11570621563
11570626995
11570633098
11570638408
11570643108
11570649395
11570655193
11570660625
11570666546
11570672283
11570677227
11570683513
11570688274
11570693340
11570700298
11570705120
11570711772
11570716899
11570722576
11570727031
11570733440
11570737346
11570744060
11570748943
11570753581
11570759624
11570766338
11570771037
11570775920
11570781474
11570786662
11570793010
11570798381
11570805095
11570811137
11570816325
11570822307
11570828288
11570833781
11570838237
11570846721
11570852702
11570857158
11570863139
11570868754
11570874919
11570879924
11570882793
11570891398
11570896098
11570903666
11570909648
11570915080
11570920817
11570926494
11570931315
11570939006
11570945170
11570950236
11570955851
11570960246
11570965922
11570971782
11570977458
11570982585
11570990275
11570999614
11571004130
11571011271
11571016093
11571022074
11571028361
11571035075
11571039225
11571044718
11571048869
11571059001
11571064311
11571070658
11571075846
11571081706
11571086405
11571092753
11571097514
11571103861
11571107584
11571114603
11571117533
11571126444
11571130595
11571136576
11571141764
11571146708
11571152201
11571157145
11571161478
11571170267
11571173685
11571181498
11571188273
11571193278
11571198282
11571203226
11571207377
11571215311
11571220194
11571226786
11571231119
11571236246
11571242045
11571246561
11571252176
11571257059
11571265848
11571270975
11571275492
11571279947
11571286234
11571291544
11571296610
11571302835
11571309488
11571316324
11571321939
11571325052
11571333109
11571337931
11571342752
11571348978
11571356912
11571362833
11571367349
11571372904
11571377359
11571383035
11571388834
11571393106
11571398477
11571405130
11571408548
11571416849
11571419962
11571428079
11571432840
11571438699
11571444864
11571449991
11571456705
11571462320
11571467264
11571473672
11571478433
11571484292
11571489664
11571494424
11571503091
11571506143
11571513467
11571518106
11571524270
11571530679
11571536538
11571540628
11571547342
11571552896
11571563516
11571569558
11571575113
11571584451
11571589944
11571597512
11571604959
11571610696
11571616128
11571622109
11571626809
11571632607
11571636575
11571642739
11571648721
11571652627
11571658547
11571663247
11571668862
11571673013
11571675881
11571685769
11571689858
11571696511
11571701882
11571706887
11571711037
11571718179
11571722695
11571730019
11571735390
11571740334
11571744546
11571750832
11571756692
11571761635
11571767312
11571770913
11571777505
11571788552
11571794106
11571799294
11571804848
11571809487
11571814431
11571820168
11571826699
11571830544
11571836892
11571841958
11571846413
11571851662
11571856545
11571860634
11571868996
11571874123
11571881691
11571885903
11571891823
11571895974
11571901345
11571906838
11571913246
11571918801
11571924416
11571928932
11571933327
11571939553
11571942787
11571948952
11571954994
11571961647
11571967507
11571973427
11571977821
11571984169
11571988258
11571994362
11571999977
11572007607
11572013039
11572018044
11572024269
11572030067
11572033852
11572039589
11572043922
11572046669
11572055214
11572061012
11572066139
11572071022
11572076637
11572082130
11572086525
11572093849
11572099647
11572104713
11572110389
11572116615
11572121376
11572125465
11572133522
11572140480
11572147560
11572153480
11572160804
11572167884
11572173194
11572183448
11572190650
11572195411
11572199928
11572204933
11572210853
11572214393
11572221290
11572225501
11572234168
11572236915
11572243751
11572249854
11572254920
11572259376
11572266090
11572270912
11572277320
11572282813
11572288917
11572293250
11572298072
11572304054
11572309058
11572311744
11572321693
11572325904
11572331885
11572336463
11572341590
11572347144
11572352515
11572355323
11572363013
11572368445
11572374366
11572380164
11572384986
11572389991
11572393897
11572403419
11572409522
11572414161
11572418860
11572425391
11572430152
11572436499
11572441260
11572447974
11572454627
11572459510
11572464026
11572470740
11572475379
11572481055
11572488379
11572497534
11572502295
11572510230
11572515601
11572521338
11572526770
11572533484
11572536292
11572546424
11572551550
11572557166
11572563574
11572569434
11572574072
11572580847
11572585669
11572593237
11572599585
11572603308
11572610022
11572616187
11572620825
11572626624
11572631995
11572638708
11572645911
11572651221
11572659155
11572664282
11572669653
11572674353
11572681799
11572686438
11572694250
11572699560
11572705847
11572712622
11572721533
11572726050
11572732641
11572738257
11572748938
11572752661
11572760839
11572764502
11572771765
11572776220
11572783300
11572787390
11572794470
11572798925
11572804663
11572809179
11572813574
11572819738
11572824499
11572831213
11572836828
11572843969
11572848852
11572854162
11572860510
11572865453
11572870336
11572875402
11572879919
11572887365
11572892248
11572898779
11572903234
11572909338
11572913793
11572919592
11572923864
11572929418
11572937231
11572942297
11572948949
11572953588
11572959753
11572965917
11572973241
11572976659
11572986181
11572989965
11572996923
11573001623
11573009130
11573014257
11573021947
11573026769
11573034032
11573038915
11573044835
11573051061
11573055639
11573061986
11573066320
11573072667
11573078466
11573085729
11573092504
11573097570
11573102941
11573108007
11573114110
11573119298
11573122106
11573131200
11573137059
11573142064
11573147252
11573152257
11573156651
11573162633
11573168370
11573174779
11573180943
11573185704
11573191380
11573195958
11573201695
11573205357
11573212010
11573217198
11573222386
11573228368
11573233800
11573239903
11573244786
11573249181
11573256261
11573260594
11573268590
11573273167
11573278844
11573285069
11573290562
11573294591
11573301060
11573307103
11573314427
11573320530
11573326024
11573335606
11573339207
11573346226
11573352208
11573358494
11573364537
11573369358
11573374913
11573380223
11573385594
11573390965
11573395970
11573399937
11573405796
11573412083
11573418247
11573424229
11573429356
11573435581
11573441441
11573447605
11573453098
11573458958
11573464695
11573469212
11573476902
11573481480
11573487522
11573493687
11573499668
11573505833
11573511692
11573515964
11573521702
11573526157
11573531650
11573536533
11573539402
11573549351
11573553745
11573561375
11573568088
11573572971
11573578647
11573586155
11573592930
11573599094
11573603550
11573610569
11573613926
11573622348
11573627842
11573633335
11573638096
11573646640
11573650486
11573657810
11573662571
11573669468
11573674167
11573680149
11573685092
11573688144
11573699131
11573704074
11573710056
11573716220
11573721836
11573726718
11573733249
11573739719
11573747592
11573753635
11573759250
11573763950
11573770053
11573774936
11573780124
11573786716
11573791476
11573798496
11573803378
11573809055
11573815585
11573820285
11573825595
11573830600
11573837314
11573842136
11573847079
11573853732
11573859836
11573865329
11573868381
11573875216
11573879611
11573886203
11573891086
11573897128
11573904513
11573910800
11573917087
11573921725
11573928073
11573936313
11573941806
11573947299
11573954135
11573960849
11573966159
11573971041
11573975802
11573980319
11573988681
11573994357
11573999484
11574003634
11574010226
11574014681
11574020114
11574025973
11574033297
11574038119
11574044467
11574050082
11574054843
11574060763
11574064913
11574071444
11574076571
11574083651
11574088534
11574094759
11574100069
11574105013
11574110262
11574115328
11574122225
11574128023
11574131441
11574138155
11574142489
11574149569
11574153902
11574159579
11574165255
11574170443
11574176241
11574181124
11574187044
11574192232
11574199556
11574206270
11574213534
11574218111
11574224947
11574231234
11574239168
11574243624
11574251680
11574258516
11574267549
11574273043
11574279879
11574285738
11574291658
11574296846
11574301912
11574307405
11574312593
11574318636
11574323763
11574329256
11574335604
11574338411
11574346102
11574351473
11574356539
11574361360
11574370882
11574376070
11574381258
11574386751
11574393526
11574399629
11574408235
11574414033
11574421053
11574426057
11574433504
11574438631
11574446077
11574451509
11574457246
11574462129
11574470552
11574475435
11574482698
11574488008
11574494356
11574499421
11574506196
11574513032
11574522249
11574529390
11574536958
11574542756
11574551362
11574557405
11574564485
11574569307
11574577302
11574582246
11574587556
11574592073
11574597322
11574601533
11574607453
11574611543
11574617585
11574622041
11574627961
11574632234
11574638520
11574642487
11574648957
11574651826
11574660005
11574663178
11574669648
11574674165
11574681001
11574685273
11574691682
11574696198
11574704438
11574709016
11574714936
11574720734
11574723908
11574730317
11574734894
11574741181
11574746735
11574752045
11574758454
11574762849
11574768891
11574774262
11574777619
11574786042
11574790680
11574798859
11574804169
11574811005
11574816132
11574821198
11574828400
11574833466
11574838715
11574844330
11574850800
11574855378
11574860749
11574863983
11574873261
11574876435
11574883698
11574890045
11574896515
11574901093
11574907074
11574911774
11574917389
11574924408
11574929230
11574933808
11574939728
11574944733
11574951386
11574957428
11574962982
11574968292
11574973358
11574978912
11574982819
11574988800
11574996246
11575001251
11575007233
11575012299
11575018524
11575022919
11575029388
11575035431
11575040253
11575046112
11575051849
11575056854
11575061676
11575068024
11575073578
11575080963
11575090057
11575096466
11575104278
11575110016
11575115448
11575124603
11575134002
11575140411
11575145843
11575152923
11575157684
11575163238
11575168853
11575173980
11575179840
11575185028
11575190521
11575195220
11575200653
11575207244
11575210296
11575217132
11575221771
11575232452
11575235931
11575243255
11575249481
11575256194
11575261443
11575268340
11575273650
11575279449
11575284881
11575291656
11575297149
11575303008
11575306853
11575314178
11575318633
11575325408
11575330047
11575337127
11575342925
11575348479
11575354949
11575360686
11575365752
11575374053
11575377105
11575383758
11575390777
11575396148
11575401397
11575406279
11575411162
11575418364
11575423674
11575429229
11575434539
11575440337
11575444732
11575451201
11575457366
11575466643
11575469817
11575478240
11575482573
11575488738
11575492949
11575497954
11575503997
11575508879
11575515898
11575521025
11575527983
11575532500
11575539397
11575548369
11575554045
11575560454
11575565154
11575571074
11575575163
11575582488
11575587126
11575593535
11575599638
11575605132
11575609465
11575613676
11575621001
11575623747
11575633513
11575640532
11575646940
11575653960
11575661406
11575667875
11575674345
11575682097
11575688566
11575700712
11575704558
11575717802
11575726652
11575735502
11575744413
11575751371
11575758085
11575767118
11575773405
11575781767
11575788908
11575796049
11575802214
11575810942
11575819303
11575828947
11575835111
11575839201
11575849272
11575855680
11575861234
11575870939
11575875700
11575886442
11575894743
11575900297
11575907377
11575916471
11575923551
11575931486
11575937406
11575944364
11575955900
11575963102
11575968656
11575978299
11575984281
11575991727
11575998380
11576002713
11576012479
11576019742
11576028043
11576032926
11576041593
11576048551
11576054654
11576062406
11576069669
11576077298
11576084073
11576092252
11576099149
11576106534
11576114347
11576118741
11576127103
11576136197
11576142911
11576149320
11576153653
11576164639
11576169766
11576179166
11576186185
11576193387
11576200772
11576204983
11576215665
11576222684
11576230801
11576237820
11576244656
11576250394
11576256741
11576264432
11576270901
11576277676
