11430515842
11430521030
11430527195
11430532017
11430537388
11430543308
11430548557
11430554966
11430559482
11430565281
11430571689
11430578037
11430582493
11430588474
11430595432
11430601047
11430606968
11430613193
11430619419
11430625156
11430630344
11430637180
11430643100
11430649448
11430656833
11430663547
11430667514
11430674716
11430681369
11430688999
11430693149
11430701267
11430708469
11430714084
11430721103
11430728549
11430735873
11430741977
11430748386
11430754977
11430763217
11430772311
11430780246
11430788486
11430800021
11430806735
11430813388
11430820285
11430824191
11430832431
11430838351
11430844577
11430852145
11430857028
11430862887
11430869723
11430875399
11430878756
11430886264
11430892428
11430898410
11430905062
11430911044
11430916964
11430923068
11430929476
11430934848
11430941928
11430947360
11430954928
11430960360
11430968295
11430974276
11430979891
11430985140
11430992770
11430998019
11431006014
11431012667
11431019320
11431025729
11431032015
11431038363
11431044711
11431051119
11431057589
11431063998
11431070345
11431076449
11431082796
11431088900
11431095125
11431100802
11431107271
11431114535
11431121309
11431126436
11431133211
11431139742
11431144991
11431152498
11431159090
11431166903
11431172945
11431179293
11431186373
11431192720
11431197176
11431204317
11431212130
11431218172
11431224031
11431230440
11431236971
11431243196
11431249666
11431256136
11431263582
11431269075
11431275606
11431280733
11431288179
11431293978
11431300508
11431307527
11431313692
11431320894
11431325716
11431333284
11431338411
11431345308
11431354036
11431361238
11431371980
11431377229
11431386751
11431394075
11431401399
11431408906
11431415376
11431421113
11431427461
11431435029
11431439851
11431447603
11431454377
11431460542
11431465791
11431473237
11431478730
11431485933
11431491304
11431499116
11431505830
11431513276
11431519624
11431525911
11431532807
11431539155
11431544404
11431552461
11431558564
11431565095
11431571809
11431578889
11431584687
11431591462
11431598359
11431605500
11431613068
11431620088
11431626191
11431633210
11431640900
11431646272
11431653901
11431660920
11431666779
11431673737
11431680207
11431687104
11431694367
11431701386
11431707734
11431714692
11431721467
11431728913
11431735505
11431742951
11431748383
11431758393
11431766633
11431775177
11431783783
11431789948
11431798249
11431806672
11431811493
11431821381
11431826386
11431836640
11431844574
11431851410
11431858307
11431866608
11431875092
11431882538
11431889191
11431897492
11431904389
11431913971
11431919098
11431927460
11431934235
11431943146
11431950165
11431957977
11431968475
11431974762
11431980255
11431989777
11431998443
11432004425
11432012970
11432018646
11432027374
11432037018
11432044037
11432052154
11432060455
11432067108
11432076629
11432085052
11432094268
11432104644
11432112396
11432121978
11432129608
11432136383
11432141693
11432150848
11432156646
11432164337
11432170562
11432178802
11432183013
11432193572
11432200347
11432207305
11432214141
11432221343
11432225921
11432235931
11432240386
11432249419
11432257903
11432263641
11432269927
11432278350
11432284698
11432293120
11432299346
11432307036
11432313506
11432321685
11432327971
11432335845
11432342071
11432349761
11432357940
11432364043
11432372283
11432378997
11432387175
11432394744
11432400969
11432407500
11432415129
11432423125
11432428984
11432437407
11432444914
11432452910
11432458647
11432466887
11432472563
11432481291
11432488982
11432497221
11432502959
11432510649
11432518156
11432525969
11432531645
11432539702
11432548735
11432557890
11432563994
11432572722
11432578947
11432587553
11432595427
11432603728
11432610014
11432617583
11432626005
11432634489
11432640593
11432649138
11432656950
11432663603
11432672941
11432683805
11432690397
11432699553
11432708281
11432716459
11432722624
11432731230
11432739591
11432746611
11432755400
11432760343
11432771025
11432775846
11432785246
11432792265
11432800138
11432808317
11432823026
11432830778
11432840055
11432848112
11432854276
11432863065
11432871793
11432878568
11432886808
11432892240
11432901395
11432909452
11432916959
11432922758
11432930326
11432938566
11432946134
11432952726
11432960416
11432967679
11432973294
11432979764
11432989225
11432994291
11433003934
11433008634
11433018277
11433024869
11433033719
11433040860
11433047208
11433053922
11433062100
11433068387
11433076383
11433084744
11433091641
11433098111
11433104886
11433113309
11433120206
11433125882
11433134000
11433141568
11433149136
11433156888
11433163663
11433171536
11433179043
11433186673
11433193570
11433201687
11433209988
11433216275
11433225247
11433231656
11433240262
11433248562
11433253750
11433263821
11433268765
11433279080
11433286160
11433293423
11433299710
11433308255
11433317044
11433324795
11433331448
11433340542
11433346951
11433354641
11433362942
11433371426
11433377651
11433382656
11433393643
11433398586
11433411282
11433416225
11433425808
11433439968
11433446621
11433453640
11433463772
11433472073
11433478725
11433486111
11433496059
11433501491
11433511440
11433518764
11433528835
11433534023
11433544521
11433551540
11433559536
11433567165
11433576320
11433583400
11433592311
11433600124
11433608242
11433615444
11433624721
11433631252
11433644557
11433648891
11433661586
11433669765
11433675807
11433683559
11433691432
11433699062
11433706691
11433712062
11433720119
11433728847
11433734828
11433743495
11433749232
11433755580
11433765773
11433770228
11433779872
11433784328
11433794276
11433798732
11433808192
11433814479
11433823451
11433828029
11433837977
11433845118
11433853114
11433857509
11433867640
11433875270
11433883326
11433888087
11433897486
11433903956
11433912928
11433917445
11433926234
11433932826
11433941920
11433949244
11433956690
11433962916
11433970789
11433977747
11433985438
11433992945
11434003382
11434011134
11434020716
11434026881
11434032862
11434042384
11434048792
11434056788
11434066553
11434072535
11434080652
11434088343
11434093714
11434102381
11434107081
11434116236
11434125269
11434132227
11434138514
11434146570
11434152857
11434161158
11434166956
11434174158
11434182886
11434191736
11434198511
11434206263
11434212244
11434220484
11434226404
11434234705
11434240625
11434249048
11434257044
11434264551
11434270349
11434277979
11434285730
11434293482
11434299341
11434306787
11434316492
11434322961
11434331018
11434337366
11434344629
11434350488
11434358545
11434365076
11434376245
11434383447
11434391687
11434398645
11434406396
11434415796
11434424035
11434431482
11434440942
11434445703
11434454065
11434460351
11434467798
11434473840
11434481836
11434488977
11434497522
11434503503
11434510095
11434516076
11434523095
11434530908
11434538476
11434547509
11434555261
11434561547
11434568139
11434575952
11434581078
11434588586
11434595605
11434601403
11434609460
11434615197
11434623803
11434629235
11434636193
11434643212
11434650475
11434656518
11434665429
11434671654
11434680260
11434688012
11434693871
11434701623
11434708947
11434714806
11434724511
11434732811
11434737328
11434746666
11434751244
11434760399
11434766808
11434773705
11434782189
11434789330
11434796532
11434805138
11434811425
11434818932
11434824913
11434833641
11434839745
11434847862
11434853966
11434861962
11434869591
11434875694
11434883446
11434891258
11434899315
11434907127
11434915489
11434923424
11434929161
11434936485
11434943138
11434949730
11434958336
11434965599
11434972557
11434982139
11434988609
11434995445
11435005699
11435013695
11435024559
11435029930
11435040306
11435048912
11435054893
11435062156
11435069053
11435075523
11435083458
11435091697
11435101524
11435108787
11435115257
11435122520
11435131980
11435139305
11435146263
11435156028
11435162986
11435172447
11435179588
11435185996
11435194541
11435200828
11435207847
11435213523
11435223472
11435229942
11435236167
11435243735
11435250938
11435256797
11435263877
11435269981
11435278892
11435284446
11435291892
11435299521
11435305442
11435313010
11435318259
11435326072
11435336387
11435342307
11435349692
11435355124
11435363669
11435368979
11435376365
11435383933
11435392356
11435398398
11435406882
11435414572
11435421408
11435427146
11435434470
11435442221
11435451865
11435460288
11435466635
11435474448
11435482138
11435489890
11435497336
11435503195
11435512595
11435520468
11435527975
11435535361
11435541830
11435548605
11435556906
11435562949
11435571799
11435580405
11435587424
11435595053
11435601523
11435607870
11435616171
11435622213
11435630453
11435639975
11435646444
11435654684
11435660543
11435665060
11435675253
11435683065
11435688803
11435697653
11435706137
11435710592
11435719808
11435726095
11435733358
11435739889
11435749288
11435756368
11435764547
11435771932
11435782064
11435787496
11435799093
11435804403
11435815939
11435821371
11435832601
11435837423
11435849203
11435857381
11435865194
11435872091
11435879598
11435886922
11435896688
11435904928
11435915243
11435920553
11435931600
11435941243
11435950094
11435958150
11435995992
11436003743
11436010640
11436016439
11436024861
11436030721
11436038167
11436046163
11436054036
11436060994
11436069783
11436075765
11436083516
11436091390
11436097066
11436105244
11436110982
11436118733
11436126485
11436133565
11436138997
11436147237
11436153706
11436163167
11436169514
11436177876
11436185567
11436192525
11436200276
11436203084
11436214070
11436219197
11436229939
11436238179
11436243916
11436251423
11436259968
11436264668
11436273396
11436281880
11436290669
11436297261
11436308247
11436313069
11436324360
11436329670
11436341267
11436350910
11436356709
11436361225
11436371296
11436378803
11436385639
11436391987
11436400410
11436408711
11436416828
11436423847
11436432026
11436438374
11436444721
11436452289
11436459797
11436466572
11436476337
11436484333
11436490314
11436498066
11436505817
11436511677
11436516376
11436526630
11436536335
11436542682
11436549945
11436557331
11436563678
11436571003
11436577533
11436585163
11436594562
11436603351
11436610492
11436617938
11436623859
11436632953
11436639545
11436648822
11436655475
11436666583
11436673724
11436681964
11436689777
11436696918
11436704730
11436712543
11436718341
11436729205
11436734882
11436743487
11436750018
11436760150
11436767413
11436777484
11436786029
11436793048
11436801654
11436809955
11436817279
11436823199
11436831805
11436837359
11436846942
11436855243
11436861956
11436867327
11436874896
11436881915
11436887957
11436895709
11436903460
11436911517
11436917315
11436924456
11436931597
11436938799
11436945757
11436951434
11436959734
11436967364
11436974444
11436985918
11436992999
11437001910
11437008624
11437016009
11437025347
11437031756
11437039934
11437046831
11437052935
11437058794
11437067522
11437075274
11437081927
11437088579
11437099627
11437104510
11437115923
11437121538
11437133928
11437143145
11437149859
11437158464
11437164263
11437170916
11437179277
11437185747
11437193010
11437199968
11437208269
11437214983
11437221758
11437230242
11437235979
11437243669
11437250627
11437259538
11437267351
11437275774
11437283586
11437289446
11437297319
11437303117
11437309709
11437319231
11437324907
11437335893
11437345232
11437351335
11437358720
11437365251
11437371599
11437378740
11437386552
11437397478
11437405046
11437413408
11437420976
11437430864
11437437394
11437445634
11437454606
11437463029
11437468156
11437477677
11437482072
11437492448
11437496842
11437505998
11437514054
11437521440
11437525712
11437535295
11437539567
11437548783
11437555558
11437562516
11437571244
11437577042
11437584428
11437591508
11437595597
11437604386
11437611161
11437617509
11437624223
11437634110
11437638566
11437647111
11437653886
11437660355
11437666520
11437673295
11437680070
11437689103
11437695389
11437703080
11437709610
11437717545
11437724259
11437732254
11437739396
11437749649
11437756730
11437765641
11437775956
11437786942
11437796707
11437807205
11437816483
11437822708
11437827896
11437839310
11437844742
11437855728
11437861160
11437872025
11437881485
11437889603
11437896439
11437904678
11437913345
11437921768
11437928848
11437937332
11437943436
11437952957
11437961868
11437968155
11437975967
11437983352
11437990921
11437998672
11438006851
11438017532
11438024368
11438032425
11438038833
11438046524
11438052993
11438059951
11438066177
11438075943
11438082473
11438091018
11438098709
11438104873
11438112564
11438118789
11438126480
11438135879
11438143752
11438150894
11438156814
11438165847
11438171890
11438179946
11438188674
11438194228
11438205581
11438211196
11438222427
11438230971
11438237075
11438246657
11438254775
11438261550
11438269607
11438277907
11438285598
11438291762
11438299514
11438306472
11438314467
11438322646
11438328383
11438337355
11438343032
11438351149
11438356948
11438365309
11438374099
11438382399
11438389235
11438397597
11438404616
11438413039
11438419325
11438426467
11438433730
11438459548
11438464186
11438473708
11438481703
11438490553
11438498183
11438504591
11438513747
11438520277
11438527418
11438536452
11438543349
11438552016
11438559157
11438567641
11438575331
11438583021
11438589857
11438599562
11438607313
11438614454
11438623365
11438631300
11438639662
11438648268
11438655531
11438664930
11438673231
11438680799
11438687941
11438695082
11438701307
11438709913
11438719374
11438725294
11438732435
11438739820
11438746778
11438754286
11438762708
11438769300
11438778150
11438786451
11438792127
11438800123
11438806837
11438812330
11438820570
11438827467
11438836744
11438844129
11438852125
11438858411
11438865674
11438871717
11438881299
11438891431
11438899671
11438909742
11438916700
11438926526
11438937146
11438945813
11438956128
11438962476
11438971570
11438979688
11438987744
11438993543
11439001721
11439007581
11439016370
11439022229
11439030164
11439037793
11439045361
11439052930
11439059644
11439067456
11439073987
11439081555
11439089124
11439096814
11439103406
11439111523
11439118359
11439129224
11439137829
11439150647
11439158764
11439165173
11439172986
11439178967
11439187695
11439193615
11439203015
11439208813
11439216870
11439224621
11439232678
11439238415
11439245495
11439253308
11439260876
11439268566
11439275158
11439282910
11439288220
11439297497
11439301953
11439312268
11439321362
11439327709
11439334728
11439344677
11439349560
11439358532
11439365734
11439375561
11439384228
11439391979
11439401134
11439407360
11439416576
11439423840
11439430248
11439437817
11439446300
11439455273
11439461559
11439470226
11439476757
11439484569
11439493664
11439498668
11439509227
11439514232
11439524120
11439531261
11439539867
11439546276
11439555004
11439561412
11439569469
11439577892
11439584606
11439592967
11439599071
11439608653
11439613536
11439624156
11439632457
11439639537
11439648326
11439656566
11439665477
11439672130
11439680858
11439690440
11439695811
11439707042
11439712535
11439723155
11439731090
11439737376
11439744517
11439754100
11439761180
11439768931
11439777659
11439784800
11439793162
11439799510
11439805186
11439813304
11439821727
11439828929
11439834971
11439843150
11439849070
11439858836
11439864634
11439872508
11439880198
11439887522
11439895152
11439903147
11439908946
11439917979
11439923716
11439931651
11439939219
11439945200
11439952891
11439961497
11439967295
11439974619
11439982432
11439990366
11439996104
11440002451
11440010081
11440016856
11440026560
11440033579
11440042551
11440050547
11440058298
11440064341
11440072153
11440079722
11440087107
11440093210
11440101023
11440109079
11440115549
11440122568
11440130991
11440138437
11440148691
11440156565
11440164804
11440169687
11440179026
11440186228
11440194651
11440202158
11440210642
11440217539
11440227426
11440234506
11440241281
11440250498
11440256845
11440265329
11440274606
11440280771
11440289377
11440295847
11440304330
11440312814
11440318674
11440333627
11440340951
11440349985
11440357431
11440363901
11440373361
11440379587
11440388742
11440394967
11440405954
11440413827
11440422250
11440431222
11440440377
11440446725
11440455453
11440461923
11440471261
11440481088
11440490060
11440496774
11440506112
11440514962
11440522347
11440531747
11440541512
11440548226
11440557504
11440565621
11440572762
11440583138
11440590340
11440596749
11440605172
11440611336
11440618539
11440624825
11440633736
11440638131
11440647469
11440652291
11440663338
11440668282
11440678048
11440687996
11440696419
11440703743
11440712227
11440719613
11440728096
11440735176
11440742867
11440749459
11440757698
11440763802
11440773262
11440783638
11440789620
11440794075
11440804817
11440812020
11440820503
11440827645
11440836311
11440844368
11440852486
11440859322
11440867683
11440874764
11440881233
11440892036
11440898384
11440907356
11440914253
11440923714
11440930427
11440935371
11440945930
11440954719
11440961006
11440970711
11440977058
11440985359
11440991951
11441000740
11441007209
11441016731
11441023323
11441031135
11441038826
11441046821
11441055244
11441062324
11441068794
11441078620
11441087532
11441095039
11441102912
11441112068
11441119209
11441128242
11441135139
11441145515
11441154548
11441161872
11441169318
11441176765
11441185310
11441192451
11441200812
11441209846
11441217475
11441224799
11441232673
11441240424
11441250983
11441258491
11441270637
11441279792
11441288886
11441295173
11441303595
11441312018
11441319342
11441327643
11441336737
11441343634
11441351813
11441358771
11441364814
11441372077
11441379462
11441387519
11441396124
11441402228
11441409735
11441417059
11441423407
11441430548
11441437750
11441443182
11441451972
11441459357
11441466864
11441473883
11441479620
11441486884
11441493842
11441501044
11441508673
11441516302
11441521979
11441528937
11441535956
11441543097
11441547247
11441555487
11441563971
11441572272
11441577704
11441586493
11441591131
11441599005
11441605475
11441613165
11441620306
11441630438
11441637457
11441645941
11441652960
11441663214
11441668096
11441679388
11441684515
11441695806
11441700872
11441711187
11441716253
11441726507
11441734258
11441741155
11441748724
11441756841
11441763189
11441772405
11441778326
11441784856
11441792730
11441800603
11441806646
11441815984
11441824590
11441830755
11441838445
11441846258
11441852178
11441860235
11441868047
11441873784
11441884527
11441888982
11441897588
11441903997
11441911809
11441918218
11441927129
11441934148
11441942266
11441949346
11441956609
11441962468
11441970464
11441978337
11441986333
11441992620
11442001225
11442009526
11442015691
11442024846
11442034062
11442040898
11442051335
11442059514
11442067448
11442073064
11442082036
11442089848
11442096135
11442102055
11442110112
11442118291
11442125371
11442130986
11442138859
11442146550
11442152409
11442157658
11442165165
11442173893
11442182072
11442187626
11442194096
11442201176
11442207768
11442215397
11442223027
11442228703
11442237004
11442242863
11442251469
11442257084
11442264042
11442271061
11442277958
11442286015
11442294926
11442300907
11442308903
11442314884
11442322758
11442330448
11442334965
11442344608
11442350529
11442360172
11442367252
11442377445
11442382572
11442393864
11442401981
11442413517
11442421879
11442429874
11442438419
11442445011
11442454532
11442463932
11442473026
11442480716
11442489383
11442501712
11442508548
11442517398
11442523136
11442530826
11442538700
11442547367
11442554996
11442560855
11442568607
11442575565
11442583194
11442588565
11442597476
11442602725
11442613162
11442617862
11442627384
11442631900
11442641055
11442647525
11442656680
11442663944
11442669742
11442675967
11442685245
11442691531
11442698794
11442707095
11442713809
11442719607
11442729617
11442736514
11442744388
11442750857
11442759463
11442766421
11442771487
11442782657
11442792666
11442799258
11442804202
11442816287
11442827945
11442834353
11442842654
11442851138
11442857669
11442863101
11442872317
11442878543
11442886111
11442894351
11442901492
11442907900
11442915652
11442921328
11442930605
11442936404
11442944338
11442950259
11442959414
11442965701
11442979372
11442994570
11443009524
11443018740
11443029238
11443034792
11443049380
11443057314
11443066836
11443077395
11443085085
11443091311
11443098391
11443104494
11443111391
11443119204
11443126162
11443132753
11443138979
11443145571
11443152956
11443159853
11443165163
11443174074
11443182070
11443186586
11443194094
11443198915
11443204164
11443212587
11443218874
11443227052
11443235231
11443242677
11443251100
11443258608
11443266481
11443275758
11443283266
11443289735
11443297243
11443303590
11443311647
11443318056
11443326417
11443330385
11443340272
11443347352
11443354921
11443363222
11443368654
11443375490
11443382692
11443390321
11443397645
11443405580
11443411073
11443419923
11443425721
11443433778
11443439943
11443448671
11443455384
11443465272
11443470094
11443478944
11443485719
11443493165
11443501466
11443507813
11443515931
11443524659
11443529603
11443539796
11443544984
11443554871
11443562684
11443572266
11443579835
11443588807
11443593323
11443602174
11443609742
11443617371
11443621827
11443633790
11443640809
11443648560
11443656739
11443664490
11443670228
11443678406
11443686768
11443692872
11443700013
11443708252
11443716004
11443722535
11443731995
11443739868
11443746949
11443753846
11443761414
11443769532
11443776734
11443781922
11443790650
11443800842
11443807739
11443816223
11443824219
11443830933
11443839844
11443846069
11443854370
11443862061
11443868042
11443876282
11443882080
11443890198
11443898987
11443907349
11443913818
11443921203
11443928833
11443934387
11443942016
11443950805
11443957886
11443967590
11443973694
11443982910
11443990966
11443999878
11444008606
11444014587
11444023254
11444028869
11444037170
11444044128
11444050293
11444059509
11444066345
11444075866
11444083618
11444089050
11444095764
11444103698
11444113281
11444122192
11444129577
11444136596
11444142333
11444150207
11444159972
11444169738
11444177856
11444185485
11444192809
11444198913
11444208984
11444215209
11444225951
11444236144
11444243041
11444251769
11444259459
11444268493
11444275512
11444281310
11444290648
11444297606
11444305419
11444312926
11444320006
11444325804
11444334044
11444342650
11444349364
11444358946
11444366759
11444374266
11444381224
11444391173
11444397948
11444404051
11444413085
11444419188
11444427184
11444434996
11444440978
11444447508
11444456480
11444463499
11444469725
11444477538
11444484923
11444492674
11444500487
11444507628
11444515806
11444523802
11444530516
11444539976
11444546812
11444552733
11444560423
11444569395
11444577330
11444585569
11444594847
11444602232
11444609861
11444617308
11444624937
11444632383
11444639952
11444647825
11444655210
11444662596
11444670530
11444678099
11444684507
11444694822
11444702329
11444709837
11444718809
11444724424
11444732359
11444738767
11444747739
11444757383
11444763975
11444771909
11444779417
11444788511
11444795164
11444803159
11444811826
11444818418
11444827390
11444834775
11444842405
11444849973
11444862668
11444870237
11444878598
11444886655
11444893552
11444901792
11444911313
11444920713
11444928952
11444935056
11444943296
11444948972
11444959897
11444966489
11444975400
11444982785
11444990415
11444996335
11445005490
11445014584
11445020688
11445030454
11445037473
11445045712
11445052182
11445059750
11445069455
11445075131
11445084897
11445091183
11445101071
11445109128
11445115597
11445124814
11445131589
11445140378
11445147885
11445154843
11445163083
11445170224
11445177792
11445184689
11445193600
11445202877
11445210385
11445217465
11445224362
11445234005
11445240353
11445248959
11445257015
11445263912
11445270993
11445277950
11445285214
11445293759
11445302670
11445310360
11445317196
11445325070
11445333920
11445343746
11445351986
11445359371
11445368160
11445373898
11445382259
11445387081
11445399776
11445409115
11445416195
11445425167
11445431087
11445439144
11445446407
11445452938
11445461055
11445469722
11445476925
11445484493
11445491329
11445498470
11445508113
11445516109
11445524593
11445531429
11445539791
11445548030
11445554500
11445561641
11445602352
11445608089
11445619441
11445627498
11445636043
11445643794
11445652217
11445659053
11445667720
11445674251
11445683040
11445692622
11445699763
11445706294
11445714473
11445723201
11445728389
11445739863
11445747188
11445754878
11445761836
11445769221
11445777888
11445786128
11445793940
11445804011
11445810237
11445818415
11445826411
11445831355
11445840632
11445847956
11445855097
11445860957
11445870295
11445878169
11445885310
11445896479
11445903864
11445912531
11445919306
11445928095
11445935542
11445940974
11445950617
11445957392
11445965754
11445971857
11445981867
11445989191
11445998713
11446007624
11446017817
11446025751
11446032160
11446039911
11446048578
11446053827
11446063105
11446072138
11446078486
11446085627
11446094049
11446101923
11446110285
11446117426
11446124811
11446135248
11446142877
11446150141
11446157038
11446162653
11446172540
11446179437
11446188776
11446196039
11446203058
11446210321
11446219415
11446226068
11446234064
11446243280
11446253046
11446261713
11446270990
11446279840
11446290948
11446300104
11446310296
11446317499
11446324701
11446328973
11446340509
11446348504
11446356683
11446366082
11446374139
11446381036
11446387323
11446395318
11446404718
11446410821
11446420343
11446428094
11446436212
11446443109
11446449212
11446458795
11446468682
11446476129
11446484307
11446490472
11446497918
11446507134
11446515313
11446523064
11446530999
11446539239
11446546807
11446553887
11446563836
11446571221
11446580315
11446586541
11446596368
11446603020
11446608086
11446618218
11446624627
11446634087
11446641839
11446650872
11446657952
11446668633
11446676445
11446684685
11446692620
11446700798
11446707207
11446714043
11446723809
11446732170
11446740227
11446748406
11446755364
11446761589
11446768791
11446778740
11446786858
11446794487
11446803642
11446811272
11446819206
11446824699
11446833977
11446842339
11446851433
11446858452
11446866203
11446874870
11446882378
11446890495
11446897758
11446911003
11446917900
11446924064
11446934501
11446941643
11446951591
11446962761
11446970756
11446978813
11446986259
11446996696
11447005180
11447012504
11447021904
11447028007
11447037345
11447044853
11447052543
11447064140
11447074882
11447085502
11447093376
11447100517
11447106071
11447114982
11447123344
11447130912
11447140006
11447145866
11447152824
11447160880
11447167472
11447176932
11447184745
11447191337
11447198905
11447206656
11447213370
11447222587
11447227958
11447237601
11447246207
11447251700
11447259940
11447264640
11447275870
11447285514
11447290702
11447299979
11447308585
11447315970
11447323600
11447332083
11447339225
11447347403
11447353751
11447359854
11447366995
11447377677
11447385794
11447393057
11447400382
11447408194
11447414847
11447421256
11447431387
11447438345
11447445364
11447454581
11447460501
11447470145
11447477957
11447488272
11447496756
11447503592
11447511160
11447518728
11447527395
11447534353
11447543203
11447548941
11447558340
11447566031
11447573477
11447581778
11447589468
11447596731
11447606497
11447615835
11447623892
11447630850
11447640371
11447649221
11447660208
11447668020
11447677969
11447685842
11447691152
11447698965
11447707388
11447714468
11447720449
11447728872
11447738149
11447744009
11447753469
11447760244
11447769521
11447778677
11447788198
11447795095
11447800771
11447809926
11447817006
11447825979
11447833974
11447840688
11447848501
11447855947
11447863515
11447872304
11447880727
11447887990
11447896108
11447904103
11447910024
11447919606
11447927724
11447935842
11447944203
11447952138
11447960683
11447967153
11447972341
11447983083
11447992360
11447998219
11448006581
11448013783
11448021718
11448027394
11448036977
11448043629
11448052541
11448059254
11448067006
11448074635
11448083790
11448096669
11448106801
11448115773
11448124562
11448132802
11448142018
11448150197
11448160023
11448166981
11448174550
11448181935
11448190968
11448198414
11448208180
11448216053
11448224903
11448232533
11448241017
11448248524
11448258229
11448265125
11448272999
11448280201
11448288685
11448295765
11448304066
11448311085
11448321034
11448326283
11448337696
11448346302
11448353382
11448361744
11448371326
11448379139
11448387501
11448394581
11448402332
11448411915
11448419239
11448427845
11448436573
11448445057
11448452747
11448459095
11448468067
11448474598
11448487293
11448496875
11448508777
11448526050
11448532032
11448542652
11448550220
11448557910
11448565662
11448574451
11448582691
11448592090
11448600635
11448611865
11448619678
11448627979
11448635486
11448643176
11448652270
11448660571
11448667163
11448676379
11448685229
11448694018
11448702563
11448713611
11448725390
11448734607
11448744983
11448755114
11448765368
11448773242
11448784411
11448793200
11448802844
11448812182
11448821704
11448830920
11448838671
11448848315
11448856310
11448869494
11448878527
11448887194
11448895617
11448905627
11448916613
11448923815
11448934069
11448943591
11448955065
11448964220
11448973864
11448982104
11448991625
11449000780
11449011461
11449020250
11449028063
11449035631
11449043810
11449050097
11449058153
11449067919
11449075853
11449083544
11449095079
11449100023
11449112719
11449119432
11449128038
11449137926
11449142687
11449153856
11449164293
11449174120
11449187731
11449200548
11449207628
11449217516
11449225389
11449235216
11449244615
11449253587
11449262437
11449271593
11449280321
11449286546
11449297166
11449304552
11449312547
11449318345
11449328477
11449334825
11449341356
11449346971
11449356431
11449363878
11449375230
11449384935
11449394212
11449401353
11449411973
11449419114
11449429002
11449436204
11449441758
11449454576
11449463792
11449473374
11449478929
11449490586
11449499986
11449507310
11449515366
11449525498
11449533250
11449543809
11449551926
11449560349
11449570847
11449579514
11449586777
11449595994
11449605881
11449615220
11449622605
11449632432
11449639878
11449647995
11449657578
11449665635
11449676987
11449685349
11449693650
11449699814
11449709458
11449716233
11449723313
11449731064
11449738144
11449744004
11449752182
11449759995
11449764755
11449774521
11449779709
11449790451
11449795395
11449804672
11449811569
11449818893
11449824631
11449832443
11449838791
11449847824
11449853928
11449862533
11449870712
11449880661
11449894455
11449910019
11449921982
11449931015
11449939865
11449950241
11449958603
11449963302
11449975692
11449982528
11449987594
11449996933
11450004013
11450018478
11450028915
11450035507
11450046188
11450054977
11450062972
11450069137
11450078475
11450083968
11450091781
11450097701
11450107772
11450117294
11450126022
11450132308
11450143233
11450153365
11450161910
11450170211
11450179000
11450190108
11450197555
11450208724
11450218429
11450228072
11450239730
11450247786
11450255599
11450265548
11450273604
11450284652
11450292830
11450304000
11450309249
11450322005
11450332442
11450341780
11450351546
11450359175
11450370650
11450378462
11450389388
11450394881
11450407942
11450414595
11450422102
11450429427
11450437422
11450445479
11450450362
11450459700
11450469771
11450476057
11450486677
11450492781
11450501692
11450508650
11450519697
11450524214
11450534712
11450543074
11450551130
11450558088
11450565474
11450578108
11450586592
11450593855
11450601973
11450608015
11450616316
11450624861
11450633711
11450642195
11450650617
11450659773
11450668257
11450675886
11450685957
11450692976
11450701521
11450707807
11450715742
11450723188
11450732282
11450739790
11450752180
11450762495
11450773298
11450784345
11450796064
11450806562
11450815534
11450825605
11450834150
11450845258
11450852765
11450863141
11450872297
11450881025
11450892133
11450902021
11450912641
11450927350
11450936322
11450944745
11450953778
11450962750
11450972699
11450981000
11450988141
11450998761
11451006940
11451014813
11451025372
11451034589
11451042645
11451050580
11451059491
11451066571
11451076092
11451083661
11451090314
11451099347
11451103619
11451113324
11451121747
11451130169
11451140179
11451146527
11451154095
11451160199
11451169232
11451177594
11451183087
11451193341
11451199932
11451207135
11451213848
11451222149
11451227642
11451235943
11451246075
11451251812
11451261089
11451266766
11451274822
11451280682
11451289288
11451297588
11451304058
11451311626
11451319378
11451326336
11451334331
11451342693
11451350628
11451358501
11451367473
11451376385
11451383709
11451389446
11451398235
11451403179
11451413982
11451422222
11451430462
11451438213
11451443340
11451450786
11451462871
11451470012
11451480815
11451487041
11451496624
11451504314
11451510784
11451522319
11451538066
11451544231
11451554790
11451561992
11451570598
11451578471
11451588786
11451596355
11451604717
11451614116
11451621440
11451633037
11451642436
11451648784
11451659160
11451665629
11451671306
11451680827
11451685832
11451696879
11451705668
11451711833
11451719767
11451725749
11451732280
11451740886
11451747172
11451754863
11451761882
11451770121
11451777201
11451785746
11451792277
11451799845
11451805705
11451813945
11451819926
11451828654
11451836894
11451839457
11451851359
11451856913
11451865702
11451873759
11451879679
11451888651
11451896464
11451904459
11451911234
11451917582
11451926310
11451932841
11451939310
11451945292
11451955729
11451962626
11451975748
11451984843
11451991373
11451998820
11452007853
11452016398
11452023844
11452032938
11452037577
11452046549
11452053080
11452060831
11452067789
11452076883
11452083536
11452090921
11452096720
11452104959
11452110636
11452120401
11452128946
11452136759
11452143167
11452151895
11452157816
11452166177
11452172098
11452180826
11452186685
11452196085
11452204691
11452211465
11452219278
11452221902
11452231485
11452237833
11452246927
11452251810
11452261148
11452268228
11452280374
11452288980
11452301614
11452314432
11452322305
11452335122
11452345010
11452352761
11452359353
11452367227
11452374002
11452382363
11452390115
11452395852
11452400491
11452410928
11452415261
11452424844
11452433938
11452442483
11452447549
11452456582
11452463113
11452469888
11452475747
11452483559
11452492654
11452501992
11452510049
11452521523
11452529458
11452541909
11452550454
11452558083
11452565835
11452573098
11452580422
11452587746
11452594704
11452600991
11452607949
11452615334
11452623818
11452631997
11452638771
11452645424
11452652504
11452659523
11452666542
11452673378
11452681435
11452688454
11452695534
11452702431
11452708229
11452717140
11452722878
11452731667
11452739540
11452744301
11452754433
11452759682
11452768288
11452774880
11452783058
11452789894
11452797707
11452806435
11452812233
11452820534
11452827187
11452832924
11452841530
11452847572
11452857338
11452865394
11452871986
11452880409
11452887794
11452893471
11452901161
11452908851
11452918800
11452926857
11452932411
11452940406
11452948158
11452953895
11452960426
11452969215
11452977088
11452985084
11452992225
11452999977
11453008522
11453015785
11453022193
11453029090
11453035560
11453047889
11453054115
11453063697
11453070106
11453079078
11453087440
11453095924
11453102515
11453113807
11453119788
11453128577
11453134315
11453142310
11453150123
11453155921
11453163734
11453174903
11453181006
11453188575
11453196265
11453201636
11453210059
11453214820
11453223609
11453232825
11453238990
11453246802
11453255042
11453264075
11453272437
11453278357
11453287757
11453297400
11453303687
11453311560
11453319373
11453324683
11453333472
11453337927
11453347205
11453352454
11453363379
11453372839
11453379492
11453388770
11453397070
11453405554
11453411719
11453420508
11453428747
11453435705
11453443396
11453449927
11453457800
11453462500
11453470373
11453477759
11453488074
11453493078
11453502783
11453507239
11453515417
11453522009
11453530432
11453537512
11453546850
11453553869
11453562231
11453568579
11453576330
11453582067
11453589575
11453597570
11453606420
11453614904
11453622778
11453628576
11453636450
11453644079
11453650549
11453658056
11453666540
11453672460
11453680578
11453688268
11453693029
11453701513
11453707800
11453715551
11453725439
11453732397
11453739172
11453747838
11453753515
11453761877
11453767553
11453772863
11453783422
11453792455
11453798803
11453807409
11453813512
11453823400
11453832128
11453844396
11453850438
11453862401
11453874303
11453882970
11453893041
11453900792
11453908727
11453914220
11453922948
11453929479
11453939122
11453948461
11453956944
11453965062
11453973851
11453981419
11453987340
11453997227
11454006810
11454016026
11454023717
11454033910
11454040074
11454050694
11454058873
11454065953
11454074742
11454083104
11454090916
11454097081
11454108677
11454115941
11454123936
11454131993
11454140599
11454146458
11454156041
11454166355
11454173497
11454181126
11454190708
11454197544
11454204746
11454214207
11454221470
11454229527
11454237400
11454244724
11454253086
11454260410
11454269810
11454279942
11454287388
11454293613
11454301487
11454309177
11454317722
11454324802
11454331638
11454341953
11454349644
11454357334
11454365574
11454372043
11454380222
11454391758
11454400242
11454405063
11454414768
11454419468
11454429538
11454437656
11454443699
11454454685
11454461032
11454469272
11454477085
11454485324
11454491733
11454499912
11454511081
11454517795
11454527561
11454533481
11454542941
11454548557
11454559848
11454569858
11454577304
11454591220
11454600375
11454608249
11454618381
11454628329
11454636813
11454643893
11454652194
11454660739
11454667880
11454676242
11454683749
11454690158
11454698398
11454707980
11454712924
11454722873
11454730990
11454738559
11454745578
11454754977
11454761996
11454770053
11454777255
11454785433
11454792147
11454801669
11454808138
11454815768
11454824069
11454833834
11454840060
11454849093
11454855624
11454864108
11454872714
11454877840
11454887057
11454894381
11454903597
11454911166
11454919466
11454928438
11454936068
11454945345
11454957308
11454971956
11454991243
11454998568
11455011995
11455020418
11455027803
11455036531
11455044344
11455051851
11455059725
11455067964
11455073824
11455082857
11455089144
11455098543
11455104830
11455114473
11455121004
11455130037
11455136385
11455141206
11455152376
11455157320
11455167268
11455175630
11455185640
11455190523
11455199556
11455206148
11455213228
11455219575
11455227205
11455236177
11455243867
11455250825
11455258577
11455264375
11455273469
11455279390
11455288179
11455294160
11455305269
11455311677
11455319062
11455326814
11455334443
11455340303
11455347932
11455355745
11455362641
11455370942
11455375520
11455385102
11455392915
11455400178
11455407258
11455417268
11455427094
11455435822
11455445161
11455454133
11455459443
11455471589
11455477326
11455488313
11455498444
11455507050
11455514985
11455521332
11455529389
11455535126
11455543427
11455549164
11455560029
11455566437
11455574189
11455582001
11455587739
11455595490
11455599885
11455610566
11455620270
11455628327
11455633881
11455641449
11455649994
11455655671
11455662201
11455669831
11455676667
11455685150
11455692047
11455701020
11455707550
11455714508
11455720246
11455727936
11455735993
11455743683
11455751801
11455754303
11455765595
11455771088
11455779572
11455784027
11455793793
11455798737
11455809051
11455814423
11455825775
11455830963
11455842438
11455847870
11455860199
11455870819
11455877716
11455883087
11455894500
11455899200
11455909576
11455914520
11455925750
11455930938
11455941619
11455946380
11455954986
11455961517
11455968780
11455977630
11455986419
11455993377
11456003204
11456009979
11456017730
11456023406
11456031463
11456039825
11456045501
11456053558
11456063323
11456069671
11456077728
11456085601
11456089080
11456102447
11456110503
11456118316
11456125579
11456133636
11456141936
11456149566
11456156585
11456164336
11456170806
11456178313
11456187041
11456192901
11456203460
11456210418
11456218779
11456227629
11456235137
11456244048
11456253752
11456260283
11456268157
11456274626
11456283721
11456290373
11456298369
11456305449
11456313689
11456320891
11456328948
11456334685
11456342436
11456348174
11456356230
11456364043
11456373442
11456379607
11456388152
11456394682
11456402739
11456410551
11456416594
11456424467
11456433928
11456442045
11456449431
11456456267
11456464445
11456472868
11456477812
11456488066
11456494475
11456504973
11456513884
11456521025
11456528898
11456537382
11456545622
11456552519
11456562345
11456568388
11456578398
11456585844
11456594206
11456600614
11456608305
11456617521
11456625028
11456633756
11456641386
11456647978
11456655119
11456661649
11456671049
11456678678
11456687467
11456695951
11456705167
11456713712
11456720365
11456728544
11456733610
11456746000
11456752775
11456761136
11456769437
11456775297
11456783231
11456792386
11456800443
11456805082
11456815274
11456822782
11456830472
11456837369
11456846341
11456855619
11456862516
11456871610
11456878690
11456888272
11456893155
11456902738
11456911649
11456919644
11456926846
11456934659
11456943936
11456953397
11456962430
11456970425
11456980496
11456985928
11456995084
11457004971
11457011990
11457022061
11457029996
11457037808
11457046414
11457053616
11457062344
11457068875
11457078702
11457084988
11457093350
11457101773
11457109097
11457117581
11457124478
11457133023
11457137967
11457148159
11457156155
11457162991
11457170193
11457178128
11457187161
11457194058
11457200649
11457210476
11457216824
11457225369
11457233853
11457242886
11457249416
11457258450
11457264980
11457272854
11457281155
11457287563
11457296108
11457301662
11457312160
11457320400
11457328518
11457333645
11457342190
11457351345
11457358730
11457365139
11457374294
11457380520
11457390224
11457396633
11457405849
11457412258
11457421352
11457427822
11457438320
11457448085
11457459438
11457468410
11457475185
11457484340
11457490749
11457501369
11457509426
11457515773
11457524867
11457531520
11457540126
11457548732
11457555568
11457564235
11457572536
11457581020
11457588222
11457596950
11457601833
11457612392
11457617396
11457626247
11457633327
11457643458
11457650599
11457657435
11457666774
11457673732
11457680018
11457688746
11457697291
11457706019
11457712306
11457721583
11457727992
11457736048
11457744410
11457749537
11457760585
11457769801
11457780970
11457789393
11457797206
11457806056
11457815211
11457822901
11457827967
11457835719
11457840540
11457845911
11457850184
11457855799
11457859888
11457865504
11457871973
11457877161
11457882838
11457888209
11457893214
11457899744
11457904810
11457911402
11457916468
11457920923
11457926844
11457932947
11457938563
11457943384
11457949610
11457954981
11457961146
11457966395
11457970972
11457976832
11457981104
11457990503
11458000391
11458007044
11458014978
11458018335
11458025721
11458029139
11458036036
11458042444
11458046778
11458054163
11458059046
11458065027
11458070764
11458075464
11458081140
11458084741
11458091516
11458095300
11458103235
11458109644
11458114832
11458116724
11458125025
11458130884
11458135156
11458142297
11458146692
11458152795
11458158777
11458163599
11458168115
11458173120
11458178308
11458184228
11458189172
11458195581
11458200830
11458205652
11458209924
11458216272
11458220056
11458227136
11458233118
11458239709
11458246362
11458251123
11458256616
11458263208
11458269861
11458275354
11458282739
11458286340
11458294275
11458298181
11458304223
11458311914
11458316430
11458323022
11458327233
11458334314
11458339563
11458347497
11458352990
11458361291
11458367883
11458376550
11458380212
11458387231
11458392480
11458398400
11458401818
11458408532
11458413781
11458419152
11458421899
11458428246
11458432336
11458437096
11458441491
11458447472
11458452599
11458459069
11458464074
11458469201
11458472192
11458478600
11458483788
11458488915
11458493432
11458499535
11458502526
11458508691
11458512841
11458517541
11458522057
11458528161
11458531335
11458538537
11458541527
11458547814
11458552270
11458556786
11458560753
11458568810
11458573693
11458578942
11458585045
11458589928
11458594017
11458599511
11458603356
11458607750
11458616295
11458622887
11458627343
11458632470
11458637658
11458641869
11458647240
11458655358
11458661278
11458663353
11458670189
11458673363
11458681786
11458686547
11458694115
11458698204
11458707115
11458712608
11458718102
11458721642
11458729881
11458733482
11458741478
11458748009
11458754234
11458759422
11458765343
11458771629
11458776146
11458778160
11458787376
11458793480
11458799705
11458801781
11458809959
11458814110
11458819542
11458823265
11458830284
11458835472
11458840538
11458845848
11458852806
11458857750
11458862205
11458868431
11458873375
11458877586
11458885154
11458890831
11458898399
11458903282
11458910118
11458914329
11458919944
11458925987
11458931602
11458939842
11458943931
11458948204
11458954551
11458959495
11458964317
11458968467
11458976585
11458981895
11458987327
11458992210
11458998191
11459003318
11459008323
11459014549
11459017845
11459024314
11459029441
11459034995
11459038413
11459046409
11459052390
11459057639
11459060935
11459068626
11459072654
11459078818
11459082297
11459089561
11459095542
11459101646
11459107444
11459111594
11459117637
11459123313
11459128623
11459134604
11459139060
11459144675
11459150779
11459155967
11459161521
11459166160
11459172995
11459177817
11459184897
11459189902
11459195151
11459199912
11459205222
11459210715
11459218161
11459222678
11459227317
11459232566
11459238120
11459243369
11459249655
11459253989
11459260642
11459262534
11459269431
11459274375
11459279685
11459286460
11459290244
11459297385
11459300437
11459307089
11459312338
11459317648
11459324667
11459331320
11459336020
11459343649
11459348898
11459353720
11459359396
11459365805
11459371115
11459377646
11459383566
11459391379
11459396750
11459405539
11459413046
11459427267
11459439963
11459446676
11459453756
11459463339
11459467001
11459476584
11459484762
11459491598
11459498617
11459505575
11459511984
11459518759
11459524984
11459531881
11459538046
11459543112
11459552877
11459560385
11459566427
11459573934
11459578878
11459584860
11459591940
11459600118
11459608785
11459615194
11459619894
11459629293
11459636923
11459644308
11459650533
11459657430
11459663534
11459668661
11459678182
11459685628
11459693258
11459699972
11459706502
11459713155
11459718099
11459726705
11459733541
11459743734
11459750631
11459758199
11459764913
11459769979
11459778096
11459784810
11459792928
11459800008
11459809591
11459815999
11459820760
11459828939
11459835347
11459844319
11459851033
11459854146
11459865315
11459870992
11459880086
11459887105
11459893880
11459899739
11459907247
11459913167
11459917867
11459926778
11459930806
11459940450
11459947713
11459955464
11459962849
11459968831
11459977071
11459983418
11459991536
11459997822
11460007100
11460014119
11460019490
11460027852
11460034382
11460042622
11460049092
11460054646
11460063679
11460068562
11460077961
11460085225
11460093159
11460100483
11460106038
11460115193
11460121540
11460130085
11460137043
11460149372
11460156330
11460161518
11460170307
11460177204
11460183796
11460192829
11460199299
11460206196
11460213032
11460226460
11460232929
11460243855
11460251667
11460260090
11460266743
11460274189
11460282429
11460289936
11460300373
11460309101
11460318561
11460324055
11460332233
11460338764
11460345539
11460353107
11460360798
11460368305
11460370502
11460378681
11460382709
11460388752
11460393573
11460399677
11460404987
11460412433
11460417804
11460422565
11460426776
11460432697
11460437274
11460444416
11460448871
11460455890
11460460712
11460464862
11460472614
11460476886
11460483356
11460486896
11460493488
11460498798
11460505939
11460509601
11460516620
11460521991
11460527057
11460531879
11460537616
11460542743
11460549640
11460554218
11460560565
11460565265
11460572650
11460578448
11460583026
11460588641
11460596698
11460601337
11460606830
11460612750
11460617450
11460623248
11460626849
11460633441
11460638812
11460644855
11460650165
11460655841
11460661456
11460667376
11460671649
11460678485
11460682818
11460692157
11460697406
11460702349
11460708575
11460713885
11460718341
11460724444
11460728900
11460736346
11460740985
11460746295
11460752886
11460759539
11460766314
11460772479
11460780352
11460785601
11460792376
11460797381
11460804156
11460811053
11460818011
11460823443
11460828265
11460835650
11460840655
11460846819
11460853106
11460858172
11460865252
11460872149
11460877154
11460882220
11460892901
11460900042
11460907610
11460914507
11460921587
11460927874
11460932818
11460939837
11460946306
11460951372
11460956377
11460963457
11460969133
11460974810
11460978655
11460986162
11460991289
11460996538
11461001970
11461007769
11461011736
11461018877
11461026812
11461031694
11461037981
11461042192
11461047747
11461053606
11461057207
11461063799
11461068926
11461076006
11461079607
11461085771
11461090471
11461097063
11461101640
11461107805
11461112444
11461120256
11461125505
11461132524
11461137895
11461144487
11461149431
11461153215
11461161394
11461165422
11461172624
11461178239
11461184831
11461190263
11461196428
11461203020
11461208330
11461213273
11461220231
11461225969
11461233110
11461237199
11461245805
11461249467
11461257036
11461261308
11461269731
11461273881
11461281327
11461287065
11461292009
11461297258
11461304033
11461309526
11461315812
11461322160
11461329240
11461334672
11461339189
11461343766
11461349565
11461355851
11461362992
11461370317
11461376603
11461380021
11461388200
11461393876
11461399430
11461406754
11461413102
11461419145
11461428178
11461432572
11461439042
11461444169
11461450883
11461457902
11461464738
11461471085
11461478104
11461483659
11461491715
11461498246
11461503312
11461510453
11461516434
11461522355
11461527970
11461532792
11461536881
11461543290
11461549210
11461555680
11461560318
11461565934
11461570450
11461574845
11461580460
11461585709
11461589920
11461595963
11461602555
11461607254
11461611527
11461617386
11461623123
11461627701
11461633560
11461641373
11461646073
11461651810
11461656265
11461659622
11461667435
11461670853
11461677506
11461683487
11461690262
11461693924
11461700699
11461705521
11461710465
11461716690
11461721390
11461728165
11461734207
11461739395
11461745865
11461751236
11461756912
11461761612
11461768814
11461774124
11461783157
11461789261
11461794266
11461799332
11461805618
11461811783
11461815628
11461822281
11461827957
11461833816
11461840469
11461846512
11461851516
11461857254
11461861282
11461867630
11461871841
11461880508
11461887039
11461893081
11461898513
11461904495
11461909378
11461916824
11461923660
11461931106
11461936416
11461943435
11461948196
11461954971
11461957046
11461966262
11461974258
11461978958
11461985183
11461990615
11461994644
11462002029
11462008193
11462012954
11462018813
11462026138
11462031326
11462037246
11462042434
11462048476
11462053786
11462060867
11462065932
11462076064
11462085769
11462091567
11462096267
11462103530
11462106826
11462113967
11462117873
11462125319
11462129043
11462136977
11462140090
11462146743
11462151809
11462156569
11462161147
11462167006
11462172011
11462178603
11462182021
11462188857
11462193740
11462199111
11462203749
11462212172
11462217299
11462222853
11462229262
11462234816
11462239882
11462245925
11462251113
11462257826
11462262526
11462268630
11462273329
11462280348
11462283705
11462290419
11462296156
11462302016
11462307021
11462312880
11462319838
11462324782
11462329421
11462336379
11462341322
11462347731
11462354628
11462359877
11462366164
11462370680
11462376478
11462381728
11462387526
11462393202
11462401259
11462406508
11462413771
11462419020
11462425856
11462430617
11462437086
11462441969
11462446913
11462454603
11462458571
11462467299
11462473707
11462480909
11462485609
11462493361
11462498060
11462507704
11462511732
11462518507
11462523817
11462530653
11462535902
11462540602
11462545484
11462554701
11462560377
11462565382
11462571913
11462576856
11462581495
11462588026
11462594434
11462599989
11462606886
11462612318
11462619398
11462624159
11462628797
11462636182
11462641737
11462651136
11462664808
11462671522
11462678785
11462688734
11462693983
11462705274
11462712293
11462721143
11462728528
11462733899
11462742994
11462749646
11462756910
11462763013
11462770704
11462776563
11462785962
11462792737
11462797193
11462807691
11462814588
11462820325
11462826551
11462832288
11462840222
11462845594
11462856519
11462863904
11462870374
11462876965
11462883008
11462890943
11462895581
11462902722
11462909741
11462919690
11462927075
11462932996
11462939832
11462944714
11462954785
11462962231
11462968640
11462975171
11462986462
11462992993
11462995557
11463006360
11463013684
11463020642
11463029126
11463036694
11463043103
11463048718
11463058972
11463064221
11463074536
11463082287
11463091259
11463100048
11463108166
11463115795
11463119702
11463133923
11463140026
11463149182
11463156994
11463165295
11463172985
11463179272
11463188244
11463196362
11463205273
11463213574
11463220104
11463228588
11463236218
11463242504
11463249157
11463256969
11463263744
11463269482
11463281444
11463286571
11463296398
11463303600
11463306957
11463318188
11463323437
11463332226
11463336437
11463347912
11463354625
11463357372
11463368297
11463376293
11463384288
11463391002
11463398265
11463405101
11463411205
11463424144
11463430126
11463438243
11463446117
11463455394
11463465892
11463469676
11463480052
11463489208
11463498424
11463506297
11463509654
11463522228
11463528026
11463538219
11463545726
11463556041
11463564220
11463570872
11463583873
11463589915
11463600108
11463609080
11463618968
11463628489
11463636424
11463644786
11463656199
11463662913
11463667613
11463677134
11463681224
11463689891
11463695933
11463703685
11463709727
11463715159
11463725352
11463732737
11463741404
11463749827
11463758250
11463766184
11463773203
11463783213
11463787180
11463796824
11463804392
11463813731
11463820994
11463828684
11463835703
11463845408
11463852976
11463859446
11463867869
11463875864
11463886240
11463893870
11463897410
11463909495
11463918223
11463924570
11463932200
11463939890
11463954172
11463960337
11463967417
11463974314
11463982798
11463989695
11463997995
11464004099
11464009653
11464019480
11464026865
11464033640
11464040232
11464047617
11464053598
11464058298
11464066294
11464072763
11464083750
11464088144
11464093942
11464102853
11464108041
11464116464
11464123117
11464128976
11464135446
11464143442
11464153696
11464158700
11464167795
11464174692
11464182321
11464189157
11464196054
11464202402
11464210092
11464220102
11464227792
11464234079
11464240487
11464249765
11464256112
11464261239
11464268991
11464275644
11464284555
11464291085
11464298959
11464305551
11464310922
11464319711
11464326913
11464334970
11464342111
11464348702
11464358895
11464367196
11464377206
11464385629
11464392281
11464403024
11464406930
11464419808
11464428231
11464435738
11464447396
11464454476
11464462838
11464471749
11464479500
11464488106
11464495858
11464502755
11464515206
11464521432
11464530892
11464538826
11464541756
11464552987
11464557808
11464567208
11464574532
11464583138
11464590096
11464598214
11464603951
11464611824
11464616951
11464621041
11464627938
11464634346
11464642159
11464647591
11464653694
11464658455
11464664375
11464669197
11464674263
11464680794
11464686836
11464692330
11464697334
11464701729
11464708015
11464714668
11464719856
11464724068
11464727669
11464734810
11464738045
11464745918
11464749519
11464755806
11464760567
11464766609
11464771675
11464777473
11464783760
11464788154
11464794319
11464798347
11464804207
11464809578
11464815376
11464820320
11464825142
11464831001
11464836616
11464840156
11464846931
11464851631
11464857124
11464862373
11464869880
11464873664
11464880745
11464886238
11464892158
11464896919
11464902412
11464907173
11464914985
11464920784
11464927680
11464932624
11464938117
11464942817
11464947639
11464953193
11464959724
11464963874
11464971565
11464977912
11464982795
11464986701
11464995429
11465002937
11465008735
11465013618
11465026435
11465032783
11465044318
11465051093
11465062324
11465071784
11465078803
11465089301
11465097846
11465105720
11465111945
11465122687
11465131232
11465138862
11465150824
11465154425
11465170600
11465182624
11465192145
11465201483
11465209601
11465216559
11465227851
11465236151
11465242377
11465249091
11465255744
11465264166
11465267096
11465278021
11465285346
11465291693
11465298956
11465305731
11465312384
11465320929
11465327460
11465332709
11465340277
11465347296
11465354132
11465360419
11465368231
11465376288
11465382757
11465387884
11465394415
11465399237
11465404364
11465410650
11465415838
11465423651
11465427801
11465434942
11465440252
11465445318
11465451605
11465456427
11465460943
11465469671
11465474737
11465481390
11465486395
11465492010
11465497992
11465502874
11465508367
11465515509
11465521734
11465527471
11465532781
11465539617
11465544073
11465547552
11465555120
11465558843
11465566900
11465570928
11465577398
11465582708
11465589483
11465594366
11465599981
11465605291
11465611822
11465616888
11465623174
11465628545
11465633794
11465638250
11465643682
11465649480
11465655035
11465661504
11465667058
11465672002
11465677801
11465682317
11465688054
11465693059
11465699468
11465703191
11465710149
11465716070
11465720464
11465723943
11465731450
11465737554
11465745488
11465753057
11465758672
11465765508
11465771489
11465776433
11465786992
11465795415
11465804021
11465818059
11465825627
11465834172
11465841802
11465847478
11465857976
11465866643
11465873601
11465882024
11465890996
11465897160
11465904607
11465909917
11465915898
11465922734
11465928654
11465937077
11465940617
11465948613
11465952702
11465960454
11465963933
11465970708
11465976689
11465982243
11465986272
11465992924
11465997563
11466003117
11466008000
11466015019
11466020329
11466026555
11466031743
11466036747
11466043034
11466047307
11466053715
11466058476
11466063237
11466069401
11466075810
11466081486
11466086125
11466093266
11466097538
11466100895
11466108769
11466112858
11466120671
11466124272
11466132023
11466135319
11466142948
11466146305
11466152531
11466159794
11466165898
11466171269
11466177128
11466180546
11466187321
11466190800
11466197880
11466203190
11466209538
11466214909
11466221073
11466226322
11466231388
11466237492
11466242802
11466247318
11466255314
11466260319
11466267216
11466271976
11466279545
11466283756
11466288883
11466295353
11466301334
11466305912
11466309391
11466317753
11466324405
11466328800
11466334110
11466339176
11466344364
11466352115
11466358036
11466362430
11466367496
11466373783
11466378421
11466384342
11466389469
11466396060
11466401065
11466406497
11466411869
11466418521
11466423831
11466431400
11466437808
11466443057
11466454654
11466459659
11466467166
11466474002
11466479373
11466484866
11466491824
11466498172
11466505740
11466511905
11466516544
11466520816
11466528567
11466532046
11466539127
11466543094
11466550906
11466554690
11466562198
11466565738
11466572269
11466576968
11466582644
11466586978
11466595889
11466601260
11466606021
11466611819
11466617679
11466622317
11466628665
11466635196
11466642276
11466647281
11466653445
11466657657
11466663638
11466669314
11466674258
11466680056
11466687503
11466693850
11466697940
11466703250
11466706668
11466714114
11466720217
11466726382
11466732730
11466737307
11466743472
11466749636
11466755496
11466760256
11466763857
11466773074
11466777163
11466784487
11466790041
11466796267
11466801577
11466807986
11466813296
11466817873
11466824343
11466830996
11466835818
11466842532
11466847475
11466851076
11466859255
11466865481
11466871279
11466877138
11466882876
11466888857
11466894839
11466899782
11466905764
11466911989
11466917605
11466923830
11466931154
11466936403
11466940004
11466948488
11466952333
11466959963
11466965395
11466971071
11466976015
11466983400
11466988527
11466995180
11467000612
11467006472
11467012880
11467017336
11467023928
11467028200
11467036806
11467042726
11467049196
11467055177
11467062135
11467067751
11467075197
11467080141
11467088136
11467094057
11467100404
11467107057
11467111818
11467117677
11467122377
11467128053
11467135255
11467140016
11467143251
11467149782
11467155397
11467160524
11467165163
11467171998
11467175905
11467182741
11467188173
11467193971
11467198610
11467204530
11467208803
11467215028
11467219240
11467226686
11467231324
11467238038
11467243776
11467245607
11467254518
11467260133
11467264833
11467272950
11467279481
11467285218
11467291017
11467294374
11467301881
11467305421
11467311830
11467317628
11467325685
11467329896
11467336976
11467342286
11467348756
11467353578
11467359010
11467365174
