11246096026
11246101947
11246107379
11246113360
11246118365
11246124408
11246129473
11246134723
11246140948
11246146441
11246152911
11246159259
11246165789
11246172808
11246179156
11246184649
11246191180
11246199114
11246203875
11246210528
11246217181
11246223101
11246229083
11246238177
11246244097
11246248187
11246256854
11246263262
11246270159
11246276629
11246284075
11246290057
11246297259
11246304217
11246311785
11246318804
11246325213
11246331927
11246339434
11246345415
11246351885
11246360247
11246366228
11246370562
11246375933
11246380205
11246386431
11246390764
11246396502
11246400957
11246405169
11246410662
11246415972
11246420305
11246425310
11246429644
11246435320
11246440874
11246445696
11246451982
11246456377
11246461260
11246466997
11246471208
11246475725
11246483293
11246490434
11246497820
11246504778
11246511369
11246518633
11246528642
11246534197
11246539385
11246544817
11246551347
11246556902
11246562700
11246567766
11246573686
11246579057
11246584550
11246590776
11246597185
11246601945
11246608293
11246613847
11246620439
11246626848
11246632036
11246640764
11246645463
11246652177
11246659379
11246664140
11246672929
11246678666
11246684831
11246689775
11246696428
11246702470
11246710038
11246716630
11246722673
11246727739
11246735246
11246743791
11246750016
11246755632
11246760575
11246767716
11246775651
11246780046
11246788468
11246794633
11246800736
11246806046
11246812760
11246819108
11246826371
11246833512
11246839066
11246845719
11246852616
11246856767
11246865189
11246871903
11246878312
11246885331
11246891190
11246897416
11246903336
11246909013
11246917802
11246923905
11246930131
11246936295
11246942704
11246949906
11246958329
11246963395
11246971940
11246979264
11246987748
11246995621
11247004105
11247011490
11247020035
11247028031
11247034134
11247044327
11247051285
11247060868
11247068741
11247077713
11247084854
11247094437
11247098221
11247107132
11247111099
11247119766
11247123367
11247131180
11247137650
11247144608
11247151505
11247158279
11247162247
11247172562
11247179886
11247187210
11247195450
11247201187
11247205521
11247215713
11247220108
11247230423
11247234756
11247243851
11247248245
11247258072
11247264786
11247271377
11247277725
11247285721
11247292312
11247300857
11247307144
11247314590
11247323501
11247329544
11247337844
11247345962
11247352310
11247360977
11247367141
11247372146
11247383254
11247388626
11247398513
11247403518
11247414260
11247421157
11247428726
11247435684
11247443435
11247452712
11247458144
11247466384
11247474685
11247481033
11247489333
11247497390
11247504775
11247513015
11247520339
11247526382
11247533401
11247541457
11247548293
11247556777
11247563796
11247570998
11247579726
11247586867
11247593276
11247602065
11247611037
11247618239
11247626113
11247631911
11247640334
11247647109
11247656203
11247661696
11247672377
11247681044
11247687758
11247695448
11247705031
11247712477
11247719801
11247728713
11247736952
11247745497
11247752638
11247761183
11247768996
11247776137
11247785231
11247791457
11247799025
11247809706
11247821059
11247830092
11247837721
11247846205
11247852858
11247861036
11247865858
11247877333
11247885756
11247894178
11247899061
11247907423
11247914259
11247922621
11247928724
11247938368
11247944776
11247953688
11247959974
11247967848
11247976209
11247983656
11247991834
11247998487
11248006666
11248011366
11248022108
11248026930
11248037061
11248041883
11248051893
11248058851
11248067030
11248073743
11248082349
11248088392
11248096204
11248104322
11248111402
11248119764
11248126111
11248134473
11248145521
11248151502
11248161451
11248167676
11248175916
11248184522
11248192823
11248199903
11248204725
11248215100
11248219922
11248230542
11248238660
11248246961
11248251905
11248261121
11248268140
11248276380
11248282483
11248291028
11248297254
11248306958
11248315198
11248321179
11248329968
11248338818
11248345044
11248352795
11248360974
11248365979
11248376172
11248380933
11248391003
11248398938
11248406933
11248415784
11248421765
11248430554
11248437085
11248445325
11248452832
11248459424
11248468884
11248475232
11248479992
11248490735
11248498669
11248505200
11248512341
11248521435
11248528820
11248536755
11248543530
11248551953
11248558056
11248566601
11248576061
11248584301
11248591686
11248603771
11248611340
11248618298
11248628002
11248636303
11248643566
11248651379
11248659924
11248668285
11248674389
11248679150
11248691296
11248696361
11248706432
11248713207
11248721630
11248728649
11248735363
11248744274
11248751781
11248757824
11248766247
11248774425
11248781505
11248788402
11248793468
11248805248
11248810009
11248819835
11248828014
11248834178
11248841014
11248850963
11248857738
11248865795
11248872753
11248879833
11248888805
11248895885
11248902294
11248909679
11248918285
11248925487
11248933727
11248941173
11248947154
11248955699
11248963878
11248968700
11248979625
11248987865
11248993907
11249000865
11249010020
11249016978
11249024730
11249031077
11249039439
11249047679
11249055003
11249063121
11249070872
11249081187
11249091319
11249099437
11249105357
11249117015
11249125438
11249133616
11249141795
11249148143
11249155039
11249162974
11249169078
11249178050
11249187022
11249194651
11249200938
11249209239
11249215586
11249223887
11249231944
11249238413
11249246836
11249254771
11249263071
11249269480
11249277537
11249282358
11249292551
11249296885
11249307078
11249314219
11249322153
11249328318
11249335825
11249343638
11249349680
11249358347
11249367319
11249377817
11249385202
11249392221
11249402475
11249408823
11249417612
11249427195
11249434092
11249448435
11249453623
11249464426
11249471567
11249478891
11249487680
11249495676
11249502451
11249510263
11249519418
11249525461
11249533762
11249541391
11249551035
11249558237
11249571664
11249579538
11249585641
11249590585
11249601205
11249606027
11249616159
11249623239
11249631845
11249638986
11249646860
11249653695
11249661935
11249668039
11249677011
11249683114
11249691781
11249701120
11249709481
11249717477
11249723581
11249731820
11249736520
11249745675
11249753060
11249762277
11249767221
11249775033
11249780709
11249789193
11249793221
11249801705
11249810372
11249816049
11249826791
11249835580
11249842355
11249849130
11249857430
11249864999
11249871041
11249875924
11249887154
11249895760
11249903939
11249908639
11249918038
11249925484
11249932808
11249939644
11249947091
11249956734
11249963997
11249969674
11249977364
11249982918
11249991768
11249997628
11250005745
11250011727
11250020760
11250028206
11250036690
11250042305
11250050667
11250056404
11250065254
11250074105
11250081124
11250089974
11250097054
11250104988
11250112129
11250117561
11250124580
11250134712
11250143074
11250151436
11250159737
11250168831
11250175484
11250184578
11250193306
11250202095
11250210335
11250220039
11250226082
11250234566
11250241157
11250249702
11250258186
11250266182
11250272285
11250279060
11250286873
11250292366
11250300178
11250307991
11250314582
11250321357
11250329048
11250336433
11250343086
11250353889
11250359992
11250365669
11250375251
11250383308
11250391792
11250399909
11250406074
11250413764
11250421638
11250427802
11250434638
11250442085
11250453010
11250459174
11250466376
11250474921
11250481574
11250491889
11250500129
11250509223
11250517097
11250522529
11250531135
11250538703
11250546393
11250554633
11250562812
11250568915
11250575446
11250583442
11250591376
11250599799
11250606635
11250614569
11250623297
11250630439
11250637580
11250644782
11250652838
11250660712
11250670539
11250678534
11250688422
11250696417
11250705573
11250712958
11250725104
11250732245
11250740057
11250749274
11250755438
11250763556
11250772406
11250781317
11250788397
11250796515
11250804266
11250812689
11250820685
11250827887
11250838873
11250846258
11250856024
11250863653
11250871893
11250877935
11250886541
11250895697
11250902960
11250910894
11250918524
11250923773
11250931341
11250940924
11250948309
11250952642
11250961492
11250968695
11250974798
11250983709
11250991644
11251000555
11251005621
11251015936
11251019842
11251029241
11251036443
11251044500
11251053594
11251058965
11251067144
11251073919
11251080266
11251088445
11251094427
11251104131
11251111028
11251117681
11251126836
11251131780
11251138677
11251147466
11251153753
11251161626
11251166753
11251176091
11251183416
11251192510
11251200628
11251206365
11251215215
11251221013
11251229375
11251238286
11251246343
11251254521
11251260930
11251270146
11251274480
11251283452
11251290776
11251298955
11251306401
11251314763
11251323064
11251330815
11251337163
11251343877
11251351872
11251359746
11251368413
11251376530
11251382878
11251390507
11251398930
11251406804
11251415227
11251421269
11251429204
11251436101
11251443608
11251451359
11251459721
11251468571
11251475590
11251484562
11251491398
11251497746
11251508671
11251513371
11251524418
11251532597
11251541508
11251549137
11251555119
11251564335
11251570317
11251578129
11251586430
11251594120
11251599003
11251607243
11251613163
11251620121
11251627567
11251634220
11251642399
11251649418
11251655399
11251664188
11251671207
11251680607
11251686588
11251693851
11251700565
11251708439
11251714847
11251723697
11251730655
11251738285
11251743229
11251752567
11251758732
11251766666
11251775272
11251781192
11251791141
11251797916
11251805118
11251812748
11251820133
11251828495
11251836124
11251844364
11251852359
11251858463
11251865421
11251873721
11251882205
11251889163
11251898746
11251909122
11251917300
11251925540
11251932559
11251940738
11251949100
11251958499
11251967166
11251973331
11251981082
11251989688
11251999698
11252005862
11252014712
11252021609
11252029178
11252036624
11252047427
11252053897
11252063540
11252071658
11252079837
11252089236
11252096804
11252105044
11252113955
11252122317
11252132144
11252138369
11252144900
11252154238
11252161318
11252170779
11252181582
11252189456
11252197268
11252204531
11252215456
11252222842
11252230166
11252241518
11252255923
11252261477
11252272707
11252278078
11252288454
11252293581
11252304812
11252312624
11252320620
11252327456
11252335573
11252342592
11252350649
11252359621
11252365358
11252373781
11252383608
11252390810
11252399660
11252406496
11252416567
11252423342
11252432009
11252440431
11252447084
11252455385
11252462770
11252471254
11252476259
11252485842
11252490663
11252499696
11252506838
11252514894
11252523683
11252530275
11252536378
11252545229
11252551637
11252559877
11252568178
11252575563
11252583681
11252591066
11252599183
11252605775
11252613954
11252618776
11252629274
11252637208
11252645692
11252652711
11252660096
11252666322
11252674623
11252683473
11252690736
11252698487
11252709413
11252716127
11252725282
11252732362
11252738404
11252750245
11252755067
11252764283
11252771668
11252781739
11252786622
11252796998
11252803834
11252810792
11252819642
11252825379
11252834290
11252842591
11252849244
11252857056
11252865479
11252872803
11252881043
11252885926
11252895875
11252900880
11252911561
11252919983
11252926209
11252933106
11252940552
11252949402
11252956604
11252963257
11252971070
11252979371
11252987061
11252995362
11253002198
11253008301
11253016297
11253025452
11253030823
11253042420
11253047730
11253057556
11253065552
11253074219
11253081970
11253090210
11253096863
11253104920
11253112366
11253119751
11253128235
11253134583
11253142029
11253147766
11253155456
11253159912
11253169556
11253174072
11253183838
11253191650
11253197388
11253203674
11253212280
11253219665
11253227478
11253233703
11253241394
11253248047
11253256042
11253261596
11253270141
11253276916
11253286010
11253291626
11253301208
11253307495
11253315795
11253322082
11253330139
11253338684
11253345519
11253353637
11253358398
11253368408
11253373290
11253384216
11253391174
11253401183
11253406493
11253415099
11253421996
11253430053
11253439147
11253445251
11253454162
11253460265
11253468749
11253477538
11253483825
11253491149
11253499267
11253507689
11253514098
11253518981
11253530394
11253535582
11253544066
11253551207
11253559447
11253565856
11253575805
11253582030
11253590026
11253596495
11253604369
11253612731
11253618956
11253628234
11253633116
11253642150
11253649108
11253659422
11253669371
11253675780
11253681212
11253692503
11253697508
11253707030
11253714110
11253721983
11253729247
11253737547
11253744688
11253753477
11253760069
11253768858
11253775511
11253782530
11253793883
11253800108
11253807005
11253818113
11253823729
11253833861
11253841063
11253849608
11253857603
11253867125
11253873899
11253882383
11253888121
11253895994
11253903440
11253909422
11253917478
11253925535
11253932981
11253940245
11253947569
11253953489
11253960996
11253965452
11253976743
11253984251
11253991697
11253996153
11254007078
11254014219
11254020017
11254026487
11254034910
11254041257
11254049924
11254056272
11254063657
11254070127
11254077756
11254083311
11254092527
11254099119
11254107480
11254113767
11254121335
11254129575
11254136533
11254142087
11254149656
11254158872
11254165586
11254174009
11254181577
11254187680
11254196225
11254204587
11254211606
11254220395
11254225644
11254235349
11254240476
11254250791
11254257810
11254265744
11254272763
11254282041
11254289060
11254296201
11254302548
11254312131
11254318234
11254326779
11254334958
11254341550
11254350156
11254358456
11254364682
11254371579
11254380307
11254387570
11254395383
11254401547
11254410092
11254419369
11254426144
11254432980
11254440548
11254448483
11254455319
11254463681
11254472470
11254479367
11254487484
11254495846
11254503903
11254512081
11254519589
11254526364
11254531430
11254543759
11254550045
11254565853
11254573727
11254585079
11254592709
11254599850
11254608944
11254618343
11254626583
11254634762
11254642391
11254654049
11254659969
11254670589
11254679684
11254686092
11254695064
11254702694
11254710567
11254718258
11254725460
11254732967
11254737606
11254747371
11254752071
11254760982
11254769527
11254777462
11254784725
11254792415
11254798336
11254805843
11254810482
11254820308
11254828548
11254836177
11254840633
11254849971
11254854427
11254865291
11254872493
11254878230
11254884578
11254893916
11254898616
11254906734
11254913081
11254921809
11254931148
11254937923
11254944209
11254952266
11254958003
11254965144
11254973567
11254981441
11254988521
11254997432
11255005549
11255011592
11255019832
11255024653
11255035090
11255043208
11255051570
11255060298
11255068721
11255073542
11255083064
11255090144
11255098262
11255105281
11255113825
11255120661
11255129634
11255135798
11255144282
11255152522
11255159724
11255165888
11255170710
11255182063
11255189631
11255202204
11255205073
11255217097
11255225397
11255231867
11255238886
11255246394
11255252863
11255263727
11255270746
11255277338
11255286249
11255292231
11255300654
11255308527
11255316706
11255325190
11255333429
11255339716
11255348261
11255355280
11255363764
11255368586
11255378290
11255386591
11255394953
11255399958
11255409967
11255417414
11255427790
11255435541
11255444086
11255451593
11255460993
11255467523
11255476251
11255483148
11255490595
11255496393
11255504816
11255510675
11255519586
11255527582
11255533746
11255541986
11255547601
11255555170
11255561761
11255569879
11255577997
11255583551
11255592035
11255597772
11255605584
11255613824
11255620172
11255628534
11255633539
11255643731
11255650689
11255658990
11255665948
11255673272
11255682305
11255689630
11255699639
11255708490
11255715753
11255722711
11255731683
11255739068
11255745233
11255752801
11255761346
11255769036
11255776482
11255783074
11255790765
11255793389
11255804864
11255812493
11255821404
11255827569
11255836236
11255844353
11255852715
11255857842
11255866448
11255873467
11255883355
11255890313
11255897454
11255906426
11255913994
11255920342
11255928704
11255935051
11255944268
11255951165
11255959649
11255966729
11255973198
11255982231
11255988762
11255997246
11256003777
11256011956
11256019768
11256028374
11256036858
11256043205
11256048027
11256059807
11256065178
11256075005
11256083305
11256092705
11256099785
11256105949
11256111626
11256119804
11256125603
11256134148
11256140434
11256149773
11256156120
11256165153
11256174126
11256180778
11256190178
11256196892
11256211235
11256219597
11256227226
11256233879
11256243827
11256250358
11256254997
11256269218
11256276420
11256283866
11256290641
11256298149
11256305412
11256312919
11256320487
11256326469
11256332755
11256340751
11256347160
11256356193
11256360648
11256369987
11256376212
11256383659
11256390250
11256398612
11256404960
11256411369
11256419425
11256426444
11256432059
11256440482
11256448844
11256455558
11256463859
11256472220
11256479178
11256488517
11256496940
11256502433
11256512809
11256519584
11256527091
11256533622
11256541129
11256548514
11256556144
11256563529
11256569327
11256577628
11256583915
11256590811
11256598929
11256605216
11256613822
11256620841
11256629813
11256636344
11256643057
11256649527
11256658499
11256664786
11256672537
11256678214
11256686453
11256696524
11256703238
11256712271
11256720023
11256725638
11256732413
11256740164
11256746939
11256755301
11256762686
11256770865
11256777518
11256785818
11256790701
11256800894
11256809073
11256817556
11256826407
11256832815
11256839773
11256848013
11256854849
11256864737
11256871695
11256879568
11256886221
11256896353
11256902700
11256909841
11256918081
11256924734
11256933035
11256941152
11256947683
11256956960
11256965139
11256970266
11256980032
11256989126
11256996084
11257003835
11257013967
11257027456
11257033498
11257042898
11257048635
11257058645
11257064382
11257071706
11257079580
11257088186
11257096303
11257102773
11257111806
11257119558
11257125722
11257132924
11257141164
11257148122
11257156423
11257160878
11257170644
11257174916
11257183400
11257187490
11257197316
11257201589
11257212026
11257216115
11257225209
11257229299
11257238088
11257244008
11257251821
11257258473
11257266530
11257272511
11257280446
11257286183
11257293141
11257299001
11257306020
11257314259
11257320546
11257328725
11257338856
11257343434
11257354726
11257361134
11257369618
11257377614
11257385121
11257392201
11257399891
11257407216
11257413441
11257418568
11257430958
11257438954
11257447316
11257454701
11257461781
11257469044
11257476612
11257482472
11257491200
11257499989
11257505970
11257513539
11257521961
11257530873
11257537464
11257545887
11257553272
11257562489
11257571034
11257574146
11257585560
11257593861
11257602039
11257608753
11257617359
11257622547
11257632313
11257637073
11257647266
11257654346
11257663502
11257670338
11257678394
11257684803
11257693775
11257700001
11257709034
11257715381
11257724415
11257730640
11257735462
11257747913
11257753345
11257763782
11257772388
11257781971
11257787281
11257795948
11257802967
11257812427
11257822376
11257830127
11257837329
11257844837
11257851795
11257860278
11257865588
11257876086
11257880969
11257892017
11257896838
11257905994
11257912463
11257920154
11257926379
11257935107
11257941760
11257950000
11257956470
11257964404
11257971484
11257979602
11257985949
11257993884
11258002978
11258011462
11258017199
11258025866
11258031604
11258040027
11258046313
11258051074
11258062060
11258070605
11258076586
11258084521
11258092028
11258096423
11258105822
11258110217
11258118579
11258125720
11258135546
11258142443
11258150561
11258156786
11258165698
11258171862
11258181200
11258189379
11258197741
11258204028
11258211962
11258220202
11258227953
11258236315
11258243761
11258249987
11258258593
11258268297
11258274889
11258286669
11258296251
11258305956
11258313036
11258320360
11258329210
11258337633
11258344408
11258352892
11258359423
11258367662
11258374315
11258381029
11258388842
11258399401
11258404344
11258414110
11258420824
11258428026
11258434740
11258444566
11258449754
11258460375
11258465379
11258475755
11258480760
11258491258
11258496019
11258506578
11258512498
11258522691
11258527635
11258538011
11258543260
11258554124
11258561510
11258569505
11258580308
11258588304
11258595811
11258603990
11258612779
11258619310
11258627549
11258633958
11258647447
11258653367
11258662034
11258667955
11258676622
11258682420
11258686936
11258697373
11258707994
11258715745
11258723069
11258731187
11258738938
11258745103
11258750108
11258761277
11258766282
11258776597
11258781541
11258791428
11258798386
11258805344
11258814317
11258820298
11258828843
11258836167
11258844590
11258851914
11258860032
11258866990
11258875229
11258878098
11258891587
11258898911
11258906846
11258912339
11258918931
11258926316
11258933518
11258939866
11258945908
11258955552
11258963425
11258969651
11258978195
11258983078
11258993088
11258997849
11259008347
11259013291
11259023300
11259028610
11259039475
11259044907
11259053818
11259060593
11259069687
11259076706
11259084885
11259091537
11259099716
11259106552
11259114975
11259121994
11259128525
11259135544
11259143722
11259152634
11259158981
11259165085
11259175155
11259181930
11259189560
11259198471
11259206833
11259212875
11259221542
11259230087
11259239425
11259246200
11259254013
11259264083
11259272689
11259280441
11259289657
11259298385
11259303756
11259314071
11259320907
11259328109
11259335494
11259348373
11259356674
11259364547
11259371932
11259382064
11259389754
11259399398
11259408675
11259418197
11259422469
11259430953
11259437301
11259446944
11259452926
11259460189
11259466598
11259474654
11259480697
11259487777
11259493575
11259502059
11259507979
11259514510
11259522933
11259530013
11259536361
11259543624
11259549483
11259557418
11259562606
11259570235
11259578963
11259585494
11259593123
11259600203
11259606063
11259612349
11259620345
11259626265
11259636153
11259643843
11259649580
11259658431
11259664229
11259672286
11259678084
11259687117
11259694685
11259704146
11259710554
11259715071
11259724898
11259729353
11259739607
11259744124
11259754378
11259761336
11259772749
11259780440
11259789290
11259797346
11259805952
11259809126
11259823042
11259831770
11259840559
11259845869
11259856062
11259864119
11259873335
11259878889
11259888716
11259896223
11259904402
11259911299
11259920149
11259929304
11259936079
11259944135
11259952558
11259959211
11259968488
11259976850
11259984235
11259992658
11259999555
11260005964
11260014448
11260022993
11260027875
11260038312
11260043500
11260053327
11260060529
11260067060
11260076215
11260083906
11260090436
11260100080
11260106366
11260115705
11260122724
11260132673
11260139936
11260149091
11260155805
11260163495
11260174237
11260180707
11260191999
11260197248
11260206708
11260213056
11260221845
11260226605
11260236615
11260243085
11260250348
11260258527
11260265118
11260270795
11260280682
11260287823
11260296002
11260304181
11260309613
11260317181
11260324933
11260332562
11260338910
11260346966
11260354413
11260362042
11260368390
11260376935
11260385052
11260391217
11260400128
11260406659
11260414105
11260423382
11260430828
11260438275
11260445294
11260454266
11260460797
11260468670
11260480450
11260488262
11260495037
11260502667
11260508465
11260516155
11260520611
11260530621
11260535381
11260545208
11260549725
11260559002
11260565472
11260574627
11260579144
11260589703
11260596600
11260606060
11260612957
11260620891
11260628155
11260636455
11260642864
11260651836
11260658428
11260667339
11260673565
11260682354
11260690654
11260698345
11260705425
11260714153
11260722820
11260727642
11260737835
11260742961
11260753276
11260760234
11260767986
11260774944
11260783061
11260792034
11260798992
11260805400
11260814189
11260820415
11260829936
11260836162
11260844158
11260852886
11260862468
11260868755
11260877788
11260884074
11260889201
11260899943
11260904826
11260915568
11260924357
11260937053
11260945964
11260953288
11260963420
11260970378
11260977946
11260987163
11260998820
11261005351
11261012675
11261020976
11261026347
11261035624
11261041728
11261049296
11261058024
11261063761
11261071879
11261077616
11261086222
11261093974
11261100260
11261107768
11261115763
11261123332
11261129862
11261137553
11261143900
11261151652
11261158854
11261164591
11261172709
11261180155
11261184611
11261193827
11261200358
11261207987
11261214884
11261225260
11261229838
11261239908
11261246866
11261254252
11261261210
11261270487
11261276896
11261285013
11261291788
11261299662
11261305521
11261313334
11261318949
11261326944
11261335428
11261344034
11261352457
11261358988
11261367227
11261374369
11261382852
11261391153
11261397562
11261405435
11261413858
11261419412
11261429544
11261436502
11261444254
11261450662
11261459085
11261465433
11261474100
11261484903
11261493143
11261500101
11261508401
11261526590
11261534463
11261543008
11261551736
11261560098
11261567239
11261573404
11261582315
11261588785
11261593667
11261604837
11261613687
11261622110
11261629129
11261637063
11261642251
11261651956
11261657022
11261667764
11261676980
11261683023
11261687905
11261698098
11261702676
11261714883
11261724770
11261733743
11261740395
11261754922
11261761086
11261767068
11261776284
11261784646
11261791726
11261800454
11261812905
11261817544
11261826699
11261834267
11261841958
11261846657
11261855874
11261862893
11261870217
11261876442
11261885232
11261891884
11261899636
11261905617
11261913735
11261921914
11261928627
11261936989
11261943764
11261949440
11261957497
11261965187
11261971535
11261980263
11261987648
11261994911
11262002968
11262011208
11262016701
11262024452
11262032326
11262040627
11262048073
11262055824
11262061806
11262069313
11262073830
11262083107
11262091408
11262097389
11262103981
11262114113
11262118873
11262127663
11262135170
11262143104
11262152138
11262159340
11262165993
11262174904
11262181129
11262189674
11262198158
11262204994
11262213234
11262220619
11262229103
11262237342
11262245582
11262252662
11262261207
11262265907
11262277137
11262282264
11262292457
11262300758
11262309425
11262315711
11262324806
11262332923
11262339332
11262345313
11262352638
11262361488
11262370948
11262377540
11262384010
11262392310
11262397132
11262406715
11262413734
11262421424
11262428870
11262440040
11262445411
11262455482
11262460059
11262469886
11262478553
11262485450
11262496741
11262503577
11262514746
11262521277
11262530188
11262539710
11262549597
11262556372
11262564246
11262572364
11262580298
11262588721
11262597022
11262603980
11262611609
11262620520
11262626624
11262634924
11262641394
11262647070
11262655432
11262662878
11262669470
11262677649
11262684424
11262691931
11262699133
11262706824
11262713721
11262719580
11262725989
11262734656
11262742834
11262750525
11262758276
11262764013
11262770239
11262779699
11262786657
11262793737
11262803015
11262811255
11262818151
11262825659
11262831884
11262840490
11262848730
11262855017
11262863867
11262868872
11262879614
11262884680
11262895117
11262899999
11262909887
11262916967
11262924474
11262933508
11262939733
11262948705
11262956579
11262962988
11262970983
11262979284
11262985998
11262994726
11263001989
11263010473
11263015417
11263024816
11263031896
11263039464
11263046422
11263055211
11263064428
11263072728
11263079625
11263087804
11263094213
11263101781
11263110021
11263116491
11263126073
11263134374
11263142553
11263150853
11263157079
11263166051
11263172093
11263180211
11263189244
11263196568
11263204991
11263211949
11263220067
11263226293
11263233373
11263241429
11263250096
11263259007
11263265233
11263269933
11263281651
11263290013
11263296788
11263302281
11263314488
11263327000
11263334080
11263344151
11263351109
11263360508
11263369481
11263375401
11263383275
11263391087
11263399510
11263405674
11263413426
11263420872
11263428318
11263433018
11263441197
11263447728
11263456150
11263462742
11263471226
11263477757
11263484593
11263492832
11263498570
11263506687
11263513828
11263521946
11263527683
11263535923
11263543980
11263550449
11263558445
11263566990
11263573399
11263581821
11263588779
11263597263
11263602146
11263611240
11263618137
11263626987
11263634250
11263643223
11263651035
11263658298
11263667515
11263674900
11263681247
11263689731
11263698520
11263707553
11263713840
11263722202
11263728672
11263737400
11263745700
11263750583
11263760959
11263766452
11263776035
11263783054
11263792209
11263799350
11263807041
11263813205
11263821201
11263829807
11263836948
11263845187
11263852084
11263860446
11263866977
11263875156
11263880344
11263889133
11263896762
11263904819
11263914096
11263920627
11263929721
11263937411
11263943637
11263951144
11263959445
11263966281
11263974582
11263980685
11263990085
11263994845
11264005832
11264010775
11264021334
11264026278
11264036593
11264043734
11264051181
11264058016
11264068148
11264074618
11264081759
11264090060
11264107516
11264115756
11264123812
11264133822
11264141756
11264150240
11264157320
11264170443
11264175326
11264184847
11264189425
11264200533
11264207308
11264215670
11264220553
11264230562
11264235079
11264244478
11264252962
11264258822
11264265230
11264272677
11264279146
11264288668
11264294954
11264302034
11264308504
11264315584
11264323824
11264331392
11264337557
11264346712
11264352510
11264360994
11264366731
11264374422
11264381868
11264389986
11264399446
11264406038
11264411897
11264420137
11264428499
11264436800
11264443208
11264451814
11264458345
11264467317
11264475435
11264483919
11264490266
11264497224
11264505525
11264512483
11264522005
11264529207
11264536409
11264542573
11264551057
11264559480
11264567781
11264574250
11264584443
11264591645
11264600862
11264609040
11264614534
11264623750
11264631807
11264638032
11264645173
11264654939
11264661836
11264668550
11264677583
11264684602
11264690827
11264699494
11264707795
11264714387
11264722810
11264727692
11264739167
11264746247
11264753877
11264762238
11264769501
11264776704
11264786286
11264793183
11264800141
11264806367
11264815522
11264821747
11264831940
11264838227
11264846772
11264853058
11264862336
11264868622
11264878144
11264884430
11264891632
11264900177
11264907868
11264918488
11264926361
11264936127
11264943756
11264951020
11264960663
11264967743
11264977509
11264984833
11264992401
11264999115
11265008026
11265016449
11265024811
11265029816
11265038849
11265047089
11265053131
11265060272
11265069855
11265074249
11265083099
11265090057
11265098541
11265105133
11265114899
11265122101
11265129547
11265134002
11265142059
11265150238
11265158478
11265165558
11265173309
11265179779
11265188446
11265194488
11265204254
11265210723
11265218353
11265226654
11265233001
11265241546
11265250274
11265258636
11265265106
11265273590
11265278594
11265288970
11265293853
11265302764
11265309905
11265319122
11265325958
11265333465
11265339813
11265348296
11265356597
11265363738
11265372222
11265378692
11265387054
11265391875
11265400909
11265407989
11265417632
11265424773
11265432403
11265438933
11265449187
11265456084
11265463103
11265471343
11265479339
11265485564
11265494780
11265503936
11265511931
11265518218
11265523040
11265534270
11265539275
11265549773
11265556975
11265564849
11265571990
11265579741
11265586089
11265595732
11265602019
11265610747
11265619109
11265626311
11265632658
11265641570
11265649809
11265654936
11265664275
11265672087
11265679228
11265686369
11265694182
11265704069
11265712492
11265720366
11265727568
11265736540
11265743437
11265752897
11265761747
11265768766
11265780973
11265787565
11265797514
11265803801
11265812284
11265821012
11265829069
11265834745
11265843962
11265849699
11265857817
11265863615
11265871366
11265879118
11265883817
11265893278
11265901029
11265906828
11265913175
11265922514
11265929105
11265936124
11265942533
11265951444
11265957609
11265965177
11265971586
11265981534
11265987943
11265995939
11266004117
11266011381
11266019987
11266026883
11266035184
11266043180
11266049466
11266058133
11266064359
11266071439
11266080838
11266089017
11266097867
11266104703
11266112455
11266118741
11266128507
11266134732
11266143949
11266150174
11266159329
11266165738
11266174710
11266183255
11266186063
11266197598
11266202542
11266213040
11266218472
11266228543
11266235562
11266244656
11266251736
11266259000
11266265225
11266274380
11266284207
11266291531
11266297818
11266306973
11266315213
11266322293
11266331265
11266334195
11266347256
11266353482
11266362027
11266368985
11266378445
11266382840
11266392056
11266398465
11266405056
11266413906
11266421658
11266428128
11266434902
11266443325
11266449368
11266455166
11266463040
11266471096
11266478726
11266486782
11266493374
11266500942
11266507961
11266518093
11266526089
11266536160
11266544216
11266550076
11266558620
11266568203
11266575893
11266581692
11266590420
11266596340
11266603969
11266614284
11266623318
11266630153
11266638759
11266645656
11266653469
11266664089
11266672878
11266680019
11266688503
11266698024
11266704250
11266714321
11266720729
11266728664
11266736476
11266741054
11266749721
11266755763
11266764919
11266772304
11266777980
11266786220
11266795375
11266799403
11266808498
11266814418
11266821742
11266828151
11266835902
11266842921
11266851161
11266856959
11266864955
11266870814
11266878261
11266884303
11266892055
11266898891
11266907252
11266914271
11266922328
11266929164
11266936976
11266943812
11266952479
11266959742
11266969447
11266977504
11266983607
11266990382
11266998378
11267006556
11267025172
11267042750
11267053309
11267063258
11267070460
11267081751
11267088526
11267101527
11267110987
11267118556
11267125208
11267131739
11267139918
11267147303
11267154688
11267161829
11267169459
11267177393
11267184046
11267192103
11267198328
11267205958
11267214319
11267220606
11267230005
11267236719
11267243250
11267249537
11267256922
11267264856
11267278833
11267284571
11267293238
11267299768
11267309595
11267318689
11267326502
11267334192
11267340235
11267347803
11267355554
11267363611
11267371790
11267377039
11267385401
11267392359
11267399378
11267407495
11267417688
11267422815
11267430444
11267435266
11267445459
11267452600
11267460229
11267470483
11267477258
11267484399
11267491723
11267499719
11267507593
11267514490
11267521081
11267530359
11267537500
11267544275
11267550744
11267558252
11267569116
11267577172
11267585839
11267593103
11267600244
11267610803
11267619287
11267628137
11267634423
11267643640
11267652062
11267659081
11267667993
11267675134
11267683312
11267690331
11267699059
11267707543
11267713220
11267721398
11267727868
11267737389
11267745385
11267752892
11267759484
11267766686
11267773400
11267781579
11267790063
11267800011
11267807091
11267815819
11267821068
11267829979
11267836876
11267843956
11267853844
11267862389
11267869347
11267878685
11267885826
11267892784
11267899132
11267908532
11267915367
11267925011
11267933251
11267939171
11267946923
11267953087
11267961144
11267969933
11267976830
11267987755
11267996178
11268001305
11268010826
11268019432
11268026451
11268033531
11268040733
11268048180
11268057701
11268064293
11268072410
11268080589
11268087547
11268093956
11268100120
11268109459
11268117637
11268124046
11268134300
11268142112
11268153343
11268160728
11268170372
11268175315
11268184532
11268191246
11268200828
11268207725
11268215171
11268222190
11268230369
11268236350
11268247520
11268251609
11268260764
11268266685
11268274742
11268283042
11268288474
11268298484
11268306236
11268313133
11268320701
11268326804
11268334129
11268340232
11268349998
11268358359
11268367271
11268374412
11268383323
11268391013
11268398704
11268406943
11268417624
11268425620
11268433677
11268440635
11268450827
11268457236
11268467978
11268474265
11268482688
11268491294
11268499472
11268509055
11268520163
11268529502
11268539328
11268547629
11268554526
11268563193
11268570456
11268578940
11268588217
11268598410
11268605734
11268614767
11268621848
11268630698
11268637411
11268647116
11268653525
11268662192
11268667929
11268675192
11268683005
11268690451
11268697409
11268702597
11268715048
11268720236
11268731161
11268736654
11268748434
11268756064
11268762655
11268770895
11268782248
11268787436
11268797689
11268802267
11268811544
11268818075
11268826620
11268833578
11268842855
11268849203
11268855917
11268864157
11268870992
11268876730
11268884908
11268891134
11268901388
11268907858
11268916036
11268921896
11268929403
11268937215
11268939779
11268952169
11268960592
11268968954
11268975240
11268982992
11268985555
11268996480
11269000936
11269010763
11269018270
11269027181
11269031759
11269041097
11269047445
11269054769
11269060628
11269068197
11269075277
11269086202
11269093038
11269099202
11269107015
11269114217
11269120259
11269127584
11269135823
11269144124
11269150655
11269158772
11269164754
11269171651
11269180196
11269184712
11269194051
11269201253
11269210957
11269215474
11269224812
11269231465
11269239033
11269245564
11269252766
11269259114
11269267720
11269276326
11269284016
11269293233
11269302205
11269310078
11269320271
11269328816
11269337666
11269343770
11269351399
11269359639
11269368489
11269374897
11269379780
11269389790
11269398274
11269404438
11269412129
11269419880
11269424336
11269432881
11269439228
11269446858
11269456745
11269465107
11269472004
11269478352
11269486591
11269494587
11269501118
11269508381
11269517536
11269527607
11269533710
11269541462
11269550190
11269555073
11269566181
11269570820
11269580097
11269589680
11269595966
11269602619
11269611896
11269616047
11269624653
11269630695
11269638813
11269645527
11269653217
11269659076
11269666828
11269672931
11269679767
11269685260
11269694660
11269701068
11269708637
11269714496
11269722553
11269729083
11269737628
11269744647
11269751361
11269761432
11269769794
11269776203
11269784747
11269792316
11269799152
11269806964
11269813556
11269821552
11269828265
11269836871
11269844196
11269850177
11269858111
11269864032
11269870380
11269879108
11269886432
11269894610
11269901202
11269908771
11269917132
11269922870
11269929034
11269936602
11269944842
11269952777
11269958941
11269966449
11269974200
11269981829
11269987750
11269995379
11270003680
11270008258
11270018450
11270022906
11270032794
11270037432
11270047259
11270053607
11270061114
11270069354
11270076739
11270085040
11270091448
11270098101
11270105975
11270113726
11270121478
11270128069
11270137041
11270145037
11270152056
11270157976
11270166277
11270172014
11270180010
11270185869
11270193743
11270203692
11270208147
11270218157
11270222857
11270231890
11270238176
11270246355
11270253374
11270261980
11270269060
11270276995
11270283525
11270293352
11270299883
11270307756
11270316973
11270324480
11270333818
11270340654
11270347673
11270354509
11270361772
11270367693
11270375993
11270384355
11270390276
11270398393
11270403703
11270411821
11270417680
11270424455
11270431902
11270439531
11270447221
11270452653
11270459672
11270467119
11270472673
11270479326
11270488115
11270496110
11270502092
11270508439
11270517534
11270524247
11270531266
11270537187
11270545976
11270552018
11270560441
11270566423
11270574174
11270581803
11270589738
11270598039
11270604508
11270613175
11270620256
11270628373
11270636735
11270642533
11270649980
11270657670
11270662187
11270672318
11270680985
11270689286
11270695207
11270702836
11270710221
11270716264
11270722550
11270731522
11270737321
11270746903
11270753312
11270760758
11270766434
11270774979
11270780717
11270788773
11270796708
11270804764
11270811112
11270819596
11270825272
11270829728
11270839982
11270844681
11270855179
11270860123
11270870987
11270878800
11270884537
11270890824
11270898270
11270904801
11270912857
11270919815
11270929459
11270936112
11270942887
11270948746
11270956131
11270963883
11270970352
11270978409
11270985306
11270993546
11270999527
11271007584
11271015457
11271021378
11271030533
11271037491
11271046707
11271055496
11271060684
11271071426
11271079727
11271086563
11271094192
11271103287
11271112503
11271120193
11271126297
11271133926
11271140091
11271147171
11271151260
11271160476
11271169204
11271176712
11271183425
11271188919
11271196121
11271203140
11271210464
11271215896
11271226455
11271232498
11271240432
11271246292
11271252639
11271261306
11271267715
11271274612
11271284255
11271292129
11271298843
11271307021
11271313369
11271321304
11271328994
11271335586
11271345107
11271351821
11271359939
11271366653
11271372512
11271379348
11271386977
11271392776
11271402175
11271410720
11271416701
11271425002
11271432204
11271443007
11271448806
11271460707
11271465773
11271477614
11271484511
11271492873
11271499282
11271506728
11271512648
11271521437
11271527724
11271534804
11271542922
11271550795
11271556777
11271564955
11271570876
11271578993
11271584975
11271593825
11271602919
11271607619
11271617201
11271621962
11271631117
11271637892
11271646193
11271653395
11271661085
11271667677
11271674086
11271681837
11271688307
11271696669
11271704298
11271711073
11271717848
11271728895
11271736891
11271743483
11271748304
11271759047
11271766127
11271773451
11271781874
11271790235
11271796278
11271804762
11271813429
11271821058
11271826917
11271837171
11271848036
11271853895
11271862806
11271872205
11271878431
11271886793
11271892591
11271901075
11271908521
11271918226
11271924573
11271931776
11271938917
11271944532
11271952161
11271956861
11271966810
11271971570
11271982435
11271986951
11271996106
11272000501
11272010145
11272014356
11272022840
11272030103
11272039380
11272043836
11272054090
11272061292
11272069593
11272076001
11272083875
11272090589
11272099195
11272106458
11272111951
11272117810
11272125867
11272131787
11272139295
11272146741
11272154004
11272159863
11272169629
11272175977
11272183240
11272189893
11272197461
11272203625
11272212598
11272219434
11272227795
11272233655
11272242017
11272249768
11272255932
11272264722
11272273511
11272279675
11272287915
11272294324
11272301709
11272307751
11272314221
11272323315
11272329297
11272340039
11272344555
11272353161
11272359753
11272366833
11272375256
11272381481
11272388012
11272398327
11272404736
11272412243
11272418102
11272426525
11272432507
11272440563
11272446911
11272455517
11272463940
11272468456
11272478466
11272482922
11272491161
11272497631
11272506176
11272513500
11272521130
11272527355
11272536510
11272542370
11272550609
11272556347
11272565014
11272571850
11272582409
11272588451
11272598400
11272604809
11272612865
11272621654
11272628673
11272635997
11272643688
11272648998
11272658153
11272664928
11272671154
11272678722
11272685131
11272691417
11272700450
11272706066
11272714305
11272719615
11272727550
11272733409
11272740672
11272748180
11272756114
11272762340
11272770763
11272778575
11272785838
11272791698
11272799937
11272806285
11272814952
11272823314
11272827891
11272837657
11272842235
11272851512
11272857982
11272864940
11272874888
11272882274
11272890635
11272897838
11272905040
11272912486
11272918467
11272926585
11272932750
11272941050
11272949412
11272955943
11272963755
11272970286
11272976084
11272982859
11272990855
11272998973
11273008616
11273016245
11273022044
11273028636
11273036021
11273044261
11273050730
11273060008
11273066844
11273072825
11273081126
11273086741
11273094614
11273102305
11273109141
11273117380
11273125071
11273133066
11273140513
11273146921
11273151377
11273160776
11273167185
11273176768
11273181650
11273192881
11273197703
11273205576
11273212290
11273219919
11273228281
11273234751
11273241709
11273251291
11273258005
11273266367
11273272287
11273280100
11273285898
11273294504
11273300974
11273309702
11273315866
11273320322
11273331735
11273337290
11273348215
11273355844
11273361765
11273370798
11273380624
11273389536
11273397104
11273403818
11273410837
11273417795
11273424081
11273433481
11273440866
11273446847
11273453927
11273461557
11273467050
11273471139
11273481393
11273486032
11273497201
11273501840
11273510812
11273518564
11273524179
11273532174
11273537912
11273545480
11273554208
11273563363
11273569284
11273575753
11273584970
11273591439
11273598275
11273605172
11273614694
11273621163
11273628304
11273634164
11273641488
11273649117
11273656869
11273666573
11273674447
11273680734
11273690133
11273699105
11273707833
11273715096
11273724251
11273730416
11273736825
11273742623
11273748177
11273752633
11273758431
11273765023
11273771493
11273776986
11273782357
11273791268
11273795968
11273802437
11273808236
11273812569
11273817757
11273824837
11273830513
11273836678
11273841622
11273846199
11273852364
11273858590
11273862557
11273869149
11273873970
11273885323
11273891793
11273896675
11273903755
11273908943
11273913399
11273921272
11273926399
11273931160
11273937935
11273944710
11273951424
11273956917
11273965279
11273971382
11273977974
11273984505
11273991524
11273997810
11274005684
11274009956
11274019844
11274027534
11274036568
11274041145
11274051338
11274056953
11274065254
11274072761
11274081001
11274088875
11274094490
11274105049
11274110847
11274117500
11274125007
11274132270
11274139473
11274144477
11274151496
11274159492
11274168403
11274174934
11274181831
11274191047
11274201484
11274211128
11274218879
11274228034
11274235359
11274241401
11274251350
11274259528
11274265632
11274273383
11274276496
11274291206
11274298103
11274307441
11274314094
11274322028
11274333930
11274336860
11274346381
11274353828
11274362006
11274370429
11274379279
11274386054
11274391059
11274402106
11274407660
11274417121
11274426337
11274434577
11274442511
11274446112
11274455695
11274463019
11274471625
11274478766
11274485785
11274492987
11274498541
11274508917
11274518744
11274527289
11274533881
11274541693
11274548712
11274554144
11274563910
11274570685
11274573798
11274584723
11274590643
11274600348
11274607489
11274614020
11274622504
11274628912
11274635504
11274640387
11274649054
11274656561
11274665289
11274672247
11274680609
11274688666
11274694952
11274706427
11274715216
11274723822
11274731512
11274737738
11274746283
11274751959
11274760992
11274767889
11274771002
11274783880
11274789556
11274797186
11274805364
11274815191
11274822637
11274831365
11274839971
11274846258
11274858343
11274864751
11274874944
11274883123
11274886541
11274900457
11274903936
11274915838
11274925237
11274932622
11274941289
11274947515
11274957952
11274967718
11274979986
11274988164
11274999273
11275008550
11275017034
11275024480
11275032903
11275040227
11275050115
11275058171
11275062749
11275072332
11275076665
11275084233
11275090032
11275097051
11275105657
11275114079
11275121098
11275125676
11275134282
11275141240
11275148625
11275154851
11275157597
11275169804
11275176823
11275184575
11275191167
11275198613
11275204533
11275207219
11275217473
11275222478
11275231877
11275239812
11275247929
11275255498
11275262822
11275268986
11275273686
11275281926
11275288334
11275296391
11275304448
11275314518
11275321232
11275325871
11275333744
11275339604
11275347721
11275354069
11275358769
11275367192
11275374882
11275384709
11275391423
11275398136
11275404240
11275410099
11275418217
11275423039
11275430607
11275437931
11275444706
11275450871
11275458317
11275464481
11275468998
11275477604
11275484257
11275490849
11275497807
11275505924
11275513126
11275518253
11275527286
11275534244
11275540043
11275546757
11275554996
11275562137
11275568973
11275578373
11275582157
11275590519
11275596500
11275602665
11275611026
11275616214
11275624271
11275632999
11275641178
11275648136
11275652835
11275664066
11275670169
11275682132
11275687992
11275699039
11275705814
11275713199
11275719486
11275726993
11275736331
11275739383
11275751468
11275756046
11275764224
11275774478
11275786319
11275796634
11275804690
11275812564
11275819034
11275828677
11275836551
11275846377
11275854434
11275861148
11275869082
11275876162
11275883670
11275890628
11275894290
11275904422
11275909060
11275916507
11275924685
11275932620
11275938784
11275946170
11275952395
11275956973
11275965701
11275972903
11275980044
11275989443
11275995852
11276001650
11276009402
11276017886
11276025515
11276033877
11276037539
11276048159
11276057375
11276064150
11276070376
11276079531
11276086001
11276094607
11276101748
11276107546
11276115847
11276121279
11276134524
11276145876
11276152285
11276162844
11276166506
11276179201
11276187624
11276196535
11276202334
11276209536
11276218935
11276226564
11276236574
11276244265
11276252016
11276257387
11276265688
11276276613
11276285036
11276292482
11276297914
11276307131
11276311708
11276323610
11276330202
11276337770
11276344789
11276354189
11276362184
11276369020
11276378236
11276385255
11276390993
11276401002
11276409181
11276414613
11276422182
11276429628
11276441408
11276446596
11276454408
11276462098
11276468080
11276474611
11276479554
11276488893
11276496766
11276503602
11276510133
11276518556
11276525026
11276530030
11276539674
11276546815
11276552552
11276559754
11276566468
11276578614
11276583619
11276590455
11276597108
11276605470
11276612000
11276616822
11276626038
11276633912
11276641786
11276648438
11276651490
11276664552
11276672303
11276679749
11276687257
11276695496
11276702759
11276706605
11276719666
11276728028
11276736085
11276741456
11276749451
11276756043
11276763306
11276770142
11276780335
11276786744
11276789246
11276800415
11276805359
11276813843
11276819764
11276827576
11276833802
11276836731
11276849427
11276855042
11276862549
11276868836
11276872986
11276879700
11276885010
11276893311
11276901428
11276906677
11276911987
11276917664
11276922852
11276928528
11276933838
11276938416
11276944824
11276949402
11276952881
11276959839
11276964478
11276971191
11276974792
11276981873
11276987976
11276994446
11276999756
11277005127
11277010254
11277016724
11277023010
11277025146
11277033935
11277037842
11277050049
11277055725
11277062866
11277069153
11277072937
11277080871
11277087890
11277092834
11277098510
11277103943
11277109253
11277115295
11277120117
11277126098
11277132812
11277139465
11277144775
11277150512
11277157043
11277162414
11277167236
11277172485
11277179870
11277186218
11277191039
11277196227
11277201843
11277206603
11277213806
11277218688
11277224975
11277230346
11277234924
11277243591
11277250488
11277255615
11277262695
11277267272
11277272399
11277278686
11277285094
11277295287
11277302062
11277308898
11277315246
11277324340
11277330993
11277343139
11277348510
11277353637
11277358764
11277363402
11277368529
11277373290
11277379210
11277384520
11277389647
11277394042
11277398742
11277404296
11277408812
11277413512
11277418090
11277424315
11277428527
11277433471
11277437011
11277442687
11277446776
11277451720
11277457335
11277463134
11277466246
11277472411
11277477477
11277482360
11277487303
11277491515
11277498046
11277503050
11277508299
11277512328
11277518065
11277523375
11277527709
11277533202
11277536742
11277543944
11277546935
11277554137
11277557372
11277563902
11277567198
11277573851
11277579527
11277585142
11277588316
11277595824
11277599119
11277604979
11277609679
11277616026
11277622862
11277630003
11277634886
11277641661
11277645689
11277654051
11277657835
11277665587
11277669798
11277677183
11277680479
11277688231
11277692625
11277697813
11277703062
11277707640
11277714842
11277721128
11277726439
11277731077
11277736265
11277742491
11277748167
11277752623
11277757933
11277765989
11277769285
11277777769
11277781553
11277787779
11277794370
11277799070
11277804197
11277812010
11277817442
11277822691
11277828916
11277834959
11277839536
11277843137
11277851621
11277855650
11277863340
11277868589
11277873716
11277878965
11277887205
11277892515
11277898984
11277904111
11277911069
11277918943
11277924619
11277929624
11277936704
11277942197
11277945615
11277952024
11277959287
11277966001
11277969114
11277976438
11277979856
11277986692
11277990293
11277996335
11278001462
11278007993
11278012632
11278019040
11278023740
11278029721
11278034543
11278040158
11278045774
11278052854
11278057370
11278063413
11278067868
11278074033
11278079648
11278085324
11278090695
11278096616
11278103085
11278108762
11278113034
11278119199
11278123654
11278129758
11278134519
11278140439
11278148496
11278152219
11278158749
11278163815
11278169797
11278174680
11278181638
11278186764
11278193722
11278198544
11278204037
11278211117
11278215146
11278221921
11278227109
11278233029
11278238766
11278245480
11278250729
11278256711
11278261532
11278268429
11278273007
11278279110
11278285641
11278290585
11278297177
11278300778
11278307553
11278312741
11278318783
11278324032
11278330197
11278335324
11278342526
11278347103
11278353878
11278360348
11278367916
11278373898
11278379635
11278389096
11278396664
11278403073
11278408688
11278415768
11278423031
11278428829
11278437862
11278441036
11278451839
11278457638
11278467525
11278471981
11278480282
11278487179
11278491817
11278502865
11278509701
11278514889
11278523006
11278538448
11278549251
11278554256
11278563167
11278572201
11278580745
11278588741
11278596676
11278603695
11278612056
11278622493
11278629634
11278635006
11278642635
11278650875
11278656551
11278661128
11278668880
11278676876
11278686153
11278690120
11278697994
11278703914
11278712093
11278718196
11278722896
11278731380
11278738948
11278747432
11278753230
11278761897
11278768672
11278776546
11278785213
11278788753
11278799739
11278805965
11278816890
11278824458
11278830806
11278837947
11278843135
11278853572
11278858149
11278866450
11278876643
11278880000
11278892268
11278898677
11278908320
11278915156
11278924006
11278931208
11278936396
11278945063
11278953730
11278962336
11278969111
11278977534
11278983698
11278988764
11278998652
11279003230
11279013300
11279021174
11279030329
11279036311
11279043330
11279050898
11279057551
11279064631
11279071345
11279076594
11279085139
11279092158
11279099909
11279107111
11279115412
11279122065
11279126398
11279134455
11279143366
11279148981
11279156916
11279164728
11279174555
11279181818
11279188715
11279195673
11279202875
11279209284
11279214594
11279222467
11279230402
11279238764
11279245661
11279250971
11279259821
11279267145
11279274957
11279281671
11279289423
11279296381
11279302057
11279311823
11279319025
11279325922
11279332330
11279339777
11279346429
11279354303
11279362299
11279369623
11279376825
11279386835
11279389886
11279401605
11279408014
11279417779
11279422906
11279431390
11279438653
11279449457
11279457818
11279463250
11279470941
11279478326
11279486688
11279492486
11279500421
11279507867
11279514337
11279521661
11279527337
11279532708
11279538201
11279542657
11279548089
11279552606
11279557916
11279565606
11279569024
11279575311
11279580071
11279586236
11279591119
11279596368
11279601983
11279609796
11279614312
11279619500
11279625298
11279630914
11279635064
11279638360
11279646355
11279652947
11279657464
11279661004
11279669244
11279672906
11279679070
11279684380
11279691277
11279698174
11279704217
11279708550
11279713921
11279719536
11279725640
11279730340
11279736138
11279743523
11279750298
11279755059
11279761162
11279767022
11279773797
11279778191
11279785393
11279790154
11279797478
11279803276
11279806633
11279813042
11279817986
11279824395
11279829766
11279834771
11279841973
11279849297
11279854851
11279860161
11279864617
11279870964
11279875664
11279881767
11279886955
11279893608
11279898674
11279905632
11279910698
11279917717
11279922173
11279927361
11279933159
11279938347
11279946098
11279951103
11279956657
11279963005
11279965324
11279975151
11279979607
11279988457
11279993278
11280001274
11280007622
11280015434
11280022148
11280027580
11280037285
11280041862
11280050346
11280065178
11280072990
11280081413
11280089164
11280097038
11280106926
11280114799
11280118339
11280129386
11280139030
11280147270
11280153739
11280162773
11280169242
11280172233
11280184196
11280191581
11280198295
11280205741
11280214286
11280222648
11280225333
11280234611
11280241630
11280248038
11280254203
11280261710
11280267997
11280278983
11280285636
11280290275
11280299186
11280303153
11280310355
11280318168
11280326041
11280332450
11280338126
11280350150
11280354423
11280362479
11280371024
11280377555
11280384024
11280388297
11280398856
11280403678
11280413199
11280419974
11280425040
11280435050
11280440116
11280449088
11280455741
11280463431
11280470450
11280476065
11280485282
11280489920
11280498038
11280506949
11280509818
11280519522
11280526663
11280533743
11280542960
11280551016
11280559378
11280562125
11280571036
11280578299
11280588675
11280595389
11280601858
11280610892
11280616507
11280626028
11280633108
11280640371
11280646292
11280652517
11280658499
11280663138
11280671743
11280680716
11280690664
11280694571
11280702444
11280708426
11280717825
11280724050
11280729116
11280736746
11280744680
11280754690
11280761465
11280764517
11280776724
11280782461
11280789663
11280798391
11280801321
11280810842
11280821218
11280827383
11280834097
11280840871
11280846914
11280853017
11280861013
11280866018
11280873769
11280882986
11280890615
11280896780
11280904287
11280911001
11280916738
11280925771
11280934194
11280941823
11280948964
11280959401
11280967397
11280975881
11280982412
11280991506
11280997121
11281003286
11281009572
11281015615
11281022267
11281027883
11281035146
11281040273
11281047475
11281052968
11281060292
11281065419
11281071889
11281075429
11281083425
11281087026
11281094167
11281099355
11281106374
11281112904
11281117909
11281124562
11281128713
11281134328
11281139027
11281144826
11281150014
11281155995
11281161549
11281166432
11281170033
11281178700
11281182362
11281189320
11281194752
11281201039
11281207936
11281213856
11281218800
11281224537
11281230702
11281236622
11281241383
11281247853
11281252675
11281261342
11281266163
11281270802
11281277882
11281283619
11281290333
11281295582
11281301808
11281308644
11281315358
11281320607
11281327381
11281332569
11281337391
11281344105
11281349720
11281355274
11281362293
11281368763
11281373097
11281379505
11281383167
11281390919
11281394825
11281401417
11281407032
11281413563
11281418629
11281424732
11281429371
11281436756
11281441944
11281448353
11281455067
11281461231
11281466175
11281471180
11281478199
11281481800
11281488941
11281494190
11281500294
11281505970
11281512440
11281518299
11281522877
11281529468
11281535084
11281542408
11281548389
11281554249
11281562977
11281572681
11281581348
11281589466
11281596424
11281600208
11281611072
11281619617
11281627002
11281635791
11281645984
11281653064
11281658069
11281666370
11281672962
11281678699
11281685352
11281693164
11281699634
11281706409
11281718066
11281721973
11281732654
11281741077
11281746814
11281754077
11281759631
11281767017
11281772754
11281778064
11281783984
11281788867
11281795398
11281800098
11281805041
11281811694
11281817187
11281822253
11281828662
11281833545
11281839221
11281843432
11281849414
11281854113
11281861071
11281866015
11281871753
11281877490
11281882434
11281888171
11281893542
11281898059
11281901477
11281909594
11281913012
11281919726
11281923083
11281930346
11281935046
11281940295
11281946276
11281953540
11281959216
11281964099
11281968737
11281975634
11281980334
11281986865
11281991503
11281998156
11282005114
11282008898
11282016589
11282020251
11282027209
11282032641
11282038256
11282043749
11282051318
11282058581
11282062914
11282069201
11282074450
11282080553
11282084521
11282092028
11282096545
11282104723
11282108568
11282114916
11282119433
11282126146
11282131029
11282137682
11282142626
11282150377
11282155687
11282162096
11282166735
11282172655
11282177904
11282183275
11282189135
11282195787
11282203722
11282209154
11282215074
11282220201
11282228990
11282234972
11282239488
11282248094
11282254747
11282264818
11282270738
11282276537
11282281725
11282287340
11282292955
11282297655
11282304857
11282313036
11282317308
11282323045
11282328111
11282332506
11282338243
11282342516
11282348863
11282355028
11282358507
11282365770
11282369066
11282376329
11282380907
11282386400
11282392015
11282397935
11282402574
11282408800
11282413072
11282417955
11282423570
11282429185
11282433885
11282440843
11282445726
11282451280
11282457567
11282462693
11282467515
11282472581
11282479417
11282484483
11282493150
11282497117
11282504319
11282509080
11282515916
11282520555
11282527269
11282532884
11282539903
11282545030
11282551621
11282556993
11282561021
11282568162
11282573655
11282579759
11282585740
11282592820
11282597825
11282603684
11282610276
11282615769
11282620591
11282626145
11282633958
11282639939
11282646470
11282652390
11282657639
11282661607
11282669419
11282673142
11282680039
11282685654
11282693223
11282698350
11282703660
11282708359
11282714463
11282720933
11282726853
11282732102
11282739304
11282744553
11282750840
11282755478
11282760849
11282767319
11282772568
11282779404
11282784897
11282790635
11282795761
11282801194
11282807968
11282814072
11282818589
11282825058
11282829697
11282837754
11282847946
11282854599
11282859909
11282867111
11282872605
11282879990
