11504719021
11504725247
11504731473
11504736416
11504740628
11504746060
11504751675
11504757535
11504764798
11504771634
11504779263
11504784573
11504791653
11504799588
11504808560
11504816006
11504822720
11504828213
11504834561
11504840908
11504846646
11504851040
11504858364
11504865017
11504871548
11504877407
11504885098
11504890774
11504896755
11504903103
11504910061
11504917385
11504924038
11504930752
11504937222
11504944668
11504952419
11504960293
11504968227
11504975368
11504982571
11504990139
11504996548
11505003384
11505007900
11505015346
11505020656
11505027614
11505032009
11505038418
11505045070
11505050442
11505057155
11505062160
11505068020
11505073635
11505079921
11505086818
11505092128
11505097133
11505102932
11505108486
11505113613
11505119594
11505126064
11505130458
11505137111
11505142787
11505148708
11505152004
11505160243
11505167507
11505171779
11505180019
11505186794
11505193141
11505198818
11505204738
11505211818
11505216701
11505223476
11505229030
11505235255
11505242580
11505247829
11505256191
11505262355
11505268214
11505275172
11505281032
11505288478
11505295253
11505301356
11505307826
11505314174
11505319484
11505327235
11505333644
11505339992
11505347194
11505352321
11505359096
11505364161
11505371303
11505374843
11505383265
11505390040
11505396815
11505405055
11505412440
11505419215
11505425318
11505433863
11505441066
11505448207
11505453639
11505459925
11505465541
11505473658
11505478907
11505486415
11505491786
11505498805
11505504847
11505510645
11505517176
11505523951
11505530726
11505535853
11505542506
11505549464
11505555262
11505560816
11505568629
11505574427
11505581507
11505587366
11505593226
11505598658
11505605128
11505611841
11505619349
11505625452
11505631556
11505638331
11505646021
11505652796
11505659754
11505667139
11505674646
11505681543
11505687830
11505694788
11505699915
11505708643
11505716089
11505722559
11505729212
11505735987
11505742273
11505748560
11505755884
11505763208
11505771448
11505778894
11505785242
11505793665
11505800318
11505807520
11505813989
11505821191
11505826929
11505832971
11505840234
11505849268
11505854089
11505864282
11505871973
11505879236
11505885767
11505893945
11505899805
11505907922
11505916162
11505923364
11505931238
11505938989
11505945703
11505952905
11505960534
11505967065
11505975183
11505982751
11505988672
11505996545
11506002649
11506010766
11506015283
11506025903
11506030542
11506040002
11506044335
11506054589
11506062341
11506068017
11506075524
11506083825
11506091149
11506097375
11506104638
11506111657
11506118432
11506125695
11506132592
11506141320
11506148095
11506154015
11506160119
11506166039
11506174218
11506180688
11506188805
11506197045
11506203087
11506211449
11506219018
11506225182
11506232934
11506240197
11506246361
11506255089
11506261559
11506269005
11506276329
11506282494
11506290184
11506294640
11506305504
11506310509
11506320946
11506327477
11506335106
11506343346
11506350182
11506356896
11506364647
11506372032
11506380760
11506389733
11506395958
11506404381
11506413109
11506419640
11506429039
11506434715
11506442833
11506448692
11506457115
11506463280
11506469322
11506476891
11506486168
11506492332
11506498070
11506507469
11506513450
11506521934
11506527733
11506534263
11506542808
11506550071
11506557945
11506564048
11506571922
11506579979
11506585899
11506593101
11506604210
11506611961
11506618553
11506626792
11506633628
11506641563
11506648338
11506655723
11506662925
11506672386
11506679283
11506687095
11506693748
11506701866
11506708213
11506716941
11506723777
11506731101
11506737876
11506745078
11506751365
11506759849
11506766196
11506774192
11506780723
11506790488
11506795920
11506805320
11506810203
11506819297
11506827415
11506834739
11506843162
11506852012
11506856650
11506865683
11506870932
11506879538
11506887839
11506896323
11506904685
11506910727
11506918845
11506924826
11506933615
11506941184
11506948081
11506956198
11506964377
11506970725
11506979331
11506985617
11506993735
11507000876
11507010581
11507019125
11507025656
11507033652
11507039328
11507045737
11507054648
11507059775
11507069357
11507078451
11507086325
11507092673
11507100363
11507106955
11507114645
11507121176
11507127829
11507136862
11507143637
11507152670
11507160483
11507166891
11507174460
11507182028
11507190084
11507196310
11507204367
11507211325
11507218893
11507225363
11507232870
11507240133
11507247152
11507254904
11507262289
11507268148
11507273824
11507279806
11507290609
11507293112
11507304403
11507309164
11507320150
11507326254
11507334127
11507341512
11507347494
11507355795
11507365560
11507374288
11507380880
11507388814
11507396200
11507403402
11507411031
11507417440
11507424886
11507433431
11507439840
11507448263
11507455770
11507462972
11507468648
11507477071
11507483602
11507490133
11507497762
11507504842
11507512288
11507518880
11507526509
11507534017
11507540303
11507549092
11507554708
11507562337
11507570821
11507577168
11507585103
11507591695
11507600606
11507607381
11507615620
11507622456
11507628804
11507637410
11507643758
11507652608
11507659688
11507668172
11507674641
11507681172
11507689656
11507696736
11507703389
11507709920
11507719136
11507725789
11507731465
11507739583
11507745320
11507753254
11507760090
11507768452
11507775898
11507785664
11507791584
11507799946
11507805745
11507814961
11507821308
11507827534
11507836506
11507844685
11507851032
11507858845
11507865132
11507871235
11507878987
11507886006
11507893879
11507901386
11507909504
11507916340
11507922688
11507930805
11507937580
11507945515
11507952534
11507961506
11507966267
11507974323
11507981098
11507989094
11507995563
11508002643
11508010151
11508019489
11508026020
11508033405
11508040241
11508048603
11508055195
11508063251
11508070087
11508079486
11508084919
11508094440
11508102863
11508109150
11508118061
11508124286
11508132587
11508140460
11508146442
11508153949
11508161762
11508167316
11508176898
11508183917
11508191791
11508199970
11508205890
11508213458
11508220660
11508226947
11508234515
11508240802
11508250140
11508256122
11508263812
11508271503
11508278033
11508284259
11508291583
11508301227
11508308856
11508317035
11508323382
11508330890
11508337359
11508345538
11508352862
11508359088
11508367328
11508375628
11508381854
11508389483
11508396991
11508403094
11508410540
11508418719
11508426348
11508434222
11508441363
11508447283
11508454669
11508462847
11508470110
11508476763
11508485247
11508493731
11508501177
11508507464
11508515765
11508524737
11508534258
11508542925
11508550555
11508555254
11508564898
11508573077
11508578875
11508583330
11508594012
11508600909
11508608843
11508616411
11508622149
11508630633
11508636675
11508641070
11508651079
11508659014
11508666826
11508675005
11508680864
11508685442
11508695757
11508700701
11508709917
11508717180
11508727312
11508731768
11508741411
11508746782
11508755876
11508760942
11508770159
11508779192
11508788042
11508795366
11508802995
11508810014
11508818132
11508821184
11508835039
11508840593
11508851457
11508859087
11508865129
11508873430
11508879289
11508887163
11508893449
11508902177
11508910600
11508913896
11508925065
11508932268
11508938188
11508942766
11508953141
11508957841
11508966996
11508975236
11508981218
11508988908
11508997026
11509002031
11509011369
11509016679
11509027055
11509032243
11509041520
11509046159
11509056352
11509061479
11509071061
11509076615
11509086198
11509091325
11509101640
11509106461
11509115800
11509120438
11509128800
11509136369
11509145829
11509150407
11509159806
11509166154
11509174027
11509180680
11509189530
11509196183
11509204484
11509210770
11509218278
11509224930
11509232926
11509239640
11509247269
11509255631
11509264237
11509270890
11509279862
11509286271
11509292679
11509299210
11509307755
11509314347
11509323746
11509331009
11509336624
11509343582
11509351883
11509358170
11509366776
11509373795
11509382401
11509389359
11509397476
11509403824
11509411942
11509416458
11509425980
11509433060
11509441605
11509448013
11509454666
11509461014
11509469925
11509476517
11509484024
11509491470
11509500015
11509506790
11509513504
11509520462
11509529983
11509534744
11509545913
11509550918
11509561050
11509568618
11509576736
11509584488
11509590469
11509598159
11509604995
11509614944
11509620681
11509628555
11509634414
11509642776
11509652236
11509659805
11509667495
11509676467
11509683303
11509690383
11509697158
11509706252
11509714858
11509721145
11509729507
11509738601
11509743240
11509753127
11509757827
11509767287
11509775039
11509781509
11509789687
11509797622
11509802138
11509811355
11509818801
11509825087
11509829604
11509840041
11509845229
11509855910
11509860610
11509869094
11509875747
11509885085
11509890395
11509899123
11509907668
11509915724
11509920485
11509928725
11509935622
11509943434
11509950881
11509957717
11509964430
11509974440
11509980422
11509988722
11509995070
11510003005
11510011488
11510017714
11510023573
11510035902
11510041273
11510051710
11510061415
11510067702
11510075331
11510082411
11510089674
11510100050
11510104811
11510114149
11510118605
11510127882
11510132582
11510142225
11510148939
11510157118
11510163771
11510171400
11510178114
11510185438
11510193678
11510201918
11510209547
11510217665
11510224562
11510232008
11510238294
11510246839
11510254774
11510264478
11510273634
11510279981
11510287611
11510295301
11510303236
11510309400
11510317640
11510324232
11510332899
11510341871
11510344739
11510355115
11510362867
11510370313
11510375806
11510383985
11510388624
11510399000
11510405225
11510413099
11510420911
11510426587
11510434339
11510442090
11510450696
11510456983
11510465406
11510471936
11510480481
11510487256
11510495435
11510505017
11510512769
11510519971
11510527478
11510533643
11510542859
11510549817
11510557446
11510564527
11510573743
11510578320
11510587781
11510591870
11510602979
11510609753
11510615613
11510624463
11510633252
11510639844
11510647229
11510655286
11510662060
11510668347
11510678357
11510687146
11510693432
11510701672
11510709118
11510716382
11510724499
11510729443
11510739453
11510746167
11510754834
11510760998
11510768505
11510773022
11510783154
11510787976
11510797863
11510805554
11510813488
11510821118
11510826855
11510834606
11510842053
11510848461
11510857067
11510865490
11510874096
11510882397
11510889172
11510896923
11510907360
11510915600
11510921093
11510930859
11510936108
11510946361
11510951244
11510960277
11510968700
11510976086
11510981090
11510991039
11510999584
11511008068
11511016002
11511023693
11511034679
11511039928
11511049938
11511057994
11511064098
11511073009
11511079418
11511084117
11511095470
11511100414
11511110607
11511117809
11511123790
11511131053
11511139476
11511146617
11511153697
11511162914
11511171459
11511177623
11511185069
11511189647
11511199168
11511206676
11511213023
11511221385
11511227733
11511232127
11511242137
11511247142
11511256847
11511264415
11511272594
11511280345
11511286326
11511294200
11511300242
11511307017
11511315745
11511322337
11511330699
11511338389
11511347484
11511355235
11511362986
11511371531
11511378428
11511383189
11511395945
11511404185
11511409983
11511417979
11511425242
11511432444
11511439646
11511445933
11511455027
11511464121
11511473277
11511481394
11511488352
11511499155
11511504954
11511516001
11511521311
11511531992
11511539683
11511547190
11511554941
11511561228
11511570261
11511577952
11511586497
11511595102
11511603892
11511610911
11511620005
11511626902
11511635386
11511642283
11511652048
11511656504
11511665903
11511670603
11511680429
11511685495
11511694651
11511702768
11511710703
11511715341
11511725168
11511730539
11511739450
11511745737
11511754404
11511763010
11511771188
11511779245
11511785165
11511793955
11511802377
11511809946
11511817209
11511825449
11511832468
11511841745
11511846200
11511856088
11511861520
11511871713
11511880746
11511887033
11511895273
11511903207
11511907846
11511916757
11511924447
11511931039
11511938974
11511947213
11511954721
11511960763
11511968515
11511975045
11511984018
11511991098
11511999948
11512008248
11512012826
11512021737
11512029122
11512034799
11512041451
11512050302
11512057992
11512067147
11512072274
11512081490
11512087716
11512097054
11512102609
11512114266
11512122994
11512129037
11512137032
11512142831
11512151375
11512157052
11512165169
11512173104
11512181222
11512187996
11512195443
11512202950
11512205636
11512216073
11512220772
11512230538
11512238595
11512246773
11512254952
11512262459
11512269539
11512276986
11512283944
11512291878
11512297798
11512305977
11512315193
11512321114
11512329476
11512335579
11512342964
11512353462
11512361153
11512368538
11512377998
11512383003
11512393868
11512398994
11512409554
11512419075
11512425789
11512434090
11512442268
11512447090
11512457405
11512462288
11512472175
11512479011
11512488777
11512494026
11512505745
11512515815
11512522529
11512532783
11512539375
11512548591
11512555305
11512565437
11512572090
11512579719
11512586555
11512594856
11512601509
11512610359
11512615364
11512624885
11512629341
11512638862
11512646186
11512654060
11512661994
11512669868
11512677192
11512684943
11512689643
11512698615
11512706489
11512713264
11512720466
11512729926
11512735053
11512744636
11512749091
11512758063
11512762641
11512774299
11512782722
11512789130
11512796027
11512804511
11512809150
11512818000
11512824714
11512832465
11512839728
11512848883
11512855292
11512862006
11512869147
11512876960
11512885504
11512890753
11512901801
11512909308
11512915473
11512923468
11512930915
11512939459
11512945868
11512953192
11512961615
11512970587
11512977179
11512985419
11512991705
11512998969
11513005499
11513013495
11513020941
11513028326
11513036810
11513043341
11513050482
11513057684
11513063299
11513071722
11513081854
11513088873
11513095465
11513104376
11513109747
11513119391
11513127691
11513136297
11513142828
11513150579
11513157843
11513165350
11513172491
11513178595
11513185919
11513192816
11513203131
11513209600
11513217413
11513224920
11513231268
11513238409
11513245855
11513254705
11513263067
11513269476
11513278326
11513284612
11513292791
11513298711
11513305425
11513314642
11513323797
11513332159
11513336858
11513345281
11513353155
11513360601
11513368108
11513375493
11513383123
11513390691
11513398015
11513405584
11513413457
11513419256
11513427068
11513433843
11513443181
11513449834
11513457463
11513463506
11513472417
11513478582
11513486760
11513494695
11513504888
11513511296
11513519780
11513526311
11513534001
11513540776
11513547978
11513555242
11513564153
11513570622
11513579289
11513585698
11513592778
11513599675
11513606511
11513616521
11513622624
11513631047
11513636845
11513645634
11513652836
11513659367
11513666081
11513675114
11513683171
11513689824
11513696782
11513702458
11513711613
11513718388
11513725224
11513732243
11513741337
11513747746
11513756169
11513760807
11513770451
11513774968
11513784001
11513791203
11513800602
11513805241
11513813725
11513821293
11513829228
11513836735
11513843083
11513851811
11513859318
11513866276
11513874027
11513880924
11513888615
11513896122
11513903934
11513912785
11513921146
11513926884
11513935062
11513941532
11513949345
11513956608
11513964420
11513971500
11513981815
11513989506
11513995792
11514003788
11514010624
11514018985
11514026859
11514036808
11514043338
11514050541
11514057193
11514064823
11514071598
11514080326
11514087345
11514096500
11514103031
11514111453
11514118228
11514125492
11514131534
11514141055
11514149600
11514158572
11514165714
11514171512
11514177982
11514186832
11514192996
11514200748
11514208011
11514215884
11514222659
11514230716
11514237125
11514245059
11514251712
11514258487
11514269229
11514276370
11514283450
11514292544
11514300235
11514306033
11514312503
11514320559
11514328189
11514336856
11514345095
11514352664
11514357791
11514368899
11514377749
11514387088
11514393191
11514400942
11514410220
11514417300
11514424990
11514431399
11514441042
11514449038
11514456912
11514461428
11514470705
11514475161
11514484927
11514492861
11514500918
11514509768
11514516238
11514523257
11514532046
11514536562
11514545351
11514551821
11514560122
11514567263
11514576540
11514581728
11514590029
11514596377
11514603457
11514610170
11514618532
11514625185
11514634523
11514641787
11514647829
11514654177
11514662905
11514670656
11514679628
11514687990
11514696169
11514700685
11514709841
11514718141
11514725466
11514733766
11514740907
11514745790
11514756777
11514761598
11514770754
11514778078
11514786073
11514790956
11514800417
11514809206
11514818666
11514823671
11514832887
11514839906
11514846681
11514853273
11514862977
11514871278
11514879457
11514884523
11514894410
11514901002
11514909547
11514915895
11514923036
11514930543
11514939149
11514945497
11514953309
11514959840
11514967164
11514973939
11514981019
11514988648
11514996827
11515003663
11515011415
11515017762
11515026185
11515033204
11515042420
11515049745
11515056703
11515063233
11515071961
11515076539
11515085816
11515093629
11515100709
11515109437
11515117860
11515127564
11515134583
11515141602
11515147523
11515157654
11515163148
11515171876
11515180237
11515186707
11515194764
11515202515
11515208924
11515216675
11515225342
11515231568
11515238770
11515244019
11515251038
11515258973
11515266358
11515273194
11515281678
11515290222
11515296692
11515300354
11515308655
11515312622
11515322144
11515326538
11515336792
11515345093
11515351624
11515356995
11515363464
11515369690
11515379517
11515386536
11515394775
11515400696
11515407898
11515415222
11515420593
11515429993
11515436523
11515445434
11515454223
11515460449
11515466980
11515477539
11515485168
11515492859
11515501465
11515509521
11515516906
11515524719
11515533264
11515539367
11515546569
11515555236
11515563537
11515571899
11515578796
11515584655
11515592773
11515600891
11515609741
11515617492
11515625060
11515633178
11515639160
11515647826
11515655578
11515662231
11515671935
11515677184
11515684997
11515691467
11515698791
11515706420
11515712585
11515721740
11515728942
11515734740
11515742492
11515747863
11515755614
11515761352
11515769286
11515778319
11515785399
11515789550
11515798400
11515802489
11515812743
11515816771
11515825744
11515833739
11515840941
11515845519
11515855101
11515861327
11515867797
11515874938
11515882384
11515888243
11515895384
11515903136
11515909667
11515916197
11515923277
11515931090
11515939208
11515945189
11515952208
11515960753
11515966551
11515974913
11515981810
11515988890
11515998473
11516006102
11516013182
11516020628
11516028929
11516034605
11516042662
11516048887
11516057799
11516063902
11516072447
11516080137
11516087217
11516091429
11516101744
11516110533
11516119566
11516129149
11516135435
11516145140
11516152708
11516160398
11516167051
11516177366
11516183409
11516193479
11516203123
11516209410
11516218504
11516225828
11516233946
11516243406
11516251219
11516255796
11516264890
11516271421
11516279478
11516287107
11516295591
11516300169
11516310056
11516317441
11516325010
11516332761
11516340696
11516348813
11516355161
11516359678
11516369565
11516378171
11516384214
11516391721
11516401731
11516408872
11516417051
11516424558
11516431150
11516435605
11516445371
11516450620
11516461057
11516466550
11516477292
11516484250
11516491818
11516498166
11516506467
11516514462
11516521543
11516530087
11516538266
11516545590
11516553586
11516560117
11516567319
11516574094
11516580258
11516588803
11516596494
11516603024
11516610715
11516615292
11516624753
11516629391
11516639523
11516648129
11516654111
11516662289
11516669125
11516674374
11516687436
11516693356
11516701901
11516706662
11516718441
11516723202
11516732663
11516738095
11516747555
11516752926
11516763363
11516771115
11516778988
11516787045
11516792904
11516797421
11516807491
11516815365
11516821957
11516830380
11516838375
11516844357
11516852291
11516858273
11516867367
11516874020
11516882076
11516889706
11516896664
11516906429
11516913448
11516920650
11516929012
11516937252
11516945492
11516954403
11516961910
11516971370
11516976253
11516984798
11516991695
11517001095
11517006466
11517016353
11517022945
11517031307
11517036007
11517046077
11517051265
11517061885
11517070369
11517078426
11517083126
11517092891
11517098140
11517106685
11517114742
11517121211
11517130489
11517136592
11517145137
11517151424
11517157771
11517167720
11517172908
11517182735
11517187740
11517200374
11517207942
11517213863
11517221797
11517229304
11517237910
11517244563
11517253596
11517259517
11517268977
11517275386
11517283198
11517291316
11517299739
11517306941
11517315791
11517323970
11517329951
11517336299
11517344905
11517349726
11517360896
11517366145
11517376521
11517381037
11517390681
11517395320
11517405207
11517411921
11517420039
11517427607
11517434565
11517441096
11517448481
11517455500
11517463129
11517469538
11517476618
11517485529
11517494685
11517501032
11517507807
11517514399
11517522089
11517528315
11517536494
11517543268
11517552607
11517557490
11517567072
11517571711
11517581598
11517589594
11517597895
11517604059
11517611567
11517620050
11517625971
11517634211
11517640314
11517649225
11517658869
11517667658
11517674372
11517684198
11517690912
11517698847
11517705560
11517714472
11517721430
11517731134
11517735956
11517744501
11517751337
11517759576
11517766901
11517775323
11517783075
11517791803
11517798334
11517807367
11517812250
11517822015
11517826959
11517836297
11517844415
11517853326
11517857904
11517867181
11517871820
11517880060
11517886163
11517895013
11517903497
11517912835
11517917840
11517927667
11517932122
11517942620
11517948236
11517958184
11517965570
11517973626
11517980096
11517987969
11517996636
11518004144
11518011773
11518018243
11518026849
11518032586
11518040521
11518049249
11518058343
11518063409
11518073357
11518082269
11518089226
11518097344
11518103265
11518109612
11518117974
11518123162
11518132989
11518141533
11518148369
11518155205
11518164116
11518168755
11518178032
11518182732
11518192742
11518200615
11518207207
11518213677
11518221856
11518228691
11518237358
11518243645
11518251702
11518260124
11518269646
11518274285
11518282463
11518289482
11518301933
11518308647
11518318230
11518325798
11518334282
11518341728
11518349297
11518355949
11518363762
11518369865
11518379265
11518387505
11518396355
11518404167
11518411613
11518421684
11518430412
11518437004
11518445061
11518453422
11518462456
11518469291
11518477104
11518483574
11518492363
11518500297
11518509880
11518516349
11518523918
11518530754
11518538017
11518544975
11518553459
11518560478
11518568412
11518575126
11518583061
11518589836
11518597648
11518604179
11518611747
11518618461
11518627738
11518635429
11518642936
11518648002
11518658378
11518665946
11518672538
11518680961
11518688529
11518696159
11518703605
11518709525
11518717033
11518722892
11518732657
11518741324
11518747428
11518755546
11518763541
11518769645
11518777884
11518782462
11518792472
11518799979
11518806266
11518814322
11518820426
11518828482
11518834342
11518840934
11518849539
11518859000
11518866141
11518872855
11518881278
11518888175
11518896659
11518904227
11518910697
11518917410
11518926810
11518933402
11518940482
11518946707
11518954459
11518961111
11518969962
11518978445
11518986868
11518993948
11519003470
11519010794
11519018179
11519022818
11519033682
11519040091
11519048086
11519056875
11519064383
11519072378
11519078787
11519087271
11519095450
11519103933
11519110342
11519119253
11519127493
11519134756
11519140982
11519151174
11519156423
11519167471
11519172293
11519182424
11519186941
11519196401
11519201284
11519212515
11519222219
11519228506
11519236623
11519243276
11519252126
11519257803
11519265676
11519272817
11519281667
11519290212
11519297170
11519305044
11519311391
11519319143
11519326162
11519332570
11519341482
11519347646
11519355642
11519361440
11519369253
11519376882
11519381582
11519391835
11519397390
11519407705
11519412404
11519422109
11519427297
11519435842
11519443776
11519450917
11519460073
11519467824
11519474660
11519482656
11519487416
11519496388
11519501760
11519511403
11519519277
11519528737
11519533437
11519542226
11519549428
11519555592
11519562856
11519570424
11519577809
11519587575
11519592152
11519602284
11519606801
11519615834
11519623830
11519630421
11519639149
11519647877
11519655507
11519662953
11519668995
11519676381
11519685109
11519692799
11519701649
11519707997
11519715199
11519722889
11519730214
11519738148
11519745106
11519751637
11519761158
11519767567
11519776722
11519785938
11519792591
11519798695
11519809742
11519814625
11519824696
11519829212
11519838551
11519843128
11519852039
11519859547
11519866138
11519873035
11519882313
11519889942
11519896290
11519904224
11519911426
11519918384
11519927051
11519935840
11519944019
11519952259
11519959888
11519967457
11519973438
11519981556
11519990589
11519998584
11520006763
11520014087
11520020740
11520029651
11520034046
11520044239
11520054065
11520060291
11520066883
11520075733
11520080310
11520089893
11520094898
11520103870
11520111987
11520121936
11520126514
11520135303
11520142505
11520148853
11520154834
11520164905
11520174609
11520181079
11520186389
11520197192
11520202624
11520211780
11520216174
11520224353
11520233020
11520242358
11520250415
11520256823
11520263293
11520270801
11520278003
11520287463
11520295764
11520303332
11520310656
11520318347
11520325610
11520331286
11520338977
11520347888
11520355761
11520361682
11520370654
11520377612
11520385607
11520392199
11520402697
11520407519
11520417773
11520426074
11520431933
11520439867
11520447741
11520454699
11520463671
11520471300
11520477526
11520486132
11520491930
11520498461
11520505785
11520510729
11520520739
11520529772
11520535998
11520541063
11520550646
11520555224
11520565600
11520570116
11520578478
11520586779
11520595995
11520603685
11520609972
11520616808
11520624071
11520631090
11520641100
11520649584
11520658861
11520664965
11520675463
11520680101
11520690050
11520695421
11520705858
11520716722
11520726061
11520734422
11520740709
11520748155
11520756456
11520764574
11520771104
11520776109
11520787035
11520791673
11520800584
11520808397
11520816698
11520822984
11520831102
11520836534
11520847032
11520853746
11520861924
11520867235
11520875963
11520882310
11520891832
11520896775
11520908616
11520915025
11520922898
11520928270
11520937120
11520941758
11520950791
11520957322
11520968064
11520974656
11520982530
11520990281
11520996263
11521003587
11521012132
11521020677
11521026719
11521031113
11521041612
11521046006
11521055466
11521060105
11521070725
11521078660
11521085679
11521093613
11521101121
11521105637
11521113999
11521120164
11521129868
11521138596
11521146592
11521151536
11521160203
11521167099
11521175461
11521180039
11521189072
11521197190
11521206162
11521212632
11521220139
11521226792
11521235825
11521240403
11521251145
11521256455
11521266770
11521271469
11521281906
11521289231
11521295151
11521302780
11521309067
11521316208
11521326340
11521331711
11521339584
11521346115
11521354965
11521359482
11521367294
11521375107
11521390549
11521408310
11521425705
11521435287
11521445785
11521457687
11521464096
11521472458
11521480270
11521486862
11521495041
11521501937
11521511215
11521519332
11521526535
11521533554
11521541244
11521549301
11521556014
11521563400
11521571823
11521579757
11521585922
11521594528
11521600448
11521606735
11521614364
11521620895
11521629012
11521637008
11521642989
11521652328
11521656600
11521665023
11521669418
11521680038
11521689376
11521696822
11521702498
11521710006
11521717513
11521723922
11521728438
11521738692
11521746871
11521752974
11521761031
11521766829
11521775191
11521780867
11521787154
11521797286
11521805342
11521813399
11521818282
11521827559
11521835433
11521841414
11521847701
11521857649
11521865523
11521873641
11521881697
11521889510
11521896590
11521905501
11521912215
11521921004
11521930098
11521935164
11521944746
11521949263
11521959212
11521964339
11521973372
11521981245
11521991499
11521999007
11522004805
11522012923
11522019209
11522023848
11522035444
11522042830
11522049360
11522053999
11522063826
11522068403
11522078047
11522083601
11522094465
11522102705
11522108931
11522116865
11522124433
11522129316
11522138655
11522146101
11522153059
11522162824
11522168684
11522178327
11522184553
11522193098
11522201704
11522209211
11522217512
11522226972
11522231672
11522240766
11522247663
11522255903
11522263044
11522271711
11522276899
11522286787
11522291486
11522301191
11522310102
11522316022
11522324140
11522330793
11522336042
11522346967
11522354474
11522360944
11522373945
11522381513
11522389203
11522397870
11522405317
11522414716
11522423505
11522430585
11522438397
11522444867
11522456525
11522459516
11522470258
11522477826
11522483502
11522490094
11522498151
11522506757
11522515241
11522520429
11522531171
11522535870
11522545148
11522550153
11522559186
11522563824
11522573102
11522580792
11522588971
11522593609
11522603863
11522611004
11522618573
11522624371
11522632245
11522641156
11522647259
11522655255
11522660931
11522669598
11522675885
11522684918
11522691937
11522701641
11522707867
11522715741
11522722149
11522729840
11522737164
11522746136
11522752423
11522760967
11522767193
11522775372
11522781170
11522789349
11522797100
11522803326
11522813213
11522821392
11522827862
11522832867
11522843975
11522850079
11522857037
11522864971
11522871868
11522880169
11522888286
11522894329
11522902630
11522910869
11522917827
11522928570
11522938091
11522947246
11522952739
11522966533
11522976238
11522983867
11522989910
11522998394
11523006145
11523014507
11523021343
11523027812
11523036907
11523043804
11523051616
11523059612
11523069499
11523074870
11523083782
11523091167
11523099407
11523106242
11523114787
11523122478
11523130290
11523136455
11523144023
11523151653
11523157268
11523165019
11523173015
11523181926
11523187968
11523195842
11523203776
11523210856
11523216411
11523224345
11523231914
11523241374
11523248637
11523256328
11523262187
11523272014
11523278849
11523287516
11523294291
11523302470
11523309245
11523317118
11523323466
11523330851
11523337260
11523345500
11523354106
11523361796
11523368083
11523375651
11523382914
11523391947
11523398295
11523405741
11523413249
11523422587
11523428690
11523435343
11523441630
11523450419
11523457011
11523464640
11523472147
11523479899
11523486491
11523494181
11523500956
11523508829
11523514811
11523522135
11523531229
11523538553
11523545633
11523553812
11523560221
11523568644
11523576029
11523583048
11523590738
11523598978
11523605204
11523613077
11523621622
11523629007
11523636270
11523643534
11523651407
11523660990
11523668558
11523674906
11523682718
11523691812
11523696695
11523706766
11523711527
11523721109
11523729776
11523737650
11523745706
11523751749
11523759378
11523769449
11523777688
11523784219
11523791849
11523798318
11523806924
11523813272
11523822122
11523830606
11523838052
11523845743
11523851541
11523859903
11523866006
11523874612
11523882425
11523890847
11523898721
11523905557
11523913613
11523920938
11523928323
11523934976
11523941140
11523948953
11523956826
11523964089
11523969827
11523978860
11523984780
11523992532
11524000710
11524008767
11524015664
11524023354
11524031472
11524039285
11524044717
11524052895
11524061013
11524068276
11524074746
11524083596
11524091775
11524099404
11524106972
11524113442
11524120217
11524130288
11524134987
11524144021
11524148537
11524157509
11524166054
11524174965
11524181679
11524190285
11524197487
11524205056
11524211159
11524218605
11524223061
11524233803
11524241432
11524249306
11524254982
11524262917
11524270485
11524276344
11524284218
11524290932
11524299660
11524307594
11524314796
11524320839
11524328163
11524335915
11524340858
11524351967
11524359535
11524367470
11524376198
11524385780
11524393776
11524401344
11524412269
11524418739
11524428322
11524437111
11524445472
11524453041
11524461647
11524474281
11524483924
11524493995
11524500770
11524508522
11524517738
11524525062
11524533241
11524541053
11524550086
11524557777
11524565406
11524571937
11524579688
11524584266
11524595496
11524600196
11524609107
11524618140
11524625709
11524632850
11524641334
11524648963
11524658363
11524665198
11524671058
11524680701
11524687049
11524694068
11524703345
11524712378
11524719459
11524728187
11524734351
11524741675
11524749549
11524755408
11524760596
11524771521
11524778724
11524786719
11524794715
11524800757
11524805274
11524815650
11524823340
11524830481
11524839453
11524846045
11524853797
11524861792
11524869727
11524875525
11524883643
11524891943
11524898718
11524907080
11524915015
11524920508
11524928259
11524935950
11524941870
11524950232
11524958350
11524966528
11524973547
11524980017
11524987585
11524993201
11525001013
11525007910
11525018408
11525024573
11525031958
11525037939
11525045446
11525053015
11525059179
11525068396
11525076269
11525084692
11525092993
11525099890
11525108129
11525115637
11525125402
11525134252
11525143102
11525148290
11525158788
11525164465
11525174047
11525178564
11525187902
11525197118
11525207616
11525215673
11525223547
11525233251
11525241308
11525251745
11525260168
11525268285
11525273717
11525282018
11525288549
11525298864
11525307592
11525314123
11525323217
11525329564
11525338231
11525344091
11525350988
11525358739
11525365087
11525374120
11525383519
11525389867
11525398900
11525406469
11525417089
11525426244
11525435033
11525443028
11525449742
11525454320
11525464940
11525469396
11525479527
11525488072
11525494725
11525505162
11525511205
11525515721
11525526280
11525530919
11525540257
11525548009
11525555638
11525564061
11525572789
11525580601
11525586461
11525594212
11525600194
11525608128
11525614659
11525623387
11525631566
11525638096
11525645665
11525653660
11525659520
11525666966
11525676304
11525684788
11525690831
11525699009
11525706517
11525713597
11525722203
11525730442
11525737339
11525744541
11525752720
11525760166
11525767368
11525777317
11525784031
11525792637
11525800022
11525808567
11525815891
11525821690
11525829807
11525835667
11525842747
11525849766
11525858616
11525864902
11525873630
11525880283
11525885837
11525895725
11525903293
11525911045
11525916904
11525928501
11525936008
11525943821
11525953342
11525960117
11525970371
11525976596
11525986484
11525994297
11526001926
11526006504
11526015842
11526025058
11526031101
11526039524
11526047763
11526056003
11526061801
11526069614
11526075229
11526083896
11526091281
11526099521
11526105685
11526110080
11526119968
11526124484
11526134555
11526143161
11526151401
11526158176
11526166110
11526174472
11526180270
11526187594
11526195407
11526201816
11526209079
11526213901
11526224704
11526231845
11526239352
11526246005
11526253817
11526260104
11526267916
11526276522
11526282565
11526290805
11526296847
11526301364
11526312106
11526320040
11526327365
11526337313
11526345431
11526351840
11526359591
11526367281
11526373141
11526381136
11526387972
11526395602
11526403536
11526408114
11526417818
11526422579
11526430025
11526437411
11526447787
11526456026
11526462374
11526470125
11526477694
11526485689
11526491610
11526499056
11526508944
11526516878
11526523287
11526531832
11526539339
11526546175
11526554049
11526559969
11526567965
11526576693
11526582796
11526590731
11526596529
11526600923
11526611788
11526619722
11526625826
11526634737
11526643648
11526650545
11526658418
11526665010
11526672701
11526678987
11526687227
11526695772
11526702791
11526710847
11526718843
11526726045
11526734407
11526741487
11526751009
11526758455
11526766633
11526774934
11526782686
11526788911
11526795381
11526805208
11526814119
11526822236
11526829316
11526836946
11526844026
11526852449
11526858918
11526868440
11526877290
11526883516
11526891755
11526897676
11526905610
11526911531
11526916780
11526928681
11526937104
11526942964
11526950593
11526958589
11526964814
11526972382
11526978730
11526987397
11526996186
11527002290
11527010102
11527016145
11527024689
11527031281
11527039765
11527046418
11527054719
11527062592
11527068940
11527076752
11527081513
11527091645
11527096650
11527106476
11527118744
11527128876
11527144135
11527154572
11527170746
11527185028
11527201569
11527214813
11527222199
11527235687
11527247955
11527258820
11527266876
11527273407
11527282684
11527289520
11527297211
11527305878
11527315887
11527323517
11527331512
11527336029
11527345123
11527349945
11527359894
11527367889
11527375641
11527382965
11527389129
11527396026
11527405548
11527410797
11527420196
11527429779
11527437530
11527442840
11527452606
11527460296
11527468170
11527475494
11527482208
11527490936
11527499359
11527507232
11527513153
11527520965
11527529144
11527536224
11527543670
11527552703
11527560455
11527566375
11527572723
11527580291
11527586578
11527594634
11527602569
11527612457
11527616912
11527625640
11527632049
11527640227
11527647185
11527655669
11527662444
11527670867
11527677337
11527685576
11527692840
11527698943
11527705657
11527714141
11527722381
11527730498
11527737517
11527745757
11527751921
11527760772
11527765593
11527774260
11527781829
11527791411
11527798186
11527806609
11527814482
11527822051
11527828887
11527836699
11527847563
11527855315
11527866362
11527876921
11527886931
11527892058
11527900908
11527909941
11527918669
11527925017
11527934111
11527941984
11527949431
11527954191
11527964873
11527970549
11527981352
11527987395
11527995207
11528000395
11528010771
11528015471
11528025480
11528030241
11528040983
11528045866
11528055510
11528060820
11528068998
11528075163
11528084135
11528093717
11528100187
11528108854
11528114652
11528122343
11528130522
11528135282
11528145597
11528154203
11528162687
11528170255
11528176847
11528185575
11528191557
11528196256
11528207426
11528213346
11528223905
11528230985
11528239347
11528245695
11528253873
11528258756
11528269193
11528277372
11528284818
11528293180
11528299833
11528307096
11528315091
11528323331
11528329557
11528337674
11528345548
11528352933
11528359281
11528366788
11528374540
11528380704
11528389432
11528398160
11528404752
11528412076
11528419583
11528426419
11528432340
11528440152
11528446683
11528456204
11528462674
11528469998
11528477689
11528482266
11528491605
11528499905
11528507901
11528514859
11528522855
11528531277
11528539029
11528545132
11528552640
11528561551
11528567959
11528576077
11528581875
11528590176
11528598965
11528606167
11528612088
11528620572
11528627163
11528636197
11528642971
11528651211
11528657559
11528665371
11528672940
11528679104
11528688076
11528696926
11528702969
11528710293
11528716091
11528723538
11528731899
11528739041
11528747463
11528754971
11528761074
11528768826
11528776333
11528782497
11528790920
11528797390
11528806728
11528814541
11528822597
11528829922
11528837917
11528843899
11528850857
11528858730
11528864834
11528873440
11528880398
11528889248
11528895473
11528904079
11528910549
11528918422
11528927639
11528935878
11528942592
11528952053
11528956874
11528965847
11528974269
11528981166
11528989589
11528998378
11529006130
11529013820
11529020961
11529029201
11529035854
11529043666
11529051784
11529058315
11529066310
11529075038
11529082240
11529088344
11529097011
11529103664
11529112331
11529118678
11529129054
11529136256
11529144923
11529151820
11529161159
11529169154
11529177089
11529181788
11529191310
11529196376
11529206080
11529210475
11529221461
11529227748
11529237880
11529243007
11529253016
11529257777
11529267176
11529273829
11529281703
11529288905
11529297267
11529304103
11529311183
11529317530
11529325526
11529332179
11529340785
11529348597
11529356165
11529362452
11529370203
11529376612
11529384486
11529391077
11529398768
11529405726
11529414942
11529421839
11529429957
11529436365
11529443995
11529450159
11529459254
11529466334
11529473292
11529480189
11529489283
11529495814
11529503504
11529510157
11529517786
11529524622
11529532618
11529539331
11529546778
11529554041
11529563745
11529569117
11529579004
11529586512
11529594629
11529601160
11529609217
11529615991
11529623682
11529628198
11529640100
11529646692
11529656091
11529664575
11529673303
11529681970
11529687158
11529704370
11529725366
11529735437
11529747705
11529754663
11529764368
11529771142
11529779138
11529786889
11529795068
11529801050
11529809045
11529817407
11529824731
11529830713
11529837793
11529846093
11529855066
11529861169
11529867944
11529876062
11529880639
11529890710
11529895593
11529903710
11529910668
11529920678
11529925500
11529934289
11529941918
11529947534
11529954553
11529963952
11529969445
11529979821
11529984826
11529994714
11529999596
11530008935
11530016686
11530025536
11530033776
11530040246
11530051598
11530057397
11530065453
11530074303
11530081688
11530090050
11530098473
11530105187
11530114769
11530119591
11530129418
11530136559
11530145165
11530152672
11530160790
11530167809
11530175621
11530182213
11530190575
11530197777
11530205284
11530214379
11530220665
11530229271
11530235253
11530243065
11530250572
11530256981
11530263329
11530271385
11530279381
11530286461
11530294212
11530296715
11530307213
11530314537
11530320946
11530329857
11530335960
11530344749
11530350426
11530355491
11530366234
11530370933
11530379356
11530390953
11530398948
11530406456
11530415306
11530422691
11530429039
11530437034
11530445335
11530453086
11530459068
11530467674
11530475791
11530483238
11530489768
11530499473
11530507469
11530519248
11530524742
11530533164
11530540244
11530549400
11530554038
11530563560
11530571677
11530577842
11530584434
11530592857
11530599693
11530606773
11530613059
11530620994
11530629783
11530637778
11530644126
11530653342
11530660605
11530667014
11530673423
11530681846
11530689780
11530697471
11530703940
11530712058
11530718955
11530727195
11530733786
11530741050
11530749167
11530757041
11530763327
11530772177
11530778464
11530785605
11530792990
11530803794
11530812461
11530818625
11530825095
11530833029
11530840048
11530848044
11530855185
11530861838
11530871603
11530878317
11530882895
11530892661
11530900229
11530905844
11530913473
11530920676
11530928183
11530938010
11530942526
11530952048
11530959677
11530965170
11530971274
11530980917
11530990744
11530997213
11531005209
11531010946
11531017965
11531026876
11531034445
11531041098
11531051413
11531057394
11531065145
11531071005
11531078451
11531086691
11531095053
11531103597
11531111227
11531117819
11531125631
11531134054
11531140707
11531149313
11531156698
11531166647
11531174581
11531183736
11531192525
11531200033
11531209188
11531218771
11531225606
11531234823
11531242147
11531246969
11531258260
11531268087
11531274618
11531283956
11531290487
11531298604
11531307088
11531315206
11531321859
11531331319
11531336080
11531344991
11531354146
11531360982
11531369100
11531376729
11531379293
11531389669
11531394124
11531405599
11531411458
11531418965
11531424581
11531428914
11531432088
11531439839
11531443257
11531451863
11531455403
11531463582
11531469136
11531474995
11531479878
11531485432
11531490315
11531496480
11531502217
11531507527
11531512593
11531517232
11531523396
11531527669
11531534749
11531540608
11531546651
11531551777
11531558369
11531562886
11531568745
11531574116
11531579915
11531586812
11531593098
11531597126
11531603108
11531607808
11531615742
11531622334
11531626851
11531632161
11531637837
11531643879
11531648518
11531655476
11531660908
11531667683
11531673298
11531679035
11531684956
11531689106
11531694844
11531701374
11531706806
11531712605
11531717488
11531723164
11531729450
11531734089
11531740925
11531745381
11531753620
11531759785
11531763813
11531771503
11531777546
11531784321
11531792744
11531800678
11531806599
11531812519
11531818317
11531825214
11531830707
11531838337
11531844990
11531850605
11531853962
11531860859
11531865925
11531870258
11531876117
11531880634
11531886921
11531892719
11531896747
11531902179
11531906818
11531911396
11531916095
11531921772
11531927509
11531931720
11531937580
11531941669
11531948566
11531953388
11531959369
11531965778
11531971027
11531977252
11531982135
11531985614
11531992877
11531998126
11532003131
11532010822
11532015888
11532020709
11532024677
11532031207
11532035480
11532039996
11532044818
11532050922
11532055927
11532061664
11532066241
11532071674
11532076556
11532081683
11532087665
11532093768
11532100482
11532106219
11532111652
11532116473
11532122577
11532128070
11532132403
11532138263
11532143573
11532147540
11532153583
11532160296
11532165668
11532170428
11532177936
11532182696
11532186480
11532192584
11532198993
11532203936
11532208758
11532217669
11532224444
11532231036
11532237567
11532244586
11532252154
11532260028
11532268023
11532275714
11532281573
11532284625
11532297076
11532301715
11532311297
11532316546
11532330096
11532337786
11532347247
11532352190
11532361834
11532370684
11532379107
11532386797
11532389910
11532402422
11532409624
11532422930
11532430010
11532441424
11532447893
11532456133
11532466143
11532474993
11532479693
11532487383
11532493425
11532500811
11532507525
11532512224
11532520403
11532528215
11532535479
11532542131
11532549639
11532555864
11532560442
11532569231
11532575945
11532582476
11532589495
11532597795
11532604265
11532609270
11532618425
11532625261
11532631059
11532637163
11532644609
11532651262
11532657365
11532666277
11532673051
11532679094
11532685320
11532689836
11532700151
11532707719
11532714799
11532722856
11532730119
11532736040
11532742814
11532748918
11532756486
11532763811
11532767839
11532776445
11532782914
11532787797
11532798845
11532803911
11532811906
11532818864
11532826432
11532833207
11532836015
11532846086
11532853349
11532860490
11532867265
11532873307
11532881303
11532887712
11532893754
11532901872
11532908036
11532916886
11532923844
11532929643
11532934464
11532943437
11532950089
11532958085
11532970536
11532977067
11532983781
11532990250
11532999100
11533007157
11533014725
11533020341
11533032853
11533039017
11533049637
11533056717
11533065690
11533073380
11533082169
11533089554
11533098099
11533106888
11533113724
11533116776
11533131363
11533134781
11533146561
11533154312
11533161270
11533167679
11533174698
11533182450
11533188431
11533197220
11533204422
11533214920
11533224991
11533233170
11533239945
11533245438
11533252945
11533260147
11533270340
11533277420
11533283829
11533294998
11533302261
11533307632
11533314468
11533319290
11533325455
11533330215
11533336685
11533341629
11533344986
11533352554
11533355972
11533362259
11533368484
11533372757
11533380020
11533385513
11533390335
11533396804
11533401626
11533406387
11533411758
11533418228
11533422927
11533430008
11533434585
11533440200
11533444534
11533450820
11533455337
11533460281
11533465286
11533472122
11533479324
11533484085
11533489334
11533493667
11533499526
11533505325
11533509780
11533517837
11533523269
11533529861
11533535232
11533539993
11533546462
11533550735
11533555618
11533560745
11533566177
11533572890
11533578078
11533583816
11533588027
11533594497
11533599013
11533604568
11533610732
11533615798
11533622878
11533628188
11533633132
11533639907
11533644301
11533649245
11533654555
11533659865
11533666213
11533670852
11533676589
11533681350
11533687392
11533692397
11533698073
11533703627
11533710036
11533714736
11533720412
11533724746
11533731093
11533735549
11533742629
11533747634
11533753859
11533758742
11533762953
11533771193
11533774794
11533781630
11533786879
11533792739
11533800063
11533807631
11533814162
11533820754
11533826186
11533832716
11533838210
11533844008
11533849501
11533855910
11533862929
11533868971
11533875380
11533882948
11533887343
11533896437
11533902357
11533906325
11533912123
11533917738
11533923048
11533929152
11533934950
11533939406
11533946669
11533950697
11533956068
11533962050
11533968580
11533972731
11533979323
11533984388
11533989576
11533996046
11534002089
11534007154
11534014540
11534020277
11534026747
11534034193
11534039259
11534044081
11534050917
11534055860
11534060987
11534067152
11534071058
11534077833
11534083387
11534089735
11534095045
11534101148
11534105909
11534112440
11534117140
11534123365
11534129163
11534133497
11534142469
11534146070
11534153577
11534157179
11534163526
11534170301
11534175184
11534180433
11534187147
11534192091
11534198133
11534204420
11534209547
11534216016
11534219739
11534227674
11534235547
11534240980
11534246107
11534251539
11534256910
11534262403
11534267957
11534274610
11534279676
11534287061
11534292493
11534298780
11534303479
11534308851
11534314649
11534319898
11534325513
11534333509
11534339368
11534343946
11534351026
11534355847
11534362439
11534367566
11534374341
11534380139
11534384595
11534393933
11534400830
11534408399
11534414624
11534417432
11534428296
11534437085
11534445325
11534452527
11534464917
11534472668
11534478345
11534484998
11534490247
11534500622
11534506360
11534515210
11534523083
11534531445
11534541394
11534549328
11534556469
11534564587
11534568676
11534576672
11534581738
11534588086
11534593701
11534599987
11534603650
11534610424
11534615796
11534623181
11534629406
11534634411
11534639111
11534644909
11534649975
11534655102
11534661206
11534666149
11534671398
11534678601
11534683117
11534688915
11534695507
11534701061
11534705822
11534711865
11534717846
11534723827
11534730053
11534735485
11534741467
11534746044
11534751415
11534757641
11534762524
11534770031
11534773876
11534782421
11534786083
11534792675
11534797558
11534803783
11534809338
11534815258
11534820568
11534826732
11534833324
11534838817
11534845470
11534851330
11534859081
11534865185
11534870678
11534877819
11534884655
11534890575
11534895641
11534899547
11534908702
11534912609
11534920604
11534926342
11534932140
11534938976
11534944164
11534948864
11534954601
11534961009
11534967052
11534972911
11534977977
11534986156
11534992320
11535000316
11535004527
11535013133
11535019908
11535025951
11535032787
11535042003
11535050365
11535057384
11535065746
11535073009
11535078990
11535086864
11535093822
11535102611
11535107127
11535117686
11535127940
11535136241
11535145213
11535152842
11535155955
11535169505
11535174693
11535182628
11535192759
11535200511
11535209300
11535216624
11535223216
11535230906
11535236827
11535242015
11535249339
11535255931
11535262278
11535267527
11535273204
11535278025
11535283579
11535288584
11535295115
11535299693
11535306101
11535312693
11535317332
11535321726
11535327769
11535334116
11535339304
11535344004
11535351267
11535356150
11535359751
11535367869
11535373606
11535377940
11535382883
11535388621
11535394846
11535401316
11535406077
11535412668
11535417551
11535423350
11535427622
11535432749
11535439768
11535445749
11535450449
11535456614
11535461069
11535467295
11535471689
11535477427
11535482126
11535489328
11535495859
11535500681
11535506357
11535511301
11535516855
11535522959
11535527964
11535532846
11535539682
11535544626
11535549570
11535556040
11535561228
11535566110
11535572153
11535576914
11535583505
11535589731
11535593271
11535599863
11535603586
11535610544
11535615427
11535621164
11535626352
11535633127
11535637827
11535643503
11535647958
11535653879
11535658029
11535664194
11535668954
11535675424
11535685190
11535689767
11535695749
11535703683
11535709238
11535716684
11535722909
11535730600
11535735971
11535742074
11535747323
11535753488
11535760446
11535767160
11535773324
11535781015
11535786447
11535793283
11535798959
11535802621
11535809518
11535813607
11535821115
11535828256
11535835153
11535840890
11535848458
11535853707
11535861398
11535865609
11535871102
11535875680
11535882699
11535888680
11535892892
11535898629
11535903573
11535907723
11535912789
11535919381
11535924447
11535930062
11535935189
11535939339
11535944405
11535949776
11535953072
11535960641
11535966500
11535973519
11535979378
11535984627
11535990121
11535994393
11535999215
11536005135
11536011178
11536017403
11536033578
11536038033
11536043709
11536047860
11536053841
11536060372
11536065194
11536071419
11536076119
11536082467
11536087227
11536093209
11536099190
11536105172
11536109932
11536115670
11536121773
11536126473
11536130684
11536137337
11536143074
11536149605
11536155709
11536160652
11536164986
11536168282
11536176033
11536179451
11536186836
11536192879
11536199288
11536202644
11536209480
11536214851
11536219368
11536224068
11536229683
11536237312
11536242806
11536247993
11536254097
11536259163
11536265266
11536270576
11536277595
11536284492
11536291572
11536297493
11536301948
11536308174
11536314827
11536320137
11536324837
11536331367
11536335579
11536345100
11536348579
11536355598
11536362495
11536369270
11536375374
11536382026
11536388740
11536395271
11536400581
11536406562
11536413704
11536420173
11536425239
11536431465
11536441108
11536444831
11536451301
11536455390
11536465461
11536470893
11536475166
11536481391
11536487190
11536492317
11536497688
11536502570
11536510078
11536515388
11536521858
11536527778
11536531135
11536538276
11536541450
11536547248
11536553657
11536560493
11536563728
11536570624
11536576789
11536580939
11536587409
11536592048
11536597846
11536602668
11536608954
11536613105
11536617682
11536623420
11536628913
11536634589
11536640693
11536646491
11536650702
11536655890
11536661811
11536667060
11536673224
11536678107
11536683417
11536688910
11536694831
11536700751
11536705756
11536711982
11536716742
11536722480
11536726813
11536732672
11536736029
11536744269
11536749091
11536754340
11536760321
11536765387
11536770880
11536775275
11536782111
11536790534
11536797431
11536802069
11536807929
11536813788
11536818671
11536825263
11536832465
11536839178
11536845038
11536849493
11536855536
11536860358
11536868475
11536875006
11536880072
11536889654
11536897467
11536902411
11536910773
11536915838
11536923895
11536930060
11536936102
11536943121
11536950934
11536954596
11536961981
11536965643
11536971685
11536977240
11536983831
11536988714
11536994329
11536998907
11537005560
11537010443
11537015081
11537022772
11537028875
11537033026
11537039923
11537046697
11537052069
11537057134
11537064092
11537069219
11537074163
11537080145
11537085699
11537090521
11537096563
11537101385
11537107855
11537115362
11537120977
11537125127
11537131292
11537135687
11537141851
11537146490
11537152532
11537157964
11537165411
11537171392
11537175542
11537182683
11537186590
11537194036
11537197759
11537204717
11537211004
11537218938
11537224248
11537229558
11537234441
11537240484
11537246831
11537252080
11537257085
11537266485
11537271673
11537275518
11537283025
11537288274
11537293340
11537298162
11537305425
11537310491
11537316655
11537323186
11537328252
11537334905
11537337224
11537346135
11537349858
11537356572
11537362615
11537368962
11537374394
11537380620
11537385137
11537392034
11537396611
11537402959
11537408086
11537415349
11537420659
11537427190
11537432378
11537439030
11537444402
11537449712
11537454716
11537463689
11537469365
11537474370
11537480900
11537486149
11537492802
11537498112
11537504521
11537510075
11537518193
11537522770
11537529301
11537536686
11537542607
11537547429
11537555119
11537560429
11537565800
11537574772
11537578373
11537584721
11537589543
11537595829
11537600651
11537605778
11537613652
11537618962
11537623295
11537629032
11537635258
11537640812
11537645634
11537650944
11537656986
11537661747
11537667729
11537673039
11537679447
11537683415
11537688908
11537694218
11537699467
11537704716
11537711613
11537716435
11537721684
11537726383
11537731693
11537736149
11537742619
11537747318
11537753605
11537758244
11537764347
11537770512
11537775516
11537781315
11537785343
11537791630
11537799259
11537804203
11537808964
11537814518
11537819950
11537825931
11537830875
11537837528
11537842899
11537850589
11537855533
11537861393
11537867679
11537871952
11537877933
11537883121
11537889896
11537896549
11537902530
11537907291
11537913761
11537918460
11537924686
11537929447
11537935001
11537942935
11537949588
11537954471
11537959781
11537966007
11537971317
11537977603
11537981326
11537987735
11537993961
11538000919
11538005863
11538011905
11538016788
11538021487
11538028079
11538033939
11538038943
11538046146
11538050540
11538055423
11538062137
11538065982
11538072818
11538076236
11538084537
11538091189
11538098147
11538104556
11538109256
11538115848
11538120852
11538124515
11538133487
11538137820
11538145083
11538154544
11538158450
11538165408
11538169864
11538175357
11538181643
11538186160
11538192202
11538197634
11538202761
11538209292
11538214297
11538220645
11538227420
11538235232
11538240969
11538246585
11538252017
11538257632
11538263613
11538268801
11538272402
11538280154
11538283450
11538290896
11538294558
11538302065
11538305300
11538311648
11538317263
11538323367
11538328127
11538333804
11538338564
11538344729
11538349001
11538354617
11538359499
11538367068
11538373537
11538378359
11538384157
11538388918
11538393252
11538400210
11538405581
11538409731
11538418520
11538422243
11538428896
11538434267
11538439699
11538444277
11538450380
11538457155
11538463320
11538468447
11538475283
11538482607
11538489138
11538495058
11538504518
11538510927
11538514040
11538524172
11538532045
11538542848
11538547914
11538558046
11538565553
11538568849
11538580507
11538589662
11538598512
11538605348
11538613649
11538620729
11538626222
11538633546
11538642763
11538645814
11538657472
11538664491
11538672487
11538679140
11538687013
11538693727
11538698732
11538708375
11538713136
11538721437
11538728883
11538737611
11538745118
11538750367
11538759523
11538766237
11538773988
11538783509
11538789796
11538797914
11538806153
11538813356
11538822328
11538829957
11538836366
11538843019
11538851502
11538857972
11538864442
11538872682
11538879762
11538885499
11538889710
11538895204
11538900880
11538904481
11538912110
11538917847
11538923341
11538927979
11538933778
11538938782
11538944764
11538949769
11538954896
11538960816
11538965821
11538972108
11538977845
11538982117
11538987855
11538993653
11538998963
11539003602
11539011353
11539015870
11539019349
11539026978
11539031739
11539037659
11539042908
11539047669
11539054688
11539061280
11539066102
11539070984
11539077332
11539082398
11539086853
11539092408
11539098145
11539106507
11539111389
11539116883
11539121216
11539126770
11539132508
11539135865
11539142151
11539147339
11539154663
11539158020
11539164673
11539169556
11539175537
11539180176
11539186157
11539191528
11539199524
11539204346
11539210083
11539214783
11539218384
11539226868
11539230408
11539237854
11539241638
11539249145
11539252686
11539258850
11539263672
11539270019
11539274841
11539281677
11539286926
11539295227
11539300537
11539306885
11539312866
11539320312
11539326050
11539332763
11539339660
11539346130
11539351623
11539358398
11539363769
11539370727
11539375976
11539383850
11539390869
11539399536
11539407836
11539412780
11539418762
11539423217
11539428710
11539437011
11539443176
11539451415
11539457092
11539461730
11539468688
11539473022
11539478454
11539484313
11539490661
11539495178
11539500182
11539505431
11539510619
11539515929
11539520019
11539526183
11539531738
11539537719
11539539794
11539548339
11539551879
11539559020
11539562438
11539569579
11539576415
11539581115
11539586120
11539592101
11539596984
11539602782
11539607604
11539613219
11539617919
11539624572
11539629577
11539636413
11539643371
11539649108
11539654113
11539661742
11539668029
11539674010
11539679442
11539684874
11539689574
11539696166
11539702758
11539704894
11539713988
11539718199
11539728514
11539735716
11539743956
11539750182
11539759093
11539765685
11539772215
11539777098
11539781432
11539786559
11539790953
11539795592
11539800536
11539805174
11539810301
11539816039
11539821227
11539826170
11539830687
11539835631
11539840758
11539847899
11539853392
11539857664
11539862852
11539866942
11539871641
11539876097
11539881163
11539886290
11539891234
11539897337
11539901671
11539906126
11539912047
11539916807
11539921751
11539929258
11539932432
11539939207
11539945250
11539949583
11539955992
11539963316
11539966978
11539973875
11539981321
11539986814
11539992186
11539997496
11540003599
11540010618
11540015928
11540019773
11540026060
11540030882
11540034361
11540039366
11540045713
11540051390
11540055784
11540061704
11540065733
11540072141
11540075987
11540081724
11540088011
11540093260
11540098020
11540103758
11540108030
11540114011
11540118345
11540123106
11540130430
11540135252
11540139158
11540145078
11540151792
11540157041
11540163633
11540169370
11540174497
11540180967
11540185300
11540190793
11540195554
11540201658
11540206602
11540212461
11540218381
11540224790
11540229734
11540235349
11540239988
11540245420
11540249875
11540255735
