11394322087
11394327153
11394332341
11394337834
11394343877
11394349126
11394354802
11394360356
11394365971
11394371709
11394377202
11394382878
11394388188
11394394231
11394400456
11394406255
11394412541
11394420903
11394426640
11394431767
11394438908
11394445805
11394453252
11394461064
11394469182
11394474919
11394480473
11394487187
11394494511
11394502385
11394511906
11394521061
11394527104
11394536503
11394546879
11394555363
11394565312
11394573979
11394581669
11394590031
11394596928
11394604191
11394611454
11394617558
11394624699
11394630558
11394637272
11394643803
11394649296
11394656986
11394662602
11394668339
11394671696
11394679508
11394685551
11394691227
11394698307
11394703983
11394709599
11394715336
11394721256
11394726810
11394734196
11394739811
11394747013
11394752323
11394759769
11394765507
11394771061
11394778324
11394783878
11394789188
11394796390
11394801639
11394809757
11394812931
11394821903
11394828006
11394833500
11394838810
11394846561
11394853214
11394858707
11394865421
11394870853
11394877140
11394884159
11394890628
11394896976
11394902713
11394908634
11394914859
11394921451
11394926944
11394934085
11394941470
11394945621
11394953861
11394960025
11394965946
11394972293
11394978519
11394986392
11394993167
11394999698
11395004398
11395012637
11395017886
11395024844
11395030337
11395038150
11395042056
11395050845
11395055362
11395062076
11395068362
11395074527
11395083621
11395088809
11395098452
11395102725
11395111453
11395118228
11395125308
11395132998
11395140750
11395148501
11395154483
11395160891
11395166018
11395174502
11395179690
11395188784
11395195254
11395202517
11395209353
11395215762
11395220584
11395227725
11395234011
11395241763
11395247195
11395253542
11395259768
11395266238
11395273379
11395279849
11395288699
11395293398
11395301333
11395308230
11395313723
11395321108
11395327456
11395332583
11395341067
11395346377
11395353701
11395359072
11395366213
11395371645
11395379336
11395385988
11395391665
11395396975
11395403750
11395411135
11395416750
11395423281
11395428835
11395437990
11395444277
11395450869
11395457216
11395461428
11395468508
11395475161
11395481447
11395486574
11395493898
11395500856
11395509401
11395516786
11395522402
11395530946
11395536379
11395545290
11395551149
11395558962
11395564760
11395572023
11395579408
11395587465
11395593263
11395602357
11395607851
11395615846
11395623537
11395628847
11395636354
11395642702
11395651613
11395659974
11395668519
11395675355
11395683534
11395689027
11395698366
11395703248
11395713746
11395717958
11395728944
11395735963
11395744142
11395751039
11395757508
11395766114
11395774903
11395781434
11395791810
11395799989
11395809266
11395816163
11395825685
11395832398
11395841432
11395850526
11395857850
11395869080
11395876405
11395885499
11395894288
11395900513
11395909241
11395916199
11395922120
11395928895
11395937256
11395944642
11395952027
11395957703
11395966492
11395972169
11395981202
11395986939
11395995606
11396001221
11396008851
11396016541
11396022461
11396029114
11396035523
11396044495
11396051697
11396058411
11396064637
11396072144
11396077942
11396087219
11396093750
11396102600
11396109009
11396115357
11396123657
11396130371
11396135986
11396144592
11396150269
11396159363
11396164917
11396172241
11396180847
11396188293
11396195801
11396202942
11396208557
11396217224
11396224792
11396227295
11396237976
11396242554
11396252685
11396257019
11396266601
11396274475
11396282715
11396287109
11396296081
11396303039
11396309631
11396315246
11396323547
11396329956
11396340759
11396346984
11396353942
11396362060
11396370483
11396376647
11396384582
11396392944
11396401672
11396407836
11396416320
11396422485
11396429565
11396438842
11396445861
11396453429
11396460021
11396467895
11396476257
11396483520
11396491882
11396498717
11396507018
11396514526
11396520873
11396528747
11396540038
11396547240
11396556212
11396564452
11396570922
11396579467
11396586425
11396594726
11396603759
11396615111
11396620910
11396629393
11396637877
11396645629
11396652037
11396662047
11396667174
11396678221
11396686095
11396691771
11396697997
11396706236
11396712584
11396721556
11396725279
11396736022
11396743041
11396749693
11396757933
11396764464
11396770201
11396781187
11396788023
11396794798
11396800597
11396809996
11396816222
11396823363
11396828978
11396838866
11396844725
11396852476
11396859923
11396867674
11396875242
11396880736
11396890257
11396898130
11396905455
11396911253
11396918882
11396926207
11396933714
11396941282
11396947691
11396958189
11396964598
11396973143
11396981382
11396986936
11396996580
11397001829
11397010679
11397017698
11397027097
11397034116
11397040708
11397046812
11397056394
11397062803
11397071531
11397078001
11397086057
11397094236
11397102720
11397108884
11397117429
11397124631
11397128782
11397138425
11397147520
11397154844
11397163877
11397169675
11397178159
11397186765
11397192991
11397201474
11397207822
11397217160
11397225278
11397230710
11397239926
11397247800
11397254941
11397262082
11397268735
11397278195
11397286252
11397292417
11397301938
11397308225
11397316220
11397324704
11397332761
11397339536
11397348874
11397359067
11397366269
11397375119
11397383481
11397390500
11397399777
11397406552
11397416440
11397425168
11397432736
11397439511
11397444882
11397455685
11397464108
11397471371
11397478573
11397486813
11397493832
11397502072
11397508419
11397515133
11397521359
11397531308
11397540707
11397548031
11397553768
11397561886
11397569577
11397576473
11397582943
11397591549
11397599728
11397607296
11397613461
11397622677
11397628414
11397636044
11397642880
11397651424
11397658871
11397665890
11397673397
11397679806
11397689144
11397695553
11397703487
11397711849
11397718075
11397726253
11397736507
11397742977
11397750850
11397757259
11397764583
11397773861
11397779049
11397788936
11397796261
11397803463
11397812496
11397820552
11397826839
11397835201
11397841426
11397848018
11397857723
11397867122
11397873470
11397882198
11397888606
11397896663
11397903987
11397910884
11397920040
11397926875
11397936763
11397943477
11397951411
11397958064
11397966670
11397972896
11397981441
11397987849
11397997249
11398005489
11398011531
11398018916
11398025996
11398034175
11398040339
11398048823
11398057795
11398064326
11398070552
11398080439
11398087092
11398094355
11398102656
11398109187
11398116328
11398124995
11398134211
11398139033
11398149531
11398153804
11398164302
11398171870
11398183467
11398190791
11398206294
11398214350
11398221308
11398231379
11398238642
11398248652
11398255427
11398263361
11398274348
11398281062
11398288691
11398295832
11398301813
11398309992
11398317499
11398325068
11398332575
11398340082
11398347712
11398353510
11398361323
11398369135
11398376642
11398383600
11398391047
11398397883
11398405634
11398412531
11398420160
11398425959
11398434992
11398442560
11398451105
11398455500
11398465814
11398470209
11398478754
11398482538
11398493463
11398500665
11398507257
11398512995
11398521906
11398527826
11398535394
11398541132
11398550409
11398556085
11398563348
11398570734
11398578058
11398585809
11398593378
11398598993
11398605340
11398614068
11398620172
11398629510
11398634332
11398644647
11398652337
11398659662
11398667047
11398675042
11398681268
11398690606
11398697015
11398705621
11398714044
11398720330
11398728814
11398734307
11398743707
11398748651
11398758905
11398767388
11398774468
11398778741
11398790154
11398797601
11398805352
11398812798
11398824151
11398831353
11398838006
11398845208
11398853631
11398860345
11398866814
11398874505
11398881402
11398889947
11398896600
11398903680
11398909539
11398917962
11398926018
11398937127
11398941887
11398952385
11398959771
11398970269
11398979790
11398988640
11398997551
11399004692
11399016594
11399025505
11399033074
11399042229
11399049431
11399058220
11399066033
11399072441
11399080925
11399087334
11399094597
11399101372
11399107536
11399116142
11399122490
11399129692
11399135613
11399143974
11399152092
11399159721
11399165459
11399172722
11399180412
11399186516
11399194023
11399200676
11399208366
11399213554
11399222160
11399229973
11399235893
11399242729
11399252128
11399262016
11399270317
11399275139
11399283622
11399290702
11399298576
11399304680
11399314201
11399320549
11399329216
11399337516
11399344108
11399352287
11399358329
11399367485
11399375541
11399381706
11399389091
11399398551
11399402702
11399412101
11399421317
11399428214
11399434623
11399443046
11399451591
11399459403
11399467765
11399474906
11399483207
11399489188
11399496329
11399503532
11399511466
11399517814
11399527701
11399534049
11399543082
11399549308
11399557670
11399566214
11399572501
11399580802
11399588187
11399596671
11399603202
11399612601
11399618644
11399627433
11399633780
11399641165
11399649466
11399655631
11399664054
11399672110
11399677481
11399686392
11399694144
11399700675
11399709403
11399717459
11399726553
11399733695
11399738883
11399750357
11399755911
11399766531
11399774771
11399786124
11399792654
11399802664
11399808646
11399819754
11399828787
11399836600
11399845022
11399853933
11399861563
11399869436
11399875418
11399884268
11399889456
11399897940
11399905081
11399913504
11399920034
11399926626
11399933035
11399940420
11399946218
11399955801
11399961538
11399971975
11399978445
11399985098
11399993276
11400001028
11400006887
11400014761
11400020559
11400029653
11400037283
11400043874
11400051382
11400058401
11400066091
11400072378
11400079885
11400086050
11400093557
11400101797
11400107534
11400114919
11400127004
11400131765
11400140554
11400149465
11400157155
11400166250
11400174123
11400181997
11400188039
11400196035
11400203908
11400211538
11400217275
11400224965
11400230764
11400235219
11400245473
11400252797
11400260305
11400264943
11400274709
11400282094
11400288930
11400297475
11400304860
11400311879
11400319631
11400325978
11400334340
11400346852
11400354420
11400363454
11400370412
11400376759
11400385976
11400394459
11400403798
11400410084
11400419057
11400425465
11400434376
11400440785
11400449269
11400455555
11400464467
11400471730
11400478627
11400487965
11400494862
11400501942
11400508656
11400517750
11400527088
11400538624
11400545216
11400555287
11400562001
11400572193
11400576710
11400590382
11400597584
11400607594
11400614246
11400621143
11400629627
11400637135
11400644947
11400651417
11400660572
11400667469
11400674427
11400680775
11400688465
11400696888
11400703724
11400709400
11400719776
11400726246
11400733448
11400739185
11400748401
11400753895
11400762317
11400767994
11400777210
11400783130
11400790638
11400798328
11400806018
11400813770
11400819751
11400827381
11400835437
11400841236
11400849842
11400855518
11400863330
11400870899
11400875293
11400885303
11400890308
11400900379
11400907886
11400917712
11400924732
11400932910
11400939990
11400948230
11400954700
11400964404
11400971179
11400980029
11400989184
11400996875
11401003223
11401012256
11401018603
11401028186
11401036426
11401043750
11401050158
11401056445
11401065905
11401070910
11401081775
11401086657
11401097216
11401101306
11401113513
11401117663
11401127917
11401134082
11401142993
11401149279
11401158862
11401167834
11401174487
11401180895
11401190356
11401196765
11401205798
11401212084
11401220812
11401227099
11401231188
11401243578
11401248400
11401257677
11401264696
11401273913
11401281298
11401289477
11401295946
11401304247
11401313524
11401320910
11401329455
11401336168
11401345019
11401351610
11401362780
11401370714
11401379442
11401386339
11401394335
11401400499
11401407763
11401416307
11401426927
11401435228
11401443041
11401448961
11401456468
11401462877
11401470201
11401476793
11401485277
11401492540
11401499071
11401503526
11401514574
11401519273
11401528307
11401534715
11401543077
11401549547
11401556261
11401561998
11401570299
11401578661
11401585252
11401591234
11401600328
11401605943
11401615037
11401623582
11401630479
11401638902
11401645372
11401653856
11401660875
11401668260
11401676744
11401684007
11401691514
11401698960
11401706041
11401714952
11401721177
11401730699
11401736924
11401746446
11401752732
11401760728
11401769090
11401775743
11401784104
11401789903
11401799058
11401807542
11401813828
11401820969
11401829636
11401836533
11401845200
11401851731
11401861253
11401870408
11401876389
11401884629
11401892869
11401899155
11401907334
11401915574
11401923813
11401930100
11401939316
11401945664
11401952866
11401960129
11401966416
11401975022
11401984238
11401992905
11402002060
11402009934
11402016159
11402024704
11402031235
11402039719
11402046128
11402056015
11402064316
11402070358
11402078598
11402086289
11402093979
11402099716
11402109421
11402114548
11402125656
11402134140
11402141830
11402149521
11402157639
11402164413
11402174118
11402184006
11402190842
11402197006
11402207809
11402214096
11402223861
11402230819
11402237411
11402244003
11402251571
11402257370
11402265732
11402274154
11402280197
11402286117
11402294784
11402302414
11402309860
11402317428
11402324447
11402331954
11402338302
11402346237
11402353012
11402360702
11402367660
11402373458
11402380294
11402389633
11402394515
11402403549
11402410568
11402418624
11402427596
11402436019
11402443099
11402450118
11402458358
11402464828
11402473434
11402479903
11402488448
11402495956
11402505294
11402509994
11402521041
11402529036
11402535445
11402542525
11402550765
11402556991
11402567183
11402573592
11402582564
11402588973
11402596419
11402604964
11402612777
11402619124
11402627974
11402636397
11402642867
11402650191
11402657149
11402666731
11402671065
11402682173
11402689314
11402697432
11402703658
11402711714
11402720076
11402727339
11402733626
11402742598
11402748946
11402757490
11402766646
11402771468
11402781966
11402786970
11402796248
11402803328
11402811201
11402817610
11402826460
11402835493
11402841292
11402849470
11402858137
11402864119
11402872664
11402878828
11402889265
11402895674
11402904707
11402911726
11402920698
11402927534
11402934736
11402944868
11402952253
11402963606
11402971296
11402977644
11402985700
11402995527
11403003034
11403010420
11403020918
11403027143
11403037458
11403043501
11403051252
11403058881
11403064619
11403072187
11403080549
11403088300
11403094526
11403103315
11403111555
11403117414
11403125471
11403134137
11403144391
11403150190
11403159101
11403164838
11403173322
11403181989
11403188459
11403194318
11403203107
11403210553
11403216962
11403224713
11403232038
11403239606
11403246747
11403252545
11403261334
11403266950
11403274823
11403282575
11403288373
11403295087
11403301434
11403310162
11403318707
11403327924
11403332501
11403341656
11403348920
11403356000
11403362714
11403371991
11403378888
11403386578
11403392743
11403400616
11403406476
11403413251
11403419049
11403427228
11403434979
11403441754
11403451153
11403458172
11403465924
11403468426
11403478924
11403483441
11403493512
11403498761
11403508404
11403515728
11403522625
11403526715
11403536602
11403542462
11403549969
11403557781
11403565228
11403571087
11403578838
11403586407
11403592327
11403600079
11403604534
11403614117
11403623089
11403629925
11403636639
11403643169
11403649090
11403656780
11403664471
11403676067
11403680828
11403691936
11403700664
11403709698
11403718059
11403726848
11403735027
11403743694
11403754009
11403760723
11403769756
11403774578
11403784710
11403792522
11403799541
11403806560
11403813335
11403819194
11403828838
11403836101
11403844097
11403849956
11403858745
11403864421
11403875713
11403881755
11403891521
11403899883
11403907573
11403913493
11403922221
11403927043
11403936626
11403944743
11403950420
11403958598
11403965373
11403971660
11403979655
11403986186
11403995341
11404002116
11404008891
11404014689
11404022868
11404028483
11404037394
11404043132
11404051310
11404059062
11404067057
11404072795
11404080485
11404088115
11404094401
11404102031
11404107524
11404115946
11404120402
11404130351
11404134867
11404144755
11404152079
11404159098
11404167277
11404174540
11404181437
11404189311
11404195536
11404204264
11404212565
11404219157
11404227335
11404234965
11404242899
11404249491
11404256632
11404264994
11404272135
11404279276
11404286539
11404295878
11404304301
11404311503
11404319193
11404325602
11404335184
11404341654
11404350687
11404356913
11404366007
11404372293
11404377298
11404388224
11404393106
11404403238
11404407389
11404418497
11404425516
11404434976
11404441141
11404450846
11404458109
11404467935
11404474771
11404482706
11404491434
11404501688
11404509988
11404517557
11404525797
11404533121
11404541238
11404548257
11404556924
11404566568
11404572549
11404581277
11404589090
11404596170
11404603799
11404610940
11404618448
11404625161
11404632852
11404640115
11404647683
11404655008
11404662393
11404668985
11404676431
11404683633
11404691873
11404698281
11404706765
11404713357
11404720925
11404726785
11404734475
11404741677
11404750283
11404756936
11404763528
11404770913
11404778603
11404782998
11404793496
11404798501
11404808205
11404816811
11404823952
11404828286
11404839822
11404847390
11404854653
11404860940
11404870522
11404876687
11404886635
11404892861
11404900185
11404908730
11404916054
11404923623
11404940529
11404949624
11404956459
11404964821
11404971657
11404975380
11404986794
11404990883
11405003395
11405007180
11405016091
11405023781
11405033974
11405041908
11405048256
11405059487
11405066322
11405074684
11405080238
11405089150
11405094277
11405103127
11405111794
11405120216
11405126015
11405134926
11405143349
11405149391
11405158058
11405166176
11405174110
11405182411
11405188942
11405196998
11405204872
11405212929
11405219337
11405226112
11405239479
11405246620
11405254005
11405259925
11405268715
11405277015
11405283302
11405291481
11405299659
11405307594
11405317604
11405324439
11405333351
11405340125
11405348060
11405353858
11405362708
11405368507
11405377479
11405383338
11405392310
11405397987
11405406287
11405412025
11405419105
11405427772
11405434119
11405442664
11405450233
11405455787
11405464393
11405470130
11405479224
11405486793
11405493140
11405499732
11405507850
11405514625
11405518531
11405529151
11405536536
11405543433
11405549781
11405557776
11405564124
11405571326
11405577185
11405585486
11405593787
11405601416
11405607093
11405615210
11405621009
11405629553
11405635901
11405645056
11405651221
11405660864
11405666968
11405675452
11405681738
11405690100
11405697363
11405704871
11405712622
11405722266
11405729590
11405736426
11405744360
11405750708
11405760901
11405767065
11405776037
11405782324
11405790503
11405798926
11405806860
11405813208
11405822058
11405828528
11405837195
11405844580
11405848791
11405861975
11405866125
11405876013
11405882544
11405891760
11405898168
11405905676
11405913916
11405922460
11405930822
11405935644
11405944555
11405952123
11405960058
11405966528
11405974279
11405984228
11405992529
11405999609
11406008703
11406015905
11406024938
11406031469
11406041540
11406047582
11406059057
11406068639
11406075536
11406084691
11406091344
11406099096
11406106237
11406113317
11406125097
11406133458
11406139989
11406148229
11406156041
11406161412
11406169164
11406177404
11406184911
11406192052
11406197850
11406204808
11406213475
11406217931
11406227025
11406233617
11406241979
11406248998
11406255895
11406262242
11406270238
11406276769
11406283055
11406292088
11406300511
11406306371
11406314305
11406319920
11406328404
11406336705
11406342564
11406350133
11406358433
11406364110
11406372594
11406378697
11406385289
11406394627
11406403599
11406409764
11406414036
11406427342
11406431431
11406441746
11406448948
11406456822
11406462925
11406471043
11406479344
11406488804
11406495030
11406502964
11406511387
11406523350
11406532505
11406539463
11406547886
11406555515
11406563938
11406570774
11406579075
11406586338
11406593723
11406603001
11406609165
11406618015
11406625217
11406632236
11406640903
11406647373
11406657017
11406663364
11406670322
11406678745
11406687534
11406696079
11406704807
11406710972
11406717075
11406727024
11406735691
11406741977
11406750888
11406759189
11406765415
11406772739
11406779453
11406787509
11406793857
11406802524
11406811985
11406823398
11406830112
11406840305
11406845493
11406854526
11406861972
11406871982
11406879978
11406887729
11406894443
11406904147
11406911227
11406920688
11406925449
11406934909
11406941440
11406950595
11406957065
11406964023
11406969882
11406978122
11406986545
11406992465
11407000277
11407008883
11407017184
11407023227
11407027987
11407036715
11407042147
11407050021
11407055331
11407065158
11407071505
11407081271
11407087069
11407094699
11407103488
11407110629
11407120272
11407128634
11407132846
11407142977
11407149752
11407156527
11407163119
11407170382
11407175997
11407184725
11407192965
11407200228
11407205965
11407213839
11407219576
11407227511
11407235201
11407241549
11407248995
11407257357
11407263033
11407269259
11407277865
11407286104
11407292330
11407299837
11407307223
11407314425
11407324068
11407331270
11407339205
11407345491
11407354219
11407360506
11407369112
11407377291
11407384432
11407392794
11407399446
11407407686
11407412569
11407421480
11407428682
11407437227
11407443514
11407454195
11407461336
11407468660
11407475130
11407483064
11407491609
11407499422
11407507845
11407514742
11407523042
11407528413
11407537813
11407544954
11407552156
11407559175
11407570527
11407574678
11407585847
11407593660
11407601411
11407608125
11407617280
11407626985
11407637605
11407645112
11407654268
11407661592
11407670869
11407677888
11407686372
11407695649
11407705659
11407713655
11407720490
11407727326
11407735261
11407740937
11407750520
11407757295
11407764619
11407770234
11407778962
11407784943
11407793488
11407799409
11407807954
11407815522
11407822846
11407833039
11407839875
11407847993
11407855256
11407862946
11407870148
11407875947
11407885895
11407893464
11407900239
11407907868
11407914765
11407921113
11407928864
11407935700
11407943390
11407949860
11407956330
11407964569
11407971100
11407978852
11407984467
11407992951
11407999054
11408010590
11408016876
11408023895
11408029877
11408038971
11408044525
11408052094
11408057770
11408067291
11408073151
11408082062
11408087433
11408095490
11408100922
11408107147
11408114288
11408123871
11408130157
11408138031
11408145843
11408152008
11408159759
11408165436
11408173981
11408179840
11408188507
11408196441
11408202423
11408208709
11408216522
11408222320
11408230316
11408239044
11408246612
11408252594
11408260589
11408266510
11408274749
11408280487
11408289093
11408294952
11408301849
11408310699
11408317230
11408326446
11408334136
11408342864
11408350799
11408357025
11408368133
11408375335
11408385467
11408393218
11408401031
11408407867
11408416534
11408425201
11408435760
11408440520
11408450042
11408457061
11408465362
11408472381
11408481841
11408485747
11408496062
11408502166
11408510161
11408518218
11408527007
11408534331
11408541411
11408545317
11408558257
11408562712
11408573210
11408577605
11408585845
11408592131
11408601287
11408607878
11408615935
11408622222
11408629973
11408635893
11408644438
11408650054
11408659087
11408664824
11408673369
11408679167
11408686491
11408694121
11408704863
11408712920
11408719511
11408727141
11408733305
11408740874
11408748442
11408754118
11408761992
11408770476
11408776457
11408785856
11408791350
11408800444
11408808867
11408816130
11408824064
11408831327
11408838285
11408845976
11408852507
11408862638
11408868864
11408877897
11408886259
11408893278
11408901640
11408909513
11408915861
11408920805
11408932524
11408937345
11408946317
11408953886
11408962003
11408968351
11408978361
11408984708
11408996305
11409002653
11409011015
11409020109
11409028043
11409034391
11409042997
11409049283
11409059537
11409065885
11409074308
11409080778
11409088895
11409096280
11409104581
11409111722
11409118802
11409128324
11409135526
11409142606
11409149076
11409158719
11409167997
11409174588
11409183133
11409193021
11409199796
11409209561
11409218534
11409224454
11409234586
11409242398
11409249234
11409254605
11409267911
11409276395
11409283597
11409292691
11409299100
11409308560
11409314847
11409322537
11409330228
11409338589
11409346829
11409352627
11409361233
11409368497
11409374356
11409384854
11409390713
11409395108
11409405179
11409412930
11409420498
11409425015
11409434536
11409442898
11409449551
11409455838
11409464749
11409471218
11409477749
11409483670
11409491482
11409499722
11409507656
11409513516
11409521450
11409527126
11409535488
11409543850
11409550381
11409558682
11409567226
11409575527
11409582180
11409590359
11409595486
11409604763
11409612026
11409619228
11409630459
11409637844
11409645412
11409652737
11409659756
11409666836
11409675930
11409682216
11409690456
11409698086
11409706325
11409714138
11409720424
11409727565
11409736904
11409738979
11409749965
11409757228
11409765285
11409771511
11409780849
11409787197
11409797145
11409803615
11409812831
11409818508
11409827358
11409835597
11409842128
11409850612
11409856960
11409864284
11409871486
11409880214
11409887416
11409895900
11409902126
11409912624
11409919826
11409926845
11409933314
11409942409
11409950770
11409961268
11409967860
11409976161
11409982875
11409993068
11409999843
11410007960
11410016871
11410025966
11410034266
11410042933
11410049098
11410057154
11410065150
11410071192
11410079188
11410088832
11410094569
11410103907
11410109767
11410117457
11410125208
11410131434
11410139247
11410145899
11410153346
11410161524
11410169093
11410176539
11410182215
11410190943
11410196803
11410204371
11410211878
11410216212
11410225672
11410229456
11410239710
11410246180
11410253809
11410259730
11410269739
11410276087
11410283594
11410290003
11410298914
11410305323
11410313074
11410321436
11410329798
11410338160
11410344324
11410352625
11410357508
11410367395
11410374903
11410382349
11410389490
11410397730
11410404077
11410412256
11410420740
11410429102
11410435449
11410442957
11410451318
11410459985
11410471887
11410479272
11410487695
11410496179
11410502405
11410509546
11410518945
11410525781
11410532983
11410540063
11410548364
11410557458
11410564721
11410571863
11410579919
11410585901
11410596216
11410602441
11410610559
11410619043
11410625573
11410634057
11410642480
11410648584
11410653833
11410664880
11410669763
11410680627
11410685815
11410696130
11410701196
11410711999
11410718774
11410728051
11410734460
11410743310
11410750329
11410758569
11410767602
11410775658
11410783410
11410791833
11410799401
11410807275
11410814172
11410824303
11410831261
11410839806
11410846825
11410852196
11410866601
11410874718
11410883812
11410891930
11410898217
11410906823
11410913048
11410921898
11410930138
11410936730
11410944237
11410951378
11410961083
11410969384
11410976830
11410981041
11410992699
11410996483
11411008141
11411014672
11411021263
11411029503
11411036339
11411045067
11411054222
11411061546
11411068382
11411074791
11411083519
11411090050
11411097984
11411104332
11411111473
11411117515
11411125389
11411133079
11411141136
11411146934
11411154075
11411161827
11411169151
11411176719
11411183189
11411190819
11411196068
11411204612
11411215782
11411223411
11411231041
11411238731
11411245201
11411253013
11411258995
11411267906
11411273948
11411283103
11411291526
11411300071
11411306480
11411314170
11411321128
11411330894
11411335105
11411345603
11411351829
11411360313
11411366721
11411376060
11411382652
11411392783
11411399131
11411405357
11411414268
11411419150
11411430137
11411435508
11411445518
11411450278
11411458152
11411463828
11411472129
11411481101
11411489219
11411495688
11411503928
11411509726
11411517844
11411523825
11411531882
11411539328
11411548423
11411556967
11411563864
11411570273
11411579428
11411585288
11411593283
11411598715
11411607443
11411616538
11411623618
11411630026
11411638266
11411644980
11411649558
11411659628
11411666892
11411674216
11411678793
11411687338
11411694174
11411702048
11411706137
11411715170
11411722006
11411730795
11411735617
11411745138
11411749838
11411759176
11411765585
11411773398
11411781637
11411788900
11411794638
11411802389
11411808004
11411815817
11411819906
11411828634
11411835470
11411843588
11411848104
11411857565
11411864950
11411871786
11411878256
11411886068
11411892111
11411900411
11411906881
11411915365
11411921163
11411930441
11411938192
11411944601
11411952169
11411959860
11411967794
11411976278
11411984945
11411993124
11411999715
11412009847
11412017354
11412027547
11412036275
11412043294
11412051046
11412056600
11412065755
11412072469
11412079183
11412086995
11412094137
11412102437
11412109151
11412115743
11412123494
11412129354
11412138265
11412144063
11412154134
11412160115
11412167745
11412175557
11412182515
11412188314
11412195210
11412203816
11412209798
11412219380
11412226338
11412232991
11412240865
11412247456
11412254109
11412260579
11412269124
11412277425
11412284077
11412290669
11412298360
11412305989
11412314351
11412320882
11412329121
11412337483
11412345967
11412353474
11412361653
11412368306
11412376851
11412384236
11412391072
11412400837
11412409016
11412416096
11412423481
11412430684
11412437947
11412443318
11412450337
11412456684
11412467121
11412475483
11412481892
11412491902
11412498127
11412507160
11412512715
11412522663
11412529133
11412537678
11412543476
11412551899
11412560078
11412567341
11412575703
11412585285
11412591022
11412599201
11412605549
11412613789
11412622517
11412629658
11412636310
11412645038
11412653156
11412660419
11412668781
11412675739
11412684284
11412692280
11412698627
11412708698
11412715473
11412725849
11412731952
11412741596
11412748004
11412756671
11412762958
11412771564
11412779743
11412788043
11412794269
11412801105
11412810321
11412816913
11412826373
11412832843
11412840289
11412847064
11412856281
11412863361
11412870807
11412877093
11412887042
11412893390
11412901507
11412909930
11412915546
11412925006
11412932879
11412941302
11412946246
11412955646
11412963763
11412971148
11412979144
11412986407
11412993548
11413001422
11413007892
11413016925
11413026141
11413033892
11413040057
11413048663
11413057086
11413063433
11413071734
11413079852
11413086260
11413093585
11413105059
11413114886
11413121661
11413131121
11413140154
11413142962
11413155230
11413160540
11413171282
11413179034
11413186724
11413193255
11413202471
11413209612
11413218340
11413225237
11413233050
11413238787
11413247027
11413252825
11413260943
11413268511
11413275347
11413283220
11413289202
11413296770
11413304277
11413311907
11413318377
11413326067
11413331926
11413340349
11413344866
11413354387
11413360735
11413369402
11413376787
11413382524
11413388994
11413397539
11413403887
11413412554
11413418962
11413426042
11413431902
11413441606
11413447466
11413454973
11413461748
11413472856
11413479326
11413486284
11413494829
11413503313
11413509721
11413518144
11413524675
11413532304
11413539750
11413546770
11413557329
11413564470
11413571611
11413578142
11413587541
11413593828
11413603715
11413612077
11413620439
11413626908
11413635759
11413644242
11413650773
11413659013
11413667314
11413675553
11413682328
11413688737
11413696916
11413706376
11413711259
11413720719
11413727799
11413736710
11413743790
11413752091
11413758439
11413766618
11413775040
11413780106
11413789445
11413796525
11413804948
11413811234
11413820695
11413825883
11413835770
11413840226
11413851273
11413858231
11413868607
11413875748
11413883133
11413889420
11413898514
11413905472
11413916031
11413922623
11413933731
11413940384
11413949295
11413957291
11413965225
11413973282
11413980423
11413988114
11413999527
11414007095
11414014603
11414021683
11414028397
11414034256
11414044144
11414050858
11414060379
11414066666
11414073746
11414079666
11414089310
11414094986
11414102798
11414110428
11414119522
11414125992
11414133255
11414139053
11414146805
11414154495
11414162246
11414168045
11414176773
11414182571
11414191299
11414197097
11414204910
11414212661
11414217788
11414226211
11414233718
11414241409
11414245803
11414254531
11414261062
11414269607
11414276077
11414282913
11414288589
11414297439
11414303298
11414312087
11414318069
11414325942
11414333511
11414341384
11414347671
11414354995
11414364272
11414371963
11414380447
11414385329
11414394668
11414402968
11414410171
11414417434
11414424880
11414433974
11414441176
11414447707
11414456191
11414462539
11414470595
11414479018
11414487075
11414495437
11414502517
11414509841
11414518447
11414524977
11414532302
11414539626
11414549269
11414556472
11414563552
11414571730
11414577895
11414587172
11414593703
11414602675
11414609206
11414619582
11414625868
11414635390
11414641432
11414649916
11414658583
11414666762
11414673964
11414686476
11414694594
11414704298
11414711806
11414720228
11414725294
11414737074
11414746535
11414758680
11414765577
11414771803
11414779799
11414787794
11414796095
11414802015
11414810682
11414818190
11414826429
11414832106
11414840040
11414847670
11414853590
11414861524
11414867811
11414876173
11414880506
11414890333
11414897779
11414904676
11414911146
11414918287
11414923902
11414934339
11414940809
11414948682
11414955274
11414962904
11414968580
11414976636
11414984998
11414991956
11414997816
11415005750
11415013318
11415019971
11415027723
11415034192
11415042493
11415051526
11415059888
11415062635
11415074598
11415079725
11415090528
11415094617
11415104383
11415113721
11415121045
11415127454
11415136670
11415142957
11415152051
11415158521
11415165723
11415174024
11415180127
11415189588
11415194592
11415205579
11415210584
11415219800
11415227002
11415235852
11415242261
11415252271
11415258496
11415266431
11415274731
11415282971
11415289380
11415297436
11415305920
11415313611
11415322095
11415327771
11415337048
11415342602
11415352978
11415360180
11415367444
11415373730
11415382397
11415391613
11415398632
11415404858
11415413464
11415421948
11415428479
11415436962
11415445935
11415453686
11415460461
11415468945
11415475598
11415484753
11415490185
11415500622
11415509045
11415518261
11415523327
11415534313
11415539135
11415549511
11415556774
11415568432
11415575024
11415585339
11415592541
11415602550
11415610973
11415621410
11415625744
11415637401
11415644787
11415652355
11415658825
11415666759
11415675731
11415681835
11415690319
11415697826
11415706188
11415713695
11415722240
11415729259
11415737621
11415743480
11415753246
11415758251
11415768138
11415778819
11415788341
11415796642
11415805003
11415810069
11415821544
11415826427
11415835338
11415842540
11415851878
11415858836
11415867076
11415873546
11415882152
11415888682
11415898204
11415904491
11415915294
11415921214
11415929759
11415936168
11415944285
11415952769
11415958568
11415968272
11415973521
11415983104
11415990855
11415997874
11416005137
11416012339
11416021617
11416029490
11416036631
11416044566
11416050975
11416058970
11416067271
11416073924
11416082408
11416090952
11416097178
11416107493
11416115794
11416121226
11416130564
11416135569
11416146006
11416154124
11416161448
11416169199
11416176829
11416183787
11416192515
11416198191
11416206431
11416212351
11416220713
11416226511
11416231577
11416242930
11416251536
11416259958
11416269236
11416275522
11416285349
11416291819
11416302988
11416309397
11416319834
11416324594
11416336313
11416343759
11416352610
11416359934
11416370493
11416377451
11416385507
11416392038
11416403635
11416411386
11416418771
11416425790
11416437814
11416444955
11416452829
11416459299
11416467233
11416475412
11416482248
11416490610
11416498727
11416506845
11416515451
11416521921
11416526803
11416537607
11416542917
11416553720
11416557870
11416568429
11416574594
11416584726
11416591012
11416600106
11416606393
11416614572
11416620919
11416630136
11416638497
11416645455
11416651864
11416659555
11416667001
11416673898
11416682321
11416688851
11416698190
11416707284
11416713265
11416721871
11416730050
11416736214
11416744881
11416751351
11416760018
11416769479
11416776681
11416784127
11416789071
11416799752
11416803963
11416813668
11416819893
11416830391
11416836495
11416844735
11416853035
11416859139
11416867440
11416873177
11416882515
11416890877
11416899178
11416907112
11416913460
11416920601
11416930062
11416937203
11416944527
11416953865
11416961251
11416967537
11416975777
11416984200
11416992195
11416998543
11417007332
11417013741
11417022408
11417028816
11417035774
11417045174
11417052864
11417060371
11417067329
11417074898
11417083931
11417091926
11417098152
11417106880
11417113167
11417121834
11417130684
11417137642
11417146614
11417153145
11417165229
11417173774
11417180793
11417189277
11417198188
11417205391
11417214729
11417219734
11417232490
11417240425
11417247383
11417256599
11417263435
11417270637
11417279975
11417284980
11417294685
11417301826
11417309333
11417318305
11417325202
11417331672
11417341193
11417347480
11417356452
11417364631
11417372138
11417380500
11417388557
11417394965
11417403510
11417409797
11417418036
11417425178
11417432319
11417440070
11417449225
11417455390
11417463813
11417470771
11417479010
11417487006
11417493415
11417502143
11417510443
11417516059
11417525580
11417530707
11417541022
11417548346
11417555670
11417564826
11417572150
11417578497
11417586676
11417594977
11417601752
11417609992
11417617194
11417625555
11417633856
11417640082
11417645209
11417656195
11417663153
11417670538
11417679877
11417687323
11417694281
11417703009
11417709479
11417718512
11417724798
11417732245
11417740729
11417747137
11417756659
11417762640
11417772039
11417776983
11417787054
11417794195
11417801641
11417807989
11417817633
11417823797
11417832830
11417839239
11417847296
11417855779
11417864630
11417875738
11417885687
11417894170
11417900396
11417908575
11417916387
11417925298
11417932439
11417940130
11417948858
11417957159
11417961980
11417972478
11417978460
11417988775
11417994817
11418002386
11418010808
11418021612
11418027837
11418036992
11418043340
11418051702
11418059636
11418066350
11418075139
11418084661
11418090825
11418098333
11418106084
11418111943
11418119634
11418124333
11418133977
11418142339
11418149602
11418156560
11418165349
11418171880
11418178472
11418184270
11418192693
11418201787
11418210881
11418218022
11418226140
11418232976
11418240788
11418247441
11418256718
11418260747
11418270817
11418277287
11418286809
11418293950
11418300603
11418306950
11418315007
11418320988
11418333500
11418340519
11418347233
11418353276
11418360661
11418368535
11418376408
11418382145
11418390873
11418398991
11418405339
11418412907
11418418827
11418426640
11418431278
11418440373
11418448307
11418456120
11418463017
11418472416
11418479008
11418485661
11418491459
11418499455
11418508427
11418516361
11418522648
11418530643
11418538578
11418544498
11418552250
11418558170
11418565983
11418572575
11418581486
11418587223
11418593876
11418600590
11418609257
11418615665
11418622440
11418628483
11418637760
11418646793
11418652775
11418658939
11418666996
11418674808
11418680851
11418688419
11418695682
11418704776
11418711917
11418719608
11418725650
11418733768
11418742862
11418749027
11418757083
11418766849
11418772464
11418782474
11418786685
11418797855
11418804752
11418811343
11418817996
11418829532
11418836978
11418844424
11418853274
11418859683
11418868411
11418876407
11418882632
11418891727
11418898379
11418907351
11418914309
11418924441
11418932254
11418938662
11418947390
11418958133
11418965762
11418972232
11418982852
11418989810
11418998294
11419004641
11419013430
11419022464
11419030642
11419037722
11419045962
11419052798
11419060671
11419067813
11419074832
11419080569
11419092227
11419097537
11419107424
11419112307
11419123232
11419131899
11419140383
11419148379
11419156557
11419165530
11419171938
11419180117
11419187197
11419198305
11419205385
11419213625
11419220827
11419229616
11419236269
11419246584
11419253969
11419261538
11419268496
11419276125
11419284426
11419293154
11419299257
11419307741
11419314760
11419322756
11419330812
11419338930
11419347597
11419353395
11419362856
11419370119
11419379213
11419385927
11419394655
11419399904
11419409792
11419417970
11419425661
11419433717
11419440065
11419448427
11419456911
11419464174
11419470827
11419480165
11419484987
11419498048
11419506959
11419512147
11419524354
11419532228
11419540529
11419546144
11419558839
11419566224
11419576539
11419585511
11419594728
11419601564
11419610780
11419616639
11419628175
11419635011
11419643434
11419650025
11419660279
11419665406
11419675416
11419683289
11419692567
11419701112
11419709412
11419715516
11419724732
11419729737
11419740418
11419745423
11419757874
11419762635
11419771668
11419775696
11419785950
11419792359
11419798157
11419805909
11419813904
11419822388
11419829651
11419835572
11419843934
11419849732
11419856995
11419864747
11419869568
11419881226
11419887513
11419895935
11419900330
11419908142
11419916504
11419923218
11419929077
11419938843
11419945252
11419953491
11419959168
11419966309
11419973999
11419979797
11419987488
11419992310
11420002380
11420011231
11420019043
11420026367
11420032166
11420039124
11420045959
11420052612
11420062805
11420067749
11420075928
11420081665
11420089599
11420097900
11420104370
11420111999
11420120117
11420126648
11420134765
11420140564
11420148742
11420154541
11420162292
11420168579
11420172424
11420184814
11420193298
11420199157
11420205505
11420213012
11420218933
11420228210
11420233886
11420244689
11420250854
11420259582
11420265441
11420273315
11420284179
11420292846
11420302428
11420310546
11420319396
11420327087
11420336730
11420343383
11420353515
11420358153
11420372741
11420381652
11420390136
11420398803
11420405944
11420414611
11420423034
11420432006
11420438231
11420445495
11420454650
11420460326
11420469481
11420477904
11420484069
11420492919
11420500548
11420508727
11420516051
11420523009
11420530944
11420537169
11420545592
11420553893
11420561583
11420567931
11420575255
11420582884
11420590880
11420596861
11420604186
11420612059
11420618040
11420627074
11420632140
11420641295
11420648314
11420655333
11420661681
11420670531
11420677366
11420685850
11420692686
11420699522
11420705259
11420713560
11420719298
11420726133
11420734984
11420743895
11420752073
11420758543
11420766172
11420772825
11420778746
11420785643
11420794249
11420798277
11420809751
11420817930
11420824644
11420831236
11420839536
11420845274
11420853636
11420859556
11420870847
11420877134
11420884275
11420891843
11420898191
11420905759
11420913755
11420919614
11420927793
11420935789
11420944212
11420958250
11420966733
11420974363
11420979917
11420987668
11420993955
11421002988
11421011472
11421019529
11421026914
11421032651
11421039914
11421047544
11421052366
11421061460
11421068967
11421078550
11421087461
11421096494
11421105771
11421113217
11421123654
11421132443
11421141049
11421150693
11421157773
11421170041
11421178464
11421185971
11421193356
11421200436
11421207272
11421216245
11421223080
11421233212
11421237241
11421250607
11421255490
11421265378
11421272458
11421279843
11421287594
11421294674
11421301388
11421311032
11421317624
11421327206
11421333371
11421342709
11421349057
11421358273
11421364560
11421372006
11421380368
11421387387
11421395871
11421401242
11421410824
11421418881
11421425289
11421432492
11421443966
11421448178
11421458981
11421465267
11421474056
11421480343
11421489010
11421495358
11421503964
11421512264
11421517208
11421526546
11421534237
11421541378
11421548397
11421556759
11421563045
11421572140
11421578426
11421587154
11421595455
11421602962
11421611507
11421618587
11421624813
11421633297
11421641781
11421646969
11421656673
11421664486
11421671810
11421678279
11421687130
11421693477
11421702754
11421711055
11421718379
11421724849
11421733272
11421741695
11421747188
11421756709
11421761653
11421773067
11421777156
11421787288
11421793880
11421803279
11421809566
11421819087
11421825557
11421833003
11421841487
11421848445
11421856929
11421862056
11421871455
11421880061
11421887996
11421895808
11421908565
11421913814
11421923457
11421928767
11421939570
11421944026
11421955500
11421963191
11421970698
11421980037
11421986384
11421996211
11422003657
11422012629
11422019221
11422027827
11422036128
11422044367
11422049494
11422058772
11422065974
11422073237
11422079646
11422087885
11422096430
11422105341
11422111750
11422120295
11422128901
11422136957
11422143488
11422151484
11422160029
11422166254
11422175593
11422181025
11422190424
11422198176
11422205622
11422212885
11422221430
11422227717
11422236506
11422245478
11422251886
11422260187
11422267206
11422275568
11422282221
11422290583
11422298883
11422305170
11422312067
11422321405
11422328546
11422335748
11422342279
11422350336
11422359491
11422367304
11422373712
11422382379
11422390680
11422398187
11422405023
11422409662
11422416071
11422420221
11422427667
11422433710
11422439264
11422446222
11422451593
11422455316
11422465814
11422469232
11422478692
11422482416
11422488824
11422493951
11422500055
11422505426
11422511529
11422516412
11422520929
11422526361
11422532098
11422537896
11422543512
11422545465
11422553277
11422556939
11422564691
11422570916
11422575311
11422580499
11422586419
11422592157
11422596734
11422603204
11422609368
11422617486
11422623956
11422631036
11422635369
11422641229
11422646722
11422650811
11422661065
11422667291
11422671929
11422676995
11422683526
11422688897
11422694207
11422701775
11422706841
11422712395
11422717644
11422722222
11422727410
11422729302
11422737298
11422740655
11422747857
11422752862
11422758050
11422761101
11422767876
11422770501
11422776726
11422780755
11422788750
11422793877
11422800042
11422805901
11422810479
11422815911
11422821587
11422825127
11422831475
11422836785
11422841912
11422844902
11422852654
11422857659
11422861687
11422866387
11422873345
11422879021
11422883538
11422888237
11422894219
11422898796
11422903313
11422907280
11422914543
11422917473
11422924736
11422929558
11422935356
11422939751
11422945671
11422949883
11422957817
11422962517
11422968193
11422972893
11422978813
11422984367
11422986321
11422994743
11422998405
11423006218
11423012077
11423016838
11423023308
11423027946
11423030754
11423038139
11423042473
11423049675
11423054314
11423060539
11423064995
11423070732
11423076530
11423085624
11423095390
11423101860
11423107414
11423113579
11423118461
11423123466
11423129265
11423134941
11423139213
11423146110
11423150383
11423156303
11423162345
11423166557
11423173332
11423176933
11423185661
11423189262
11423199638
11423204460
11423211967
11423219169
11423225639
11423231193
11423237235
11423243461
11423249626
11423255485
11423261344
11423266837
11423272697
11423277824
11423282157
11423288810
11423292716
11423299186
11423303580
11423309684
11423315971
11423320975
11423325187
11423331473
11423337333
11423341727
11423346122
11423351920
11423356071
11423362601
11423367484
11423376090
11423380973
11423386039
11423391410
11423396171
11423402274
11423407950
11423412528
11423421195
11423426505
11423431815
11423435904
11423442679
11423447074
11423454459
11423458731
11423466544
11423471244
11423477286
11423484183
11423489493
11423493949
11423499564
11423504080
11423512015
11423518302
11423523978
11423528494
11423535025
11423539176
11423545279
11423549796
11423553458
11423561087
11423567374
11423572928
11423577017
11423582022
11423586966
11423593192
11423598746
11423604239
11423609183
11423615286
11423619925
11423626578
11423632803
11423636893
11423644156
11423646475
11423655997
11423662955
11423666861
11423670218
11423678091
11423681448
11423688833
11423691946
11423701651
11423706717
11423711783
11423717093
11423722036
11423726309
11423732351
11423738760
11423745779
11423751638
11423759634
11423762869
11423768789
11423773855
11423780203
11423784902
11423794485
11423799429
11423806875
11423812429
11423819082
11423823355
11423830557
11423835134
11423844961
11423850576
11423856741
11423860037
11423867300
11423871084
11423877371
11423881521
11423888357
11423894460
11423898611
11423904287
11423908743
11423914541
11423920461
11423924673
11423928518
11423937307
11423940847
11423948720
11423952199
11423958791
11423964467
11423969472
11423974477
11423979970
11423984609
11423990529
11423996145
11424000844
11424006460
11424011098
11424016774
11424023610
11424029531
11424034291
11424040090
11424042043
11424050100
11424054555
11424059682
11424064687
11424070790
11424075368
11424080983
11424085500
11424091603
11424097707
11424102895
11424107350
11424114553
11424120168
11424125539
11424129811
11424133046
11424140798
11424144399
11424151051
11424157338
11424163625
11424171010
11424177480
11424183339
11424193044
11424199147
11424206593
11424212697
11424217885
11424222523
11424227406
11424234242
11424239918
11424244862
11424251088
11424256093
11424261830
11424266591
11424273121
11424278309
11424283681
11424289845
11424295460
11424300404
11424306080
11424311574
11424317250
11424322560
11424327931
11424334584
11424341175
11424345570
11424350148
11424355885
11424359974
11424365895
11424372364
11424377735
11424381459
11424388417
11424394886
11424399525
11424403431
11424408924
11424413624
11424420155
11424422291
11424428578
11424432362
11424437122
11424441456
11424445362
11424447682
11424455311
11424457874
11424465443
11424468006
11424475147
11424479725
11424485035
11424488880
11424495777
11424501575
11424505604
11424510731
11424516224
11424520252
11424525379
11424530567
11424537769
11424543934
11424548389
11424554249
11424560901
11424565845
11424573597
11424578357
11424585560
11424590259
11424595630
11424601246
11424606617
11424611011
11424616077
11424621143
11424624866
11424634082
11424639515
11424645801
11424649524
11424655994
11424659046
11424666553
11424671558
11424677051
11424682117
11424689319
11424694019
11424700550
11424705371
11424711170
11424716663
11424720813
11424730396
11424735584
11424741077
11424746387
11424753101
11424758289
11424764331
11424769214
11424776660
11424781604
11424787341
11424794482
11424800159
11424804919
11424811389
11424816455
11424821521
11424828967
11424834216
11424840808
11424845935
11424851916
11424856372
11424862231
11424866382
11424874560
11424879321
11424885974
11424894580
11424901050
11424906054
11424912829
11424918811
11424925769
11424930285
11424938159
11424943347
11424949572
11424954760
11424964160
11424967517
11424976367
11424982287
11424988146
11424992175
11424999438
11425004992
11425010119
11425015124
11425022814
11425028185
11425033129
11425037707
11425044299
11425049304
11425054186
11425058520
11425066088
11425070666
11425076830
11425081286
11425088305
11425092638
11425097460
11425103442
11425113207
11425119250
11425125414
11425129809
11425136584
11425141039
11425145495
11425152025
11425156603
11425164171
11425170336
11425175951
11425180285
11425186632
11425190172
11425196886
11425202135
11425208666
11425212572
11425222887
11425229906
11425235277
11425239794
11425245531
11425252001
11425259630
11425264330
11425270250
11425275072
11425280931
11425285387
11425291246
11425295580
11425299364
11425308519
11425315599
11425320421
11425324327
11425332994
11425337084
11425348436
11425354906
11425360887
11425366258
11425370470
11425375780
11425381334
11425388292
11425392931
11425396349
11425405138
11425410265
11425416856
11425420763
11425427843
11425432542
11425438158
11425442613
11425450059
11425455797
11425460618
11425467454
11425473863
11425478685
11425483629
11425489305
11425497728
11425503831
11425511216
11425517625
11425522569
11425527330
11425533189
11425539476
11425544664
11425550706
11425559556
11425564012
11425569932
11425575669
11425582078
11425588243
11425594102
11425600816
11425605882
11425611314
11425617478
11425623521
11425628953
11425634324
11425640183
11425645677
11425651658
11425656724
11425663072
11425669297
11425673142
11425679063
11425686875
11425693345
11425697922
11425703782
11425708115
11425713914
11425718674
11425724351
11425729294
11425736619
11425742966
11425748765
11425753220
11425758164
11425763840
11425768906
11425773789
11425780869
11425784043
11425790574
11425795029
11425801438
11425806077
11425813096
11425817917
11425824387
11425831223
11425837265
11425841782
11425847641
11425852036
11425857590
11425862656
11425867539
11425875962
11425879563
11425886704
11425892136
11425897629
11425901840
11425906967
11425912827
11425918991
11425924851
11425930283
11425936386
11425941574
11425947678
11425952499
11425958115
11425962448
11425969528
11425975204
11425980026
11425985580
11425990829
11425996017
11426001999
11426009079
11426018356
11426022140
11426029770
11426034836
11426040512
11426046615
11426051925
11426058212
11426060409
11426070114
11426076950
11426081955
11426088730
11426094650
11426099777
11426106064
11426110946
11426119796
11426125412
11426136337
11426139633
11426148361
11426153305
11426159530
11426163986
11426173568
11426181076
11426200485
11426211288
11426218734
11426226791
11426234786
11426244186
11426251632
11426259689
11426265304
11426270797
11426274825
11426279586
11426284042
11426289474
11426293868
11426298385
11426303695
11426308578
11426313216
11426317977
11426323287
11426328170
11426333663
11426338119
11426342391
11426347152
11426351668
11426356551
11426362777
11426368392
11426373031
11426376815
11426382613
11426387740
11426391829
11426397262
11426403182
11426407454
11426413375
11426417891
11426423873
11426428145
11426433577
11426437484
11426445052
11426449752
11426455672
11426461287
11426467147
11426471602
11426477278
11426483504
11426490462
11426496077
11426500228
11426505721
11426512007
11426517806
11426522444
11426527876
11426533614
11426540755
11426546248
11426550398
11426556624
11426559920
11426567000
11426570357
11426579939
11426585860
11426590010
11426595808
11426599470
11426605086
11426609358
11426616133
11426623884
11426629011
11426633528
11426641096
11426646345
11426652876
11426659712
11426669111
11426677351
11426681563
11426688582
11426693403
11426699629
11426705183
11426708052
11426718306
11426724104
11426730085
11426735823
11426740705
11426746870
11426751936
11426757551
11426764936
11426768232
11426774458
11426779768
11426784834
11426788069
11426794477
11426800093
11426805158
11426811018
11426816084
11426820844
11426827375
11426830244
11426837019
11426841169
11426848676
11426853559
11426859602
11426865522
11426870710
11426876264
11426881513
11426885725
11426893354
11426899335
11426904768
11426909162
11426915021
11426919904
11426925703
11426930768
11426936017
11426942243
11426946515
11426953535
11426957990
11426963971
11426968122
11426974958
11426980817
11426988080
11426993146
11426998822
11427005231
11427010175
11427016462
11427020368
11427027448
11427030622
11427038984
11427044294
11427049604
11427054547
11427061750
11427066205
11427070966
11427076764
11427084271
11427088788
11427095075
11427100629
11427104230
11427110944
11427115949
11427120587
11427126019
11427132916
11427139020
11427143231
11427148053
11427154462
11427159345
11427165082
11427169476
11427176862
11427181622
11427187970
11427192792
11427199383
11427205182
11427209576
11427215375
11427221661
11427227521
11427233380
11427239178
11427245526
11427249920
11427255597
11427263409
11427267743
11427277142
11427281476
11427288861
11427291913
11427299481
11427304181
11427313092
11427317852
11427323956
11427330548
11427337689
11427345867
11427351727
11427356854
11427361431
11427365948
11427374066
11427377972
11427385418
11427390545
11427395550
11427400616
11427406170
11427410504
11427417584
11427424297
11427428204
11427433880
11427438580
11427444439
11427449627
11427454022
11427457562
11427465435
11427471600
11427477398
11427480755
11427487408
11427492962
11427498089
11427502239
11427510967
11427515911
11427521770
11427526043
11427531597
11427537273
11427541607
11427547222
11427552654
11427559490
11427565777
11427570354
11427576885
11427582561
11427588176
11427592449
11427597576
11427604046
11427608745
11427616069
11427622112
11427627910
11427631023
11427639629
11427646221
11427652080
11427657329
11427663494
11427667217
11427674785
11427677837
11427685405
11427690593
11427696941
11427700115
11427708110
11427713237
11427719402
11427724223
11427729289
11427733928
11427740825
11427747844
11427753215
11427757854
11427764201
11427770732
11427775005
11427781840
11427785930
11427793803
11427800761
11427805644
11427811504
11427818828
11427822917
11427831218
11427837382
11427848125
11427853374
11427860698
11427865458
11427871074
11427877299
11427883342
11427889750
11427897258
11427902812
11427910136
11427914775
11427921305
11427927653
11427934245
11427940593
11427945964
11427948954
11427955851
11427960124
11427967326
11427971659
11427976847
11427978739
11427988261
11427993571
11427998881
11428003275
11428008647
11428013163
11428019084
11428023844
11428030924
11428035990
11428041666
11428047160
11428052103
11428057902
11428062907
11428067973
11428074625
11428079569
11428084513
11428089030
11428095621
11428100077
11428104777
11428110575
11428115702
11428122416
11428127726
11428132059
11428135599
11428142740
11428147501
11428152506
11428156962
11428165201
11428170572
11428175455
11428179728
11428185831
11428192179
11428198160
11428202433
11428206766
11428213175
11428219339
11428225077
11428230692
11428237406
11428242838
11428249552
11428256449
11428263651
11428266275
11428275247
11428278849
11428287271
11428290750
11428297403
11428303690
11428309976
11428315897
11428322550
11428327188
11428332315
11428338480
11428343973
11428348550
11428355203
11428361551
11428367044
11428373270
11428378336
11428383768
11428389200
11428395364
11428400064
11428407083
11428412576
11428418802
11428424112
11428432107
11428437173
11428444253
11428448526
11428452066
11428461221
11428469766
11428474771
11428480508
11428486612
11428491494
11428497903
11428503335
11428510354
11428517434
11428523111
11428528299
11428532632
11428537698
11428543985
11428548623
11428555276
11428561074
11428565347
11428571755
11428576089
11428581216
11428586160
11428593423
11428598916
11428605020
11428610146
11428615334
11428622537
11428625771
11428632852
11428635659
11428644143
11428647378
11428654641
11428657937
11428665749
11428668984
11428676064
11428679055
11428688699
11428692666
11428700173
11428703286
11428710549
11428715432
11428722207
11428726967
11428734353
11428740761
11428745766
11428751992
11428757302
11428763650
11428769448
11428774880
11428780983
11428786843
11428792824
11428798562
11428803811
11428810463
11428814980
11428821450
11428826210
11428831581
11428838845
11428844460
11428850319
11428854836
11428861794
11428867165
11428873451
11428878212
11428885536
11428890541
11428898049
11428906960
11428913551
11428919838
11428921913
11428930824
11428934731
11428942787
11428946327
11428953957
11428959877
11428967140
11428972511
11428977211
11428983376
11428989723
11429000282
11429006630
11429011207
11429017311
11429022011
11429026527
11429033790
11429039161
11429048378
11429055580
11429062355
11429069069
11429075905
11429079628
11429089821
11429093177
11429102150
11429107399
11429112831
11429120033
11429126686
11429132484
11429136879
11429142738
11429148292
11429153419
11429158729
11429164710
11429170143
11429175147
11429179054
11429185462
11429189613
11429195655
11429201759
11429206947
11429211219
11429219032
11429221839
11429230506
11429233863
11429240821
11429244544
11429251930
11429255409
11429263099
11429266456
11429273597
11429276771
11429284034
11429288367
11429294715
11429301002
11429305640
11429309913
11429317725
11429323890
11429329810
11429336158
11429342322
11429347571
11429354163
11429359717
11429366858
11429371253
11429377967
11429382972
11429390540
11429395118
11429402259
11429406897
11429415076
11429419654
11429424536
11429430945
11429436377
11429442664
11429447547
11429453772
11429457740
11429467078
11429472327
11429477881
11429480933
11429487647
11429492713
11429503882
11429508521
11429513587
11429520789
11429526160
11429533606
11429535254
11429545203
11429549109
11429556128
11429561377
11429568518
11429573584
11429579932
11429586279
11429591955
11429596716
11429600256
11429608984
11429612646
11429621496
11429626013
11429633276
11429636755
11429644995
11429648657
11429656347
11429661596
11429669531
11429677404
11429682959
11429687597
11429694494
11429699865
11429704931
11429710913
11429716955
11429724035
11429730993
11429737036
11429741735
11429747473
11429751867
11429757482
11429762060
11429767431
11429773107
11429779699
11429783117
11429789648
11429794653
11429799230
11429805334
11429812963
11429817541
11429823217
11429827978
11429833715
11429839513
11429841467
11429849950
11429855627
11429861791
11429867040
11429871618
11429877111
11429882177
11429887060
11429893468
11429898046
11429906164
11429911596
