11166839637
11166844459
11166849464
11166855507
11166860572
11166865516
11166871498
11166877479
11166882728
11166888710
11166894264
11166899024
11166904396
11166910682
11166916358
11166921119
11166926673
11166931312
11166936622
11166942970
11166947242
11166952735
11166957862
11166963538
11166969825
11166974220
11166980018
11166985877
11166991554
11166996864
11167002723
11167009620
11167015968
11167020606
11167026832
11167032386
11167038245
11167044349
11167050330
11167056006
11167061561
11167067237
11167074134
11167079261
11167082618
11167087867
11167093116
11167098243
11167102698
11167107032
11167111548
11167116980
11167121131
11167126136
11167130652
11167134314
11167140357
11167144934
11167148963
11167153052
11167157630
11167162574
11167168006
11167173133
11167177710
11167183203
11167187964
11167192908
11167198828
11167203833
11167209143
11167216406
11167222449
11167227088
11167234107
11167239905
11167245764
11167252539
11167258338
11167263587
11167271033
11167276221
11167283606
11167289404
11167294287
11167301428
11167306738
11167314551
11167319861
11167326392
11167332800
11167337439
11167343787
11167349158
11167355932
11167362890
11167368994
11167374243
11167378760
11167385229
11167390906
11167398230
11167404699
11167408911
11167415686
11167421606
11167426184
11167432287
11167438208
11167444860
11167450415
11167457556
11167462561
11167469458
11167476660
11167483618
11167489660
11167496191
11167501928
11167508520
11167514135
11167519628
11167526464
11167532934
11167539282
11167545873
11167552099
11167558935
11167563390
11167572790
11167579076
11167586401
11167593908
11167600256
11167607641
11167615453
11167624120
11167630224
11167635290
11167641759
11167649084
11167653844
11167661230
11167667455
11167674169
11167681615
11167687597
11167694249
11167699132
11167705785
11167712682
11167720128
11167727086
11167737401
11167744542
11167751867
11167761876
11167769262
11167776708
11167784093
11167792150
11167797277
11167805638
11167810948
11167819371
11167828038
11167833531
11167843114
11167849584
11167857213
11167863744
11167868382
11167878209
11167885045
11167890904
11167899754
11167906590
11167914342
11167919957
11167927830
11167933507
11167944859
11167951573
11167957921
11167967015
11167975316
11167982701
11167990391
11167998509
11168006138
11168011815
11168018651
11168027867
11168034947
11168041111
11168050572
11168058018
11168066319
11168073704
11168079319
11168088352
11168096226
11168104283
11168111302
11168119541
11168126866
11168134739
11168140171
11168149204
11168157322
11168163181
11168171177
11168179050
11168187168
11168194675
11168202549
11168210606
11168217686
11168224705
11168231968
11168239597
11168247959
11168256016
11168263279
11168272190
11168280430
11168291355
11168299595
11168306064
11168316440
11168326816
11168335239
11168341648
11168356357
11168364231
11168371372
11168383579
11168391635
11168402866
11168414218
11168423252
11168433627
11168443942
11168454990
11168463657
11168475070
11168484592
11168492282
11168502536
11168512363
11168524142
11168535129
11168553561
11168569308
11168581576
11168590976
11168606051
11168616427
11168624240
11168635775
11168648410
11168657931
11168669711
11168678317
11168687960
11168698519
11168707858
11168716464
11168727999
11168736666
11168750704
11168759249
11168771395
11168782137
11168793917
11168804659
11168812228
11168821993
11168835055
11168848055
11168856844
11168865938
11168876436
11168887728
11168894259
11168902437
11168914095
11168925203
11168935274
11168943575
11168955538
11168961885
11168972322
11168981111
11168992159
11169000521
11169008638
11169018953
11169030061
11169037630
11169046419
11169054781
11169063020
11169073885
11169080721
11169091158
11169103181
11169110261
11169121797
11169131074
11169138704
11169147188
11169155122
11169165071
11169176057
11169185762
11169199373
11169207551
11169218538
11169225923
11169236787
11169247773
11169256623
11169269197
11169280366
11169289460
11169299165
11169309052
11169316987
11169326081
11169337373
11169345185
11169357697
11169369416
11169376984
11169387849
11169396699
11169404816
11169415742
11169422944
11169433686
11169444245
11169456086
11169466218
11169476410
11169486359
11169495514
11169507111
11169515351
11169526398
11169537323
11169547638
11169559845
11169568756
11169578583
11169589569
11169599396
11169607331
11169618256
11169626923
11169640778
11169648712
11169660126
11169669830
11169677216
11169689239
11169703522
11169714081
11169721710
11169734894
11169745697
11169757232
11169763275
11169775299
11169785492
11169794891
11169805816
11169813202
11169821808
11169833526
11169842926
11169855316
11169867279
11169877899
11169887359
11169899810
11169910980
11169920806
11169931121
11169944793
11169953948
11169962981
11169972503
11169982574
11169993621
11170000518
11170012359
11170023650
11170035735
11170050384
11170061248
11170069671
11170075896
11170086150
11170095000
11170104339
11170114165
11170127166
11170135527
11170146514
11170155181
11170161772
11170173064
11170182341
11170192168
11170201384
11170213774
11170222624
11170231108
11170240447
11170250090
11170258940
11170268462
11170281889
11170290739
11170299284
11170309599
11170320280
11170329069
11170336149
11170346220
11170354948
11170363249
11170374663
11170385588
11170395903
11170406340
11170415434
11170426909
11170434538
11170441435
11170455107
11170465666
11170478056
11170488615
11170498808
11170508817
11170518278
11170531889
11170542265
11170555143
11170564298
11170574674
11170581205
11170588773
11170600919
11170609159
11170620634
11170628446
11170644987
11170653898
11170663480
11170674772
11170683805
11170691129
11170702359
11170710843
11170719449
11170731168
11170741178
11170749601
11170760465
11170769437
11170780545
11170791226
11170798734
11170811856
11170822537
11170831815
11170842435
11170851895
11170858731
11170871243
11170880582
11170890958
11170899869
11170908353
11170918057
11170928799
11170938443
11170945401
11170955655
11170965359
11170975369
11170984768
11170997464
11171005887
11171014004
11171028653
11171038723
11171049343
11171061245
11171070645
11171077786
11171088772
11171096829
11171105129
11171115200
11171124966
11171131069
11171144680
11171154018
11171164028
11171172024
11171182888
11171191677
11171200710
11171211208
11171218593
11171232204
11171242641
11171253322
11171262111
11171274990
11171284267
11171295681
11171306118
11171316738
11171325649
11171336940
11171345851
11171353420
11171364467
11171370876
11171381496
11171390163
11171402492
11171409938
11171420741
11171430385
11171442836
11171453029
11171464259
11171475795
11171486171
11171496974
11171507228
11171518581
11171526332
11171536891
11171543117
11171554347
11171560512
11171571071
11171579188
11171590236
11171598170
11171608668
11171620082
11171628138
11171636256
11171643763
11171656337
11171664820
11171677333
11171684962
11171697047
11171705226
11171715418
11171721766
11171732874
11171741724
11171750697
11171762415
11171770106
11171778651
11171793970
11171805323
11171815943
11171826746
11171836451
11171845972
11171855738
11171865320
11171876368
11171884485
11171893335
11171902735
11171912134
11171923792
11171933191
11171943628
11171953516
11171964319
11171973780
11171982263
11171998010
11172009119
11172020593
11172028955
11172037195
11172046472
11172054956
11172067712
11172076074
11172088098
11172096094
11172104639
11172114770
11172124963
11172132776
11172142236
11172149316
11172162866
11172174157
11172180932
11172189355
11172199975
11172208886
11172215722
11172224511
11172235437
11172245629
11172252221
11172263391
11172271325
11172282556
11172288232
11172297814
11172307336
11172315087
11172327844
11172336511
11172344872
11172353722
11172364709
11172373498
11172383202
11172389489
11172400780
11172411950
11172420800
11172431908
11172442345
11172450829
11172457238
11172468224
11172478356
11172486657
11172495995
11172506371
11172515465
11172523339
11172531700
11172542565
11172551171
11172559777
11172566796
11172581017
11172591820
11172601036
11172611595
11172619347
11172626366
11172636803
11172645958
11172657127
11172669334
11172677879
11172686546
11172697288
11172706871
11172714805
11172724327
11172733787
11172745506
11172756065
11172767112
11172775108
11172782493
11172795311
11172802696
11172811851
11172818016
11172828697
11172838096
11172847679
11172856102
11172867698
11172876548
11172885154
11172893821
11172905113
11172914756
11172921470
11172932273
11172941123
11172947837
11172959617
11172967124
11172977805
11172984641
11172997459
11173004233
11173016074
11173024924
11173034751
11173042502
11173050437
11173058066
11173068870
11173078940
11173089927
11173099509
11173106711
11173118369
11173128806
11173137168
11173145957
11173153708
11173168601
11173175254
11173185324
11173196555
11173204794
11173212729
11173222006
11173231894
11173241843
11173252890
11173260641
11173269919
11173279745
11173288229
11173295187
11173304220
11173312399
11173325278
11173335654
11173342428
11173351156
11173361715
11173370871
11173378012
11173388571
11173396139
11173408163
11173419516
11173427999
11173438070
11173445272
11173454061
11173463705
11173471945
11173479635
11173490866
11173502645
11173511495
11173521810
11173529134
11173536398
11173547384
11173556234
11173564413
11173576376
11173584493
11173594625
11173605550
11173615194
11173622457
11173631124
11173641073
11173650228
11173659505
11173670247
11173679952
11173687948
11173695821
11173706502
11173714620
11173725362
11173734944
11173745198
11173753377
11173763448
11173771627
11173781209
11173787862
11173799031
11173806905
11173816792
11173827474
11173836690
11173843098
11173853658
11173862569
11173872823
11173881917
11173893330
11173902974
11173910969
11173923237
11173933003
11173943013
11173953694
11173961018
11173969746
11173979939
11173988606
11173998982
11174007710
11174017659
11174026265
11174033284
11174042317
11174052815
11174065449
11174074604
11174083210
11174093342
11174101399
11174111591
11174121296
11174131001
11174140034
11174152729
11174161213
11174172260
11174184406
11174192585
11174200642
11174211811
11174219379
11174230915
11174240925
11174250385
11174260334
11174268146
11174277179
11174285724
11174294635
11174307941
11174317524
11174325519
11174335224
11174344867
11174354084
11174361774
11174371601
11174380268
11174388263
11174396442
11174407611
11174415607
11174425922
11174433978
11174441547
11174453204
11174461078
11174472613
11174482562
11174492755
11174500323
11174509112
11174517840
11174526507
11174534320
11174542438
11174555560
11174563373
11174571429
11174581744
11174591571
11174598529
11174608966
11174617511
11174630145
11174639056
11174648394
11174656695
11174667071
11174675067
11174685259
11174693621
11174703570
11174712298
11174722125
11174733111
11174738909
11174751177
11174759173
11174769427
11174779253
11174786700
11174800982
11174808855
11174817339
11174827044
11174836077
11174841692
11174853289
11174861162
11174868486
11174880266
11174890764
11174899004
11174909197
11174918230
11174924578
11174936113
11174942217
11174956499
11174966081
11174973162
11174983049
11174994463
11175003252
11175013567
11175021990
11175029131
11175036943
11175053362
11175062517
11175070818
11175082109
11175090166
11175102373
11175111528
11175121599
11175130449
11175142351
11175151445
11175162919
11175169328
11175178972
11175190812
11175199479
11175211137
11175222489
11175230607
11175237931
11175249040
11175256913
11175267411
11175273820
11175284562
11175294084
11175305009
11175310380
11175322038
11175330216
11175338822
11175349381
11175357255
11175370805
11175382523
11175391068
11175397294
11175407609
11175415482
11175426285
11175434098
11175441361
11175454667
11175462601
11175472367
11175482132
11175490494
11175496903
11175506852
11175515091
11175527603
11175536515
11175550614
11175559403
11175567032
11175577042
11175588272
11175597000
11175603226
11175614334
11175623734
11175633743
11175642227
11175649673
11175661392
11175669266
11175679581
11175686966
11175701126
11175711685
11175720718
11175727249
11175738785
11175747513
11175756546
11175765579
11175777542
11175786758
11175798111
11175806045
11175815933
11175824111
11175831497
11175841629
11175847854
11175859634
11175869522
11175880752
11175889541
11175895950
11175907363
11175915359
11175923660
11175934341
11175943008
11175951858
11175962173
11175971023
11175980361
11175989089
11175995864
11176006484
11176018508
11176028029
11176038405
11176048293
11176055678
11176067763
11176076064
11176084609
11176093459
11176104262
11176114211
11176123000
11176133681
11176142836
11176153029
11176160720
11176169814
11176177138
11176188857
11176202528
11176212538
11176220778
11176230483
11176240309
11176250746
11176259718
11176268751
11176278395
11176287489
11176297133
11176307265
11176313490
11176324476
11176331740
11176344679
11176354261
11176365309
11176374830
11176383863
11176391554
11176399366
11176409376
11176419752
11176430921
11176438124
11176450147
11176459120
11176468458
11176477003
11176485853
11176493788
11176501722
11176514478
11176525648
11176534376
11176540662
11176551466
11176560194
11176568433
11176579420
11176586622
11176597730
11176606458
11176616163
11176625684
11176633252
11176642713
11176651258
11176659681
11176673597
11176682752
11176690503
11176701123
11176709119
11176718640
11176725537
11176734937
11176744214
11176751355
11176762219
11176773450
11176781873
11176791699
11176800733
11176808057
11176816419
11176825574
11176834607
11176846326
11176854565
11176862378
11176873181
11176886853
11176895154
11176904126
11176914502
11176926526
11176935315
11176947400
11176958203
11176965954
11176976086
11176983166
11176991650
11177001049
11177009167
11177021740
11177028698
11177038525
11177046459
11177056530
11177065808
11177071972
11177084240
11177095165
11177105846
11177116528
11177126843
11177137341
11177147289
11177157604
11177166515
11177177563
11177184582
11177194164
11177203564
11177212475
11177224315
11177233532
11177245372
11177254894
11177265514
11177275280
11177286632
11177295299
11177301708
11177311779
11177322277
11177333202
11177341014
11177349681
11177358959
11177369090
11177377696
11177385875
11177394115
11177405772
11177416026
11177424083
11177432872
11177445079
11177454417
11177460704
11177472301
11177481517
11177488841
11177498668
11177506785
11177518199
11177526256
11177535106
11177545421
11177553355
11177562754
11177569957
11177579539
11177591380
11177599620
11177609629
11177617930
11177624339
11177634654
11177643870
11177653269
11177663218
11177671763
11177681590
11177690257
11177702281
11177709910
11177718699
11177727122
11177736887
11177746043
11177755503
11177767283
11177777537
11177787058
11177797190
11177806711
11177821970
11177831064
11177839121
11177849192
11177856638
11177868845
11177876352
11177886484
11177896433
11177906198
11177912851
11177926035
11177932749
11177944223
11177952768
11177961374
11177969064
11177977060
11177989694
11178000070
11178008310
11178014902
11178026498
11178034982
11178043039
11178051706
11178059274
11178069284
11178080820
11178088754
11178098947
11178107675
11178114755
11178124154
11178133737
11178140817
11178152475
11178160714
11178174813
11178182626
11178192514
11178199350
11178208261
11178218026
11178230050
11178239694
11178249398
11178257882
11178268624
11178276620
11178286996
11178296456
11178304025
11178316537
11178324776
11178336007
11178342477
11178353829
11178360055
11178371285
11178380807
11178388802
11178400521
11178412667
11178420601
11178428170
11178437325
11178447579
11178456612
11178463814
11178471260
11178482186
11178494515
11178503182
11178515633
11178526253
11178534676
11178546761
11178555062
11178570320
11178579537
11178589913
11178600838
11178609688
11178620125
11178630928
11178640327
11178649116
11178659859
11178670662
11178680122
11178687752
11178697639
11178706611
11178714729
11178723762
11178731575
11178742805
11178750801
11178762703
11178770881
11178781379
11178788459
11178798713
11178807563
11178817268
11178826789
11178834541
11178843818
11178853462
11178861396
11178871284
11178880378
11178886665
11178894477
11178907478
11178918952
11178926643
11178934394
11178945624
11178953498
11178962897
11178972419
11178983100
11178992927
11179003669
11179011542
11179021979
11179030280
11179040290
11179049994
11179057380
11179070441
11179078254
11179089118
11179098883
11179106330
11179114325
11179126471
11179134650
11179141974
11179155646
11179163458
11179172247
11179178839
11179190680
11179199591
11179207526
11179216132
11179224005
11179237738
11179246161
11179255377
11179265936
11179275580
11179282416
11179293280
11179302191
11179310064
11179323492
11179331549
11179339544
11179350164
11179360662
11179367987
11179376898
11179383245
11179395758
11179403387
11179415716
11179422552
11179433111
11179442144
11179452154
11179460943
11179474737
11179481390
11179493414
11179502996
11179514349
11179526006
11179537603
11179547369
11179558111
11179568181
11179578252
11179586614
11179597295
11179605596
11179612981
11179624212
11179632024
11179644841
11179656682
11179666082
11179677068
11179687566
11179694524
11179704045
11179713140
11179723943
11179734746
11179742558
11179755254
11179762029
11179774175
11179781804
11179791509
11179802617
11179815373
11179823552
11179831731
11179840581
11179851201
11179859990
11179866337
11179876958
11179884160
11179898076
11179906010
11179916569
11179926945
11179934025
11179942875
11179951786
11179960820
11179967778
11179982548
11179987004
11179999516
11180007084
11180017704
11180028446
11180035038
11180043705
11180057255
11180064823
11180076420
11180087223
11180101200
11180109745
11180122562
11180132877
11180144657
11180151371
11180163944
11180171818
11180181400
11180189945
11180196110
11180207828
11180214054
11180221195
11180237247
11180246769
11180254764
11180262577
11180272464
11180283512
11180293155
11180299747
11180312686
11180319828
11180331973
11180341373
11180354862
11180362186
11180373477
11180380252
11180391116
11180400272
11180407108
11180419559
11180429263
11180436954
11180448428
11180456607
11180464786
11180479983
11180488528
11180496890
11180506412
11180514163
11180523196
11180530337
11180540347
11180547549
11180560244
11180573489
11180582217
11180590090
11180600711
11180606936
11180618838
11180627322
11180638796
11180648074
11180658083
11180665896
11180673831
11180684512
11180692080
11180701479
11180710879
11180714663
11180729433
11180738100
11180746218
11180755923
11180764223
11180770327
11180782412
11180791262
11180801760
11180811037
11180820009
11180827822
11180835756
11180846437
11180854128
11180862978
11180872499
11180881044
11180890016
11180900209
11180908388
11180918947
11180927187
11180934450
11180944826
11180951601
11180963320
11180972414
11180980959
11180989687
11181001222
11181007265
11181017397
11181026857
11181034364
11181046388
11181053224
11181063051
11181072206
11181080812
11181088685
11181098573
11181108522
11181116151
11181129579
11181140504
11181150209
11181156373
11181167482
11181176576
11181187745
11181195863
11181203370
11181215394
11181223329
11181235230
11181242677
11181251832
11181258363
11181269227
11181278870
11181288575
11181297425
11181305909
11181317017
11181327515
11181335877
11181346314
11181356019
11181363526
11181375794
11181384949
11181395691
11181405518
11181413575
11181422669
11181429200
11181439454
11181450257
11181459717
11181467957
11181478089
11181487854
11181496155
11181505249
11181513001
11181521118
11181531861
11181541504
11181551941
11181561463
11181571472
11181580200
11181590637
11181599060
11181608337
11181618896
11181628052
11181638672
11181647949
11181654541
11181664368
11181674988
11181683655
11181690552
11181701843
11181708313
11181723083
11181730468
11181742492
11181751464
11181759216
11181767639
11181780578
11181792358
11181800292
11181810058
11181820312
11181829772
11181839782
11181846496
11181856445
11181866271
11181876647
11181886779
11181896484
11181910033
11181920348
11181930541
11181937194
11181948852
11181959838
11181971313
11181981200
11181992431
11182000976
11182011046
11182015685
11182028930
11182041137
11182051085
11182061766
11182071288
11182078978
11182088195
11182098387
11182106688
11182112548
11182119628
11182135680
11182143553
11182153624
11182163512
11182172362
11182178709
11182188414
11182197569
11182204710
11182215758
11182227476
11182237120
11182244627
11182254332
11182261351
11182271788
11182281065
11182288328
11182299254
11182307554
11182318541
11182328978
11182338499
11182346373
11182354673
11182364073
11182375059
11182384275
11182394895
11182400877
11182411619
11182422300
11182430052
11182438963
11182448972
11182460081
11182468992
11182479795
11182489195
11182499754
11182508421
11182517332
11182525510
11182532774
11182544492
11182555417
11182564634
11182581968
11182590452
11182600583
11182610715
11182617917
11182630613
11182640195
11182647397
11182657590
11182667539
11182676694
11182685666
11182693723
11182705625
11182714353
11182726560
11182734860
11182743344
11182755368
11182763852
11182776852
11182790158
11182801205
11182857114
11182865536
11182876156
11182884640
11182899716
11182908200
11182918515
11182930844
11182941098
11182953366
11182964596
11182971615
11182984860
11182991696
11183001095
11183010006
11183021969
11183034420
11183043514
11183053341
11183060787
11183072262
11183081234
11183089535
11183102047
11183111507
11183123775
11183131466
11183144527
11183154537
11183162838
11183174007
11183185604
11183194088
11183200985
11183209224
11183221492
11183231441
11183244564
11183256771
11183266231
11183276302
11183288143
11183297908
11183310543
11183319393
11183331294
11183340022
11183350459
11183359309
11183371211
11183380977
11183391231
11183401851
11183412898
11183423274
11183435420
11183446223
11183457393
11183469661
11183479976
11183491878
11183502437
11183514460
11183522212
11183531977
11183544612
11183555049
11183562434
11183574946
11183583247
11183595149
11183606440
11183617060
11183625544
11183637812
11183649409
11183658808
11183671015
11183682978
11183692683
11183704768
11183712031
11183724543
11183730585
11183742670
11183751337
11183758478
11183774653
11183782099
11183794550
11183804072
11183813227
11183821955
11183830683
11183840448
11183847528
11183860407
11183870478
11183879572
11183888483
11183900202
11183909540
11183918939
11183928522
11183938776
11183948602
11183958551
11183967523
11183978510
11183990289
11184003412
11184011285
11184022089
11184033014
11184044122
11184054620
11184063531
11184075921
11184084588
11184094903
11184102228
11184114373
11184121515
11184129327
11184143853
11184156915
11184165826
11184174798
11184185235
11184192254
11184199884
11184211785
11184220208
11184233331
11184245110
11184253655
11184264520
11184273370
11184283074
11184287835
11184300469
11184307427
11184322137
11184332879
11184344292
11184350762
11184362969
11184372613
11184384026
11184392144
11184399468
11184412896
11184423211
11184434380
11184440361
11184451165
11184461724
11184468682
11184481499
11184491204
11184503044
11184514458
11184522392
11184532829
11184544609
11184554192
11184561577
11184573906
11184583794
11184592155
11184604973
11184614006
11184630607
11184640922
11184654594
11184663505
11184674919
11184684440
11184700187
11184709221
11184722221
11184733818
11184743644
11184755546
11184764579
11184774711
11184785758
11184796562
11184804313
11184814567
11184825797
11184835746
11184842643
11184853874
11184860038
11184871879
11184883964
11184892509
11184902579
11184909415
11184920097
11184931266
11184939872
11184949027
11184961234
11184971000
11184980765
11184989676
11185000235
11185008475
11185017936
11185027213
11185035941
11185043937
11185056388
11185068289
11185076529
11185084037
11185095633
11185105338
11185113089
11185125174
11185137320
11185150870
11185160330
11185167838
11185176932
11185189871
11185199393
11185207693
11185216482
11185228445
11185238760
11185250601
11185258475
11185269827
11185278616
11185288748
11185297354
11185306631
11185318228
11185330801
11185342276
11185353323
11185363027
11185374502
11185387014
11185396475
11185407217
11185420828
11185431448
11185436819
11185448232
11185460622
11185469900
11185481741
11185490163
11185500478
11185504812
11185520864
11185533437
11185543569
11185551198
11185563283
11185575796
11185583669
11185594167
11185602773
11185619436
11185629323
11185639516
11185651357
11185659169
11185669911
11185678578
11185688161
11185699819
11185713552
11185722768
11185733876
11185741506
11185753957
11185764516
11185773427
11185782887
11185795522
11185807118
11185815663
11185825856
11185837269
11185847218
11185857777
11185865529
11185874562
11185884816
11185899708
11185908192
11185917775
11185927601
11185935780
11185942555
11185952442
11185961537
11185976063
11185985401
11185994190
11186001820
11186012501
11186020313
11186030750
11186039295
11186046436
11186058460
11186068165
11186077625
11186087086
11186096851
11186104664
11186112354
11186121937
11186131580
11186142811
11186150013
11186161670
11186170643
11186178638
11186187244
11186198597
11186206348
11186217212
11186228321
11186236255
11186245777
11186252430
11186264087
11186273792
11186282337
11186290821
11186302417
11186311084
11186323413
11186331531
11186341602
11186349902
11186356128
11186366382
11186375781
11186386829
11186396106
11186403308
11186416064
11186423633
11186433215
11186443652
11186450366
11186459826
11186470813
11186480334
11186488940
11186497424
11186507922
11186515673
11186523425
11186532458
11186541674
11186550891
11186560351
11186571643
11186580371
11186587390
11186596972
11186607348
11186615588
11186625720
11186637805
11186646777
11186656603
11186664111
11186674426
11186680956
11186691210
11186699816
11186706774
11186723315
11186731493
11186740099
11186749010
11186760424
11186769396
11186781908
11186794787
11186808336
11186816820
11186827501
11186835253
11186844530
11186855272
11186862047
11186871569
11186878832
11186894518
11186911058
11186929002
11186939806
11186953722
11186963426
11186972276
11186983141
11186992113
11187004015
11187012559
11187020128
11187031358
11187039354
11187047655
11187057115
11187064073
11187078111
11187085252
11187095994
11187106309
11187116441
11187123887
11187133470
11187142625
11187152513
11187161851
11187172105
11187179978
11187187791
11187199388
11187207078
11187215623
11187225266
11187233506
11187242661
11187251939
11187259934
11187271470
11187279465
11187287339
11187298020
11187304307
11187316086
11187326646
11187335679
11187345505
11187357346
11187364548
11187375718
11187384507
11187395554
11187404587
11187412888
11187421067
11187432175
11187440720
11187448349
11187457382
11187463669
11187474961
11187483628
11187492661
11187501755
11187513535
11187522141
11187532150
11187541794
11187550095
11187561935
11187572800
11187581650
11187588364
11187600387
11187607956
11187616928
11187623276
11187634933
11187644943
11187655746
11187664718
11187675277
11187683883
11187692856
11187701095
11187709457
11187723129
11187732223
11187741439
11187751083
11187759750
11187769882
11187776351
11187784164
11187795150
11187804672
11187816940
11187825179
11187835799
11187843795
11187854720
11187862655
11187872054
11187881820
11187895187
11187903548
11187912093
11187922469
11187930709
11187940475
11187949630
11187955977
11187969466
11187977096
11187989486
11187998275
11188006270
11188015242
11188026412
11188034468
11188041854
11188056014
11188064864
11188073287
11188083113
11188092024
11188100813
11188107771
11188115889
11188125899
11188137618
11188145979
11188155867
11188162215
11188174116
11188182844
11188190779
11188199263
11188211165
11188219710
11188228865
11188239851
11188249678
11188258772
11188268843
11188275679
11188284468
11188296675
11188306379
11188316206
11188324812
11188342451
11188350202
11188363691
11188373396
11188377363
11188389753
11188401228
11188409895
11188420515
11188429487
11188436140
11188446149
11188457319
11188468427
11188478742
11188488203
11188496198
11188504011
11188512678
11188519147
11188530073
11188537641
11188550275
11188560651
11188569928
11188577985
11188587323
11188593549
11188603620
11188611432
11188621991
11188631574
11188642377
11188651166
11188661054
11188670209
11188677289
11188688031
11188696149
11188703534
11188716290
11188724225
11188734174
11188740338
11188751874
11188758038
11188769208
11188777936
11188786786
11188796796
11188807416
11188815472
11188825909
11188834515
11188844586
11188851483
11188860394
11188871258
11188880902
11188893231
11188904705
11188915326
11188922894
11188936871
11188944439
11188957928
11188968548
11188979046
11188988018
11188996563
11189007916
11189019390
11189030132
11189040997
11189051922
11189061993
11189070965
11189080730
11189089031
11189098736
11189108013
11189114849
11189125957
11189135357
11189144085
11189152202
11189163067
11189172527
11189182476
11189190532
11189201336
11189213726
11189221538
11189232402
11189241130
11189251323
11189256694
11189267497
11189277446
11189284770
11189298381
11189306255
11189317546
11189324687
11189334331
11189342876
11189352702
11189361613
11189368938
11189381816
11189392009
11189401713
11189411601
11189420939
11189430827
11189437358
11189449016
11189453044
11189465495
11189477580
11189485942
11189493449
11189504435
11189512126
11189519328
11189528605
11189535563
11189549723
11189557963
11189566203
11189573832
11189585368
11189592997
11189601420
11189610819
11189621439
11189630473
11189638407
11189650248
11189657877
11189665629
11189676798
11189687418
11189698466
11189707987
11189715433
11189727152
11189734904
11189744425
11189750590
11189761271
11189770365
11189782450
11189791239
11189799967
11189807962
11189815348
11189829935
11189837320
11189845987
11189856546
11189868570
11189876688
11189886881
11189898050
11189910257
11189918558
11189931863
11189938821
11189954080
11189961526
11189974405
11189985574
11189996072
11190003702
11190017251
11190028970
11190040017
11190046548
11190059488
11190068277
11190077249
11190085855
11190093545
11190102945
11190112222
11190125589
11190133035
11190143960
11190151650
11190160440
11190169900
11190178689
11190187417
11190198525
11190208169
11190219705
11190229043
11190237954
11190250466
11190258462
11190268655
11190278908
11190289712
11190296853
11190310036
11190320046
11190331643
11190342873
11190353859
11190363381
11190374184
11190382485
11190393227
11190401345
11190412575
11190421425
11190428932
11190437905
11190447731
11190456642
11190466957
11190476357
11190485817
11190494667
11190503151
11190513649
11190521950
11190529030
11190540993
11190550575
11190563881
11190572304
11190580177
11190594459
11190606972
11190617836
11190625892
11190636574
11190648292
11190658912
11190665870
11190678260
11190690162
11190700294
11190710548
11190718605
11190732460
11190740943
11190751502
11190759742
11190768165
11190776832
11190786781
11190795997
11190802955
11190816078
11190827247
11190835059
11190842994
11190853187
11190860145
11190870216
11190880103
11190893714
11190910316
11190923804
11190937110
11190947425
11190963294
11190981177
11190996619
11191009986
11191021399
11191032691
11191055457
11191063208
11191071631
11191080237
11191087073
11191094092
11191101782
11191108679
11191115820
11191122534
11191129614
11191136938
11191144629
11191151282
11191159338
11191166785
11191173498
11191180334
11191186621
11191196020
11191202917
11191208166
11191217444
11191223181
11191230993
11191236975
11191245947
11191252905
11191260840
11191267431
11191274206
11191281042
11191287451
11191293921
11191303137
11191309301
11191316442
11191323584
11191331274
11191338293
11191344763
11191352514
11191359045
11191366125
11191372412
11191381201
11191387365
11191393713
11191399877
11191409582
11191416906
11191425146
11191432348
11191439733
11191446935
11191454748
11191462194
11191472448
11191480993
11191488073
11191496129
11191503576
11191510595
11191517858
11191526464
11191534459
11191541967
11191549352
11191555944
11191563085
11191570409
11191575048
11191585241
11191592443
11191604528
11191612584
11191618261
11191627660
11191634069
11191643407
11191649816
11191660985
11191668309
11191675572
11191683568
11191689732
11191696874
11191706944
11191712621
11191720799
11191729832
11191738622
11191746190
11191752721
11191762059
11191770909
11191778477
11191786534
11191791722
11191800938
11191807103
11191815404
11191823033
11191830723
11191837987
11191847813
11191856480
11191866185
11191873997
11191880528
11191888279
11191895665
11191902501
11191907322
11191915257
11191920567
11191932286
11191937351
11191946873
11191954075
11191959934
11191967991
11191976963
11191981785
11191992222
11192000889
11192007847
11192015659
11192021641
11192029209
11192035069
11192044468
11192052219
11192062046
11192068882
11192076755
11192083164
11192090183
11192096531
11192105747
11192112766
11192120884
11192127231
11192134861
11192141147
11192149387
11192155674
11192165073
11192171787
11192181430
11192187839
11192195346
11192201572
11192208896
11192215183
11192222934
11192229526
11192238681
11192245029
11192252902
11192259311
11192266635
11192273715
11192282382
11192288913
11192297214
11192303623
11192313327
11192320712
11192327914
11192335727
11192342685
11192350436
11192358981
11192366244
11192373752
11192381808
11192388461
11192397800
11192405063
11192412997
11192421786
11192428866
11192436313
11192442904
11192449862
11192459384
11192467318
11192476352
11192483676
11192490695
11192498141
11192505587
11192510165
11192519686
11192526766
11192535556
11192543429
11192549777
11192558505
11192566866
11192575289
11192581820
11192590182
11192597018
11192604159
11192612277
11192617953
11192626192
11192633944
11192640414
11192648775
11192657626
11192664706
11192672335
11192679049
11192685702
11192693636
11192700106
11192708468
11192715609
11192723910
11192732332
11192740389
11192748995
11192756197
11192764071
11192770357
11192778353
11192785067
11192793550
11192800508
11192809175
11192815828
11192825289
11192832857
11192839754
11192846102
11192853548
11192861055
11192870638
11192878755
11192885591
11192895357
11192903536
11192909334
11192917329
11192925813
11192934419
11192941743
11192949739
11192957246
11192962984
11192970979
11192976961
11192985322
11192994356
11193001069
11193007112
11193014924
11193022859
11193029756
11193036165
11193045198
11193054780
11193061982
11193068452
11193075532
11193081269
11193089875
11193097993
11193106843
11193113313
11193121919
11193128511
11193136750
11193143098
11193150483
11193156220
11193165803
11193173127
11193182465
11193189485
11193195649
11193204255
11193210114
11193218415
11193225007
11193234345
11193241853
11193248322
11193255769
11193262299
11193268769
11193276948
11193285004
11193292023
11193300873
11193307343
11193313752
11193320038
11193328583
11193334809
11193346039
11193353486
11193360260
11193367402
11193374665
11193381928
11193391388
11193397248
11193405732
11193414765
11193421418
11193428131
11193433625
11193442536
11193449494
11193457428
11193465790
11193471527
11193480988
11193488495
11193494843
11193499664
11193506989
11193515656
11193525299
11193531952
11193539886
11193547455
11193554108
11193560150
11193568390
11193575775
11193581940
11193590729
11193598297
11193605438
11193613128
11193621368
11193628631
11193639251
11193645233
11193653839
11193663849
11193670196
11193677826
11193684356
11193692596
11193699066
11193708892
11193716339
11193723907
11193731048
11193736846
11193743499
11193753509
11193761199
11193768279
11193775359
11193783477
11193789520
11193798797
11193804229
11193815154
11193822112
11193828521
11193836456
11193843230
11193850799
11193857146
11193861724
11193873809
11193880767
11193887054
11193896636
11193901275
11193910613
11193917327
11193925689
11193935698
11193942473
11193949981
11193958220
11193966887
11193973845
11193982817
11193989165
11193997283
11194004424
11194012114
11194019744
11194026580
11194034270
11194044219
11194050261
11194058257
11194066069
11194073882
11194082671
11194091948
11194099455
11194109160
11194115446
11194121916
11194129851
11194136565
11194144926
11194151823
11194160673
11194167448
11194176543
11194183439
11194191313
11194197905
11194204802
11194211149
11194218474
11194227629
11194234587
11194241850
11194248381
11194255034
11194262907
11194269926
11194278227
11194285185
11194294035
11194300932
11194308866
11194315153
11194323149
11194329618
11194336820
11194346098
11194353300
11194360563
11194366972
11194374052
11194381376
11194388212
11194396024
11194402494
11194411955
11194419096
11194425504
11194431730
11194439786
11194446744
11194454435
11194461088
11194468900
11194475309
11194483121
11194489469
11194497526
11194504300
11194511258
11194517972
11194527006
11194533414
11194541227
11194548124
11194555631
11194563443
11194571805
11194581693
11194589078
11194596402
11194602689
11194609464
11194616544
11194622647
11194630887
11194638394
11194647977
11194654569
11194662198
11194669400
11194677152
11194683682
11194691617
11194701260
11194710233
11194715298
11194724271
11194730496
11194737393
11194743863
11194753079
11194760098
11194769131
11194774136
11194783719
11194790677
11194798062
11194804471
11194812588
11194819119
11194827481
11194834256
11194842801
11194849087
11194856717
11194863003
11194870510
11194877041
11194886624
11194894314
11194901089
11194907559
11194914334
11194920803
11194928250
11194937649
11194946316
11194954189
11194960232
11194966824
11194975735
11194980190
11194989895
11194997280
11195003872
11195009975
11195017056
11195023647
11195032558
11195037075
11195045864
11195055080
11195061489
11195067715
11195075649
11195082302
11195088955
11195095974
11195105190
11195112270
11195121608
11195128689
11195134487
11195140712
11195150112
11195154689
11195163234
11195169765
11195179531
11195184108
11195193141
11195199794
11195207302
11195213161
11195220851
11195230739
11195236843
11195243740
11195252040
11195258388
11195265468
11195271877
11195277431
11195290370
11195311794
11195317958
11195327785
11195334254
11195339992
11195350551
11195357387
11195365932
11195372462
11195379176
11195388270
11195395534
11195401881
11195410853
11195418849
11195425502
11195433436
11195439845
11195447596
11195454493
11195464137
11195471705
11195478419
11195485072
11195494044
11195501368
11195507350
11195513880
11195522303
11195529017
11195537440
11195544337
11195553797
11195558436
11195566920
11195573145
11195580958
11195587489
11195595118
11195601466
11195610133
11195617274
11195623743
11195630518
11195638636
11195647669
11195655726
11195662562
11195670496
11195676905
11195683619
11195689905
11195698572
11195705286
11195714747
11195721644
11195728724
11195735071
11195742334
11195748133
11195755762
11195765162
11195772181
11195780359
11195787683
11195793970
11195800623
11195806665
11195814417
11195823877
11195831507
11195837366
11195844629
11195852930
11195860559
11195866480
11195874475
11195883508
11195889917
11195898340
11195905969
11195912195
11195919336
11195926965
11195932336
11195942712
11195950159
11195956323
11195964380
11195972864
11195979944
11195985742
11195993616
11196002466
11196010644
11196017968
11196026269
11196035730
11196042077
11196049524
11196059838
11196067651
11196075280
11196082849
11196090905
11196097253
11196105249
11196113305
11196120935
11196128076
11196136193
11196145471
11196153344
11196159265
11196167382
11196176904
11196186486
11196193810
11196202294
11196208398
11196215478
11196222741
11196232568
11196240136
11196246667
11196255517
11196261559
11196268700
11196275963
11196283166
11196290551
11196298668
11196305626
11196312096
11196320336
11196327721
11196334496
11196340844
11196351830
11196361351
11196368859
11196376244
11196383873
11196389061
11196398217
11196405480
11196413903
11196421105
11196429161
11196437462
11196446983
11196452599
11196460106
11196467552
11196475975
11196485863
11196492760
11196500572
11196508018
11196516258
11196523277
11196531029
11196538597
11196547020
11196554466
11196561851
11196571739
11196577965
11196588341
11196595176
11196603477
11196609764
11196618431
11196625999
11196632042
11196639610
11196646873
11196654625
11196662742
11196669883
11196678672
11196684043
11196692955
11196698631
11196709739
11196717430
11196727683
11196733726
11196740074
11196747337
11196753745
11196763511
11196771018
11196778343
11196785423
11196792381
11196798484
11196805869
11196812827
11196823325
11196831077
11196838340
11196845481
11196851585
11196858237
11196866416
11196873374
11196882834
11196889914
11196897788
11196904929
11196914084
11196920737
11196926902
11196935874
11196943747
11196951316
11196959616
11196966758
11196975425
11196980796
11196989707
11196995627
11197007346
11197014914
11197021872
11197029441
11197035727
11197044211
11197051901
11197058981
11197066977
11197074423
11197080771
11197088400
11197094687
11197103293
11197110312
11197118246
11197125876
11197133139
11197140097
11197148276
11197155478
11197162131
11197168844
11197176352
11197182821
11197192099
11197199240
11197206015
11197212423
11197220602
11197226950
11197235251
11197243002
11197250814
11197257101
11197264059
11197270529
11197278402
11197285910
11197293661
11197302938
11197309652
11197316122
11197324850
11197329916
11197338949
11197344930
11197351522
11197362264
11197369344
11197375997
11197383077
11197389791
11197397237
11197404012
11197414693
11197421346
11197429464
11197436178
11197445638
11197453756
11197459310
11197466268
11197474630
11197481466
11197491353
11197498861
11197504781
11197511129
11197519796
11197524617
11197534322
11197540975
11197549154
11197555806
11197564901
11197569417
11197577840
11197586873
11197595113
11197602986
11197611898
11197619527
11197627645
11197635152
11197642781
11197648335
11197658772
11197664815
11197672322
11197679768
11197687642
11197694783
11197702229
11197709920
11197718465
11197724446
11197733296
11197739094
11197748555
11197753743
11197762410
11197768391
11197778462
11197783894
11197791096
11197798359
11197806111
11197813923
11197821553
11197827351
11197838520
11197843647
11197853352
11197860554
11197866658
11197874287
11197883686
11197891560
11197898335
11197906697
11197914631
11197923420
11197929707
11197938008
11197944233
11197953755
11197961872
11197968952
11197975849
11197983357
11197989460
11197999287
11198006916
11198014118
11198021992
11198030415
11198035725
11198044453
11198052570
11198061237
11198067890
11198074543
11198084003
11198091572
11198098896
11198106525
11198113544
11198119770
11198127155
11198136188
11198143451
11198150776
11198158588
11198165607
11198171466
11198178485
11198186420
11198193073
11198202472
11198209735
11198216144
11198222370
11198230853
11198236286
11198242084
11198247638
11198252704
11198257587
11198263751
11198267658
11198273029
11198279987
11198284137
11198292011
11198297198
11198302753
11198307208
11198314960
11198322711
11198329425
11198337298
11198344073
11198349200
11198355487
11198361468
11198366900
11198373065
11198378436
11198384540
11198388629
11198394183
11198400103
11198404620
11198409869
11198416766
11198422259
11198427020
11198431842
11198436236
11198442157
11198448199
11198451739
11198460467
11198465289
11198470172
11198474932
11198482135
11198486041
11198493182
11198497088
11198504290
11198510333
11198516314
11198521746
11198527178
11198532794
11198538897
11198544146
11198549151
11198555132
11198559954
11198565142
11198571368
11198576983
11198582110
11198587481
11198594683
11198599200
11198605242
11198610491
11198615252
11198620623
11198625994
11198630633
11198636187
11198642962
11198648028
11198652849
11198657732
11198663897
11198668352
11198672747
11198680132
11198685076
11198689287
11198694903
11198700457
11198705828
11198711382
11198716326
11198721819
11198728167
11198735735
11198740068
11198745928
11198750078
11198756304
11198760271
11198765703
11198771807
11198777239
11198782366
11198789019
11198793901
11198798723
11198803118
11198809831
11198815813
11198822222
11198826555
11198831926
11198836809
11198842119
11198848406
11198853960
11198860735
11198869463
11198874468
11198881364
11198886980
11198894365
11198900041
11198906084
11198912553
11198922563
11198926103
11198933366
11198937456
11198942888
11198948442
11198956865
11198961442
11198967485
11198972856
11198976701
11198981523
11198988176
11198992814
11198998124
11199003129
11199009965
11199014665
11199018327
11199025895
11199031572
11199036515
11199040788
11199047258
11199053117
11199058610
11199063981
11199069108
11199074540
11199080461
11199084489
11199091752
11199096025
11199101274
11199107316
11199113175
11199120500
11199125138
11199130876
11199138932
11199144242
11199150407
11199155717
11199161759
11199165177
11199172440
11199175980
11199183732
11199188432
11199194108
11199199906
11199204850
11199211381
11199216264
11199224381
11199230118
11199236832
11199242081
11199246842
11199251664
11199257767
11199264420
11199270218
11199277848
11199282853
11199289994
11199294388
11199300370
11199306290
11199311600
11199316727
11199324723
11199330582
11199335709
11199340836
11199347000
11199351944
11199358536
11199363053
11199368912
11199377823
11199382279
11199386978
11199392227
11199397721
11199403214
11199408524
11199414200
11199421707
11199428848
11199434281
11199443924
11199448685
11199455399
11199461502
11199465591
11199475540
11199479813
11199486221
11199492569
11199499344
11199505691
11199511490
11199517898
11199523819
11199529678
11199535416
11199540481
11199546585
11199550918
11199558304
11199563064
11199570450
11199578384
11199583572
11199590591
11199595779
11199601822
11199607071
11199610977
11199618362
11199625564
11199630325
11199635513
11199639968
11199646194
11199650589
11199654495
11199663589
11199667739
11199674087
11199679336
11199685012
11199690200
11199694595
11199700088
11199707412
11199714004
11199718948
11199724258
11199732864
11199739700
11199745437
11199752334
11199761123
11199766372
11199771743
11199781814
11199793349
11199801650
11199808425
11199818923
11199825149
11199833938
11199842055
11199848769
11199856154
11199863967
11199870376
11199875930
11199884536
11199889663
11199898269
11199906264
11199916823
11199922622
11199928786
11199939467
11199945693
11199952407
11199960341
11199966323
11199976515
11199985976
11199992812
11200001296
11200003676
11200013625
11200022109
11200028517
11200034316
11200044325
11200052504
11200058669
11200066603
11200073134
11200081984
11200089491
11200096144
11200103407
11200109694
11200121229
11200127699
11200135695
11200143080
11200149977
11200159193
11200169020
11200177687
11200184340
11200194288
11200200148
11200211195
11200219008
11200229445
11200236586
11200243727
11200252699
11200258558
11200264723
11200276808
11200285047
11200295973
11200302625
11200308912
11200316786
11200321913
11200330396
11200338331
11200347120
11200353407
11200358778
11200365247
11200372877
11200378675
11200384229
11200393812
11200399732
11200406446
11200414258
11200422254
11200427869
11200433423
11200443128
11200448560
11200455091
11200462049
11200472364
11200479749
11200487623
11200493665
11200499402
11200507093
11200511609
11200520520
11200527784
11200533643
11200544812
11200551953
11200559827
11200566114
11200574170
11200581067
11200587781
11200595777
11200604505
11200612622
11200620740
11200629773
11200634290
11200642590
11200649732
11200657849
11200665112
11200673047
11200676465
11200685986
11200695142
11200701367
11200709912
11200715039
11200721448
11200727429
11200735303
11200743664
11200750683
11200757947
11200765759
11200773205
11200779065
11200789197
11200796704
11200806897
11200813366
11200821850
11200829296
11200837475
11200845654
11200851696
11200861645
11200868786
11200876843
11200885388
11200891308
11200902477
11200909619
11200918591
11200924084
11200929760
11200937939
11200946850
11200954235
11200960033
11200969494
11200978527
11200985973
11200993786
11201002453
11201008556
11201015148
11201021435
11201029980
11201038708
11201045849
11201053722
11201060314
11201068249
11201076793
11201083751
11201089428
11201095104
11201106212
11201113292
11201123180
11201132946
11201143016
11201151561
11201161083
11201166698
11201176342
11201183727
11201193187
11201198558
11201206310
11201214671
11201221507
11201227184
11201238719
11201245311
11201254649
11201261485
11201269176
11201277049
11201287120
11201292369
11201302379
11201309886
11201317088
11201324596
11201334849
11201341746
11201350291
11201356883
11201365550
11201372203
11201377696
11201384471
11201391246
11201400889
11201406138
11201414683
11201422679
11201429210
11201438243
11201444712
11201453746
11201459117
11201464976
11201475230
11201481578
11201488047
11201496958
11201503184
11201510508
11201515940
11201524729
11201531016
11201537302
11201544688
11201553599
11201561167
11201566904
11201576975
11201583201
11201591441
11201596323
11201605784
11201609934
11201618113
11201628245
11201636240
11201650644
11201659434
11201667978
11201675425
11201682871
11201690073
11201694773
11201704599
11201711435
11201719858
11201728098
11201735056
11201740000
11201749521
11201756418
11201761789
11201772959
11201779611
11201786203
11201791269
11201800669
11201808054
11201813364
11201822153
11201827951
11201835153
11201842355
11201849863
11201855722
11201861398
11201869028
11201876657
11201883432
11201890634
11201897531
11201905283
11201911874
11201920785
11201926889
11201934152
11201941110
11201946481
11201955758
11201961740
11201970956
11201979501
11201987253
11201996164
11202002206
11202012094
11202018502
11202025644
11202032174
11202043100
11202053109
11202059762
11202068002
11202074288
11202080270
11202085153
11202089852
11202095895
11202101998
11202107919
11202113473
11202117989
11202123483
11202128488
11202134042
11202139840
11202145699
11202151376
11202157113
11202163583
11202169564
11202177010
11202181588
11202190133
11202193978
11202201241
11202205453
11202212166
11202216500
11202223885
11202228402
11202234688
11202239937
11202245553
11202251412
11202256844
11202263253
11202269906
11202274544
11202281868
11202287179
11202293343
11202299080
11202305550
11202312142
11202316964
11202322945
11202329171
11202334542
11202339730
11202345894
11202353035
11202357613
11202363533
11202369332
11202376717
11202382759
11202387825
11202393929
11202399483
11202404671
11202410713
11202416084
11202419808
11202428047
11202433052
11202437630
11202443733
11202449654
11202455574
11202461006
11202466927
11202472359
11202478523
11202485481
11202491463
11202497383
11202505440
11202514168
11202519722
11202527595
11202536018
11202543709
11202548897
11202559334
11202567512
11202573494
11202582588
11202588630
11202596992
11202604683
11202611518
11202619880
11202625557
11202633918
11202638435
11202647407
11202654914
11202661384
11202673652
11202683357
11202693305
11202700508
11202710212
11202717353
11202724189
11202732917
11202738593
11202744575
11202753974
11202760810
11202768317
11202775886
11202782050
11202789008
11202795600
11202801948
11202807258
11202819037
11202825629
11202831183
11202838569
11202844184
11202850532
11202856452
11202865241
11202873542
11202882392
11202890998
11202897712
11202904120
11202909186
11202916632
11202924140
11202930548
11202937690
11202949286
11202958625
11202971991
11202975104
11202985663
11202991644
11202998969
11203003913
11203013983
11203021185
11203028998
11203035529
11203041876
11203050299
11203057745
11203064825
11203069830
11203075201
11203084906
11203093695
11203099249
11203107367
11203113287
11203119757
11203126593
11203132330
11203137762
11203147589
11203153753
11203162420
11203168036
11203175055
11203181646
11203188116
11203194220
11203201788
11203209784
11203216375
11203224676
11203232733
11203240057
11203247137
11203253607
11203260321
11203267889
11203273504
11203285101
11203292303
11203300726
11203305975
11203314703
11203322393
11203328375
11203335821
11203344610
11203349981
11203357366
11203366033
11203372747
11203378912
11203386297
11203391119
11203401433
11203405950
11203414617
11203426763
11203433538
11203439824
11203447271
11203455388
11203459905
11203468328
11203476079
11203481084
11203491094
11203498540
11203508611
11203514043
11203519719
11203530645
11203537542
11203544011
11203552251
11203560796
11203571904
11203577764
11203586736
11203595891
11203603459
11203608647
11203616094
11203622258
11203627995
11203639836
11203645818
11203653142
11203660710
11203666020
11203672612
11203677495
11203685796
11203691533
11203700139
11203708012
11203713505
11203720158
11203726994
11203733342
11203739323
11203746220
11203754155
11203761723
11203766484
11203774785
11203781315
11203787236
11203795353
11203803349
11203810002
11203815129
11203821476
11203837529
11203843510
11203851567
11203857975
11203866398
11203873417
11203880863
11203887516
11203893742
11203904179
11203911564
11203920536
11203927006
11203933659
11203940800
11203945805
11203953800
11203959904
11203969730
11203975529
11203984806
11203992252
11203998966
11204005680
11204012272
11204021061
11204028934
11204040531
11204047855
11204054142
11204061710
11204069706
11204076420
11204082950
11204090030
11204097355
11204100711
11204111026
11204118473
11204126590
11204134586
11204140811
11204144962
11204150943
11204159732
11204165897
11204176761
11204182010
11204190921
11204198184
11204203983
11204212650
11204219547
11204230106
11204236026
11204248355
11204258121
11204264163
11204273257
11204282107
11204287967
11204296634
11204304019
11204310672
11204321292
11204328067
11204333926
11204341434
11204347842
11204354495
11204363162
11204370425
11204377383
11204384524
11204393313
11204403628
11204410342
11204419558
11204430423
11204437686
11204445498
11204455996
11204465090
11204472476
11204480166
11204487612
11204493716
11204502017
11204507754
11204515688
11204524416
11204531985
11204538882
11204548464
11204554263
11204564272
11204572573
11204582033
11204586855
11204596377
11204602297
11204610171
11204617373
11204625368
11204632631
11204640627
11204650332
11204655214
11204663820
11204670473
11204677126
11204683291
11204689699
11204701662
11204708071
11204716310
11204725710
11204735170
11204741579
11204748903
11204756288
11204761843
11204769350
11204777895
11204785951
11204793947
11204801759
11204808901
11204815859
11204824281
11204829591
11204835329
11204844972
11204853822
11204864992
11204871767
11204877870
11204884645
11204891359
11204899965
11204908632
11204915590
11204922731
11204926027
11204938173
11204943910
11204951112
11204959291
11204965028
11204972169
11204977418
11204986757
11204992799
11205002870
11205008241
11205016114
11205023194
11205028504
11205036927
11205041810
11205050843
11205057801
11205063111
11205072938
11205079896
11205088014
11205094239
11205101136
11205108521
11205114015
11205122376
11205128541
11205137147
11205143189
11205153260
11205161622
11205171021
11205179444
11205185609
11205195862
11205202943
11205212647
11205218567
11205227906
11205237000
11205244874
11205256104
11205266419
11205281128
11205290650
11205298279
11205308228
11205315369
11205320435
11205330506
11205337952
11205343018
11205351746
11205356873
11205367249
11205375427
11205387207
11205398010
11205408692
11205415711
11205422669
11205427612
11205433167
11205437012
11205444397
11205450317
11205454956
11205461304
11205466064
11205473450
11205478760
11205483948
11205490112
11205495422
11205500122
11205505920
11205510254
11205514038
11205522705
11205528137
11205532715
11205539917
11205544006
11205549316
11205555176
11205560608
11205566650
11205572693
11205577697
11205583191
11205588867
11205594360
11205599548
11205603149
11205611816
11205617981
11205624206
11205628784
11205635681
11205640380
11205647094
11205651977
11205657836
11205665893
11205670654
11205676635
11205682922
11205688110
11205694335
11205701110
11205707702
11205712951
11205718444
11205724426
11205730285
11205736144
11205740112
11205747070
11205752563
11205760741
11205766479
11205772521
11205777404
11205783935
11205788329
11205795165
11205801879
11205807860
11205812499
11205821227
11205826171
11205831359
11205837768
11205843261
11205849059
11205854674
11205859923
11205866027
11205871032
11205877929
11205882567
11205887938
11205897460
11205905516
11205911803
11205917601
11205924437
11205929930
11205937316
11205942321
11205947936
11205952269
11205958068
11205962279
11205968016
11205972716
11205978270
11205983824
11205990416
11205995787
11206000914
11206004820
11206011473
11206017333
11206022093
11206027281
11206032774
11206037718
11206042967
11206049559
11206053709
11206060912
11206067320
11206072996
11206076598
11206082152
11206088194
11206092406
11206097655
11206104307
11206111754
11206117918
11206124205
11206130308
11206135496
11206141783
11206146422
11206153685
11206158873
11206164915
11206169615
11206175108
11206180174
11206185118
11206192564
11206197508
11206204832
11206210691
11206217100
11206221128
11206226927
11206231016
11206237974
11206244383
11206248716
11206254454
11206259641
11206265440
11206270140
11206275938
11206282591
11206290525
11206295957
11206301389
11206307493
11206312986
11206317381
11206321531
11206330076
11206335813
11206340696
11206346494
11206351377
11206357847
11206362424
11206368284
11206374876
11206383543
11206387510
11206394041
11206399473
11206404722
11206410215
11206416746
11206422727
11206430601
11206437803
11206444455
11206451902
11206457761
11206464658
11206470762
11206476255
11206481015
11206486997
11206493650
11206498716
11206502866
11206508664
11206512876
11206518857
11206523374
11206528623
11206533261
11206538510
11206544370
11206549741
11206554318
11206560056
11206564511
11206570981
11206575253
11206580197
11206584470
11206590573
11206597958
11206601987
11206608457
11206614133
11206618527
11206623898
11206628842
11206634091
11206641110
11206645322
11206650693
11206656369
11206662839
11206668881
11206674863
11206681027
11206687314
11206693844
11206699216
11206704831
11206711911
11206717831
11206722470
11206727841
11206734982
11206741269
11206745846
11206751645
11206756283
11206762387
11206767025
11206772763
11206779965
11206784909
11206789303
11206795529
11206800167
11206806210
11206812619
11206817135
11206824704
11206831173
11206837033
11206842770
11206847042
11206852169
11206858456
11206863156
11206869686
11206876705
11206881222
11206885800
11206891903
11206898678
11206903072
11206909298
11206915463
11206921383
11206927364
11206934261
11206940365
11206946651
11206955624
11206961605
11206966427
11206973629
11206982174
11206990963
11206997066
11207004024
11207013058
11207019832
11207028682
11207032772
11207046444
11207055660
11207064388
11207072078
11207081966
11207087825
11207098201
11207104183
11207111263
11207122921
11207129268
11207138118
11207143978
11207150325
11207157649
11207162776
11207171504
11207179378
11207191402
11207198421
11207205013
11207209834
11207219051
11207223262
11207231197
11207237788
11207245845
11207251765
11207258784
11207267940
11207274470
11207282649
11207288386
11207295711
11207302424
11207308833
11207314937
11207325679
11207333980
11207340022
11207344722
11207353145
11207360408
11207365901
11207373896
11207378901
11207389338
11207397639
11207405391
11207412226
11207418818
11207427180
11207432734
11207438471
11207447627
11207456843
11207462275
11207470271
11207478205
11207487055
11207494074
11207504450
11207511713
11207521418
11207530939
11207538447
11207546931
11207550959
11207561701
11207568842
11207577448
11207583246
11207594050
11207601618
11207608820
11207616450
11207625849
11207631464
11207639338
11207644770
11207655573
11207662714
11207672052
11207678034
11207688044
11207696894
11207705255
11207712030
11207718439
11207726923
11207732294
11207738153
11207747736
11207756342
11207764093
11207770319
11207780939
11207785578
11207792413
11207802545
11207809076
11207816461
11207821100
11207830988
11207838495
11207847955
11207855890
11207861383
11207869867
11207876703
11207883356
11207891229
11207896600
11207907464
11207915399
11207921747
11207928521
11207938165
11207944818
11207953302
11207960626
11207968255
11207976983
11207986871
11207994317
11208003411
11208008783
11208017816
11208024652
11208030145
11208038201
11208044427
11208051934
11208058709
11208064446
11208070794
11208077020
11208082574
11208088921
11208094659
11208099603
11208104852
11208110528
11208116448
11208123040
11208128899
11208133599
11208139703
11208145318
11208151543
11208158562
11208164239
11208171380
11208175103
11208182976
11208188347
11208194451
11208199700
11208206658
11208211785
11208218987
11208224846
11208228814
11208234734
11208240838
11208249199
11208254143
11208258599
11208265007
11208269951
11208275078
11208281914
11208287712
11208293572
11208299675
11208306023
11208310601
11208316887
11208322808
