11357734596
11357738258
11357741553
11357744727
11357747840
11357751014
11357755408
11357760413
11357764503
11357768531
11357772315
11357775977
11357780250
11357784949
11357789710
11357794105
11357798560
11357804053
11357809669
11357814673
11357819861
11357823218
11357828711
11357834754
11357841102
11357847266
11357852454
11357859656
11357866004
11357872718
11357878638
11357887366
11357893409
11357899146
11357910071
11357916053
11357924597
11357933570
11357940650
11357947608
11357956458
11357963782
11357969824
11357979163
11357984839
11357991431
11357998999
11358004126
11358013220
11358019812
11358024207
11358033423
11358038733
11358045325
11358053076
11358059119
11358065710
11358070532
11358079443
11358084692
11358091589
11358096655
11358104101
11358110022
11358115576
11358122900
11358129736
11358135290
11358141760
11358148169
11358153174
11358160498
11358167273
11358175695
11358183630
11358189001
11358197058
11358204809
11358212194
11358218115
11358229956
11358238256
11358244299
11358249548
11358254858
11358261755
11358267065
11358275610
11358279394
11358287267
11358293371
11358299780
11358305883
11358313146
11358320593
11358326879
11358331335
11358339208
11358345495
11358351842
11358357519
11358363805
11358370885
11358377782
11358383764
11358390661
11358397436
11358402807
11358409154
11358416173
11358424291
11358430028
11358435582
11358440831
11358449132
11358455175
11358461766
11358468236
11358474462
11358480321
11358487645
11358494176
11358500524
11358506383
11358513219
11358520787
11358525914
11358534032
11358540258
11358546971
11358553563
11358559239
11358567906
11358574193
11358581029
11358589452
11358599767
11358605199
11358611729
11358617162
11358625768
11358632420
11358638768
11358644994
11358651097
11358657201
11358663731
11358670140
11358678197
11358684910
11358691380
11358695958
11358703282
11358709874
11358714696
11358722020
11358729344
11358736424
11358743626
11358752659
11358758397
11358767430
11358774815
11358781590
11358788487
11358795079
11358801976
11358810765
11358816441
11358826023
11358831211
11358841404
11358853306
11358862156
11358869114
11358877049
11358884312
11358888401
11358898960
11358905979
11358911045
11358917576
11358924290
11358931004
11358938084
11358945286
11358952854
11358960361
11358967380
11358972446
11358980381
11358985142
11358993137
11359001133
11359007969
11359012790
11359020847
11359027500
11359035251
11359044529
11359051548
11359058811
11359065097
11359073887
11359082126
11359087986
11359096958
11359107273
11359116062
11359122104
11359131870
11359139438
11359147617
11359154941
11359163669
11359171909
11359177768
11359185825
11359191379
11359198947
11359206516
11359213657
11359221286
11359226718
11359235629
11359244662
11359250217
11359257968
11359265536
11359271152
11359279819
11359286838
11359294711
11359303134
11359309848
11359316867
11359323764
11359330417
11359337497
11359341586
11359349582
11359355685
11359364962
11359371859
11359377963
11359383639
11359391330
11359397860
11359404513
11359412814
11359419772
11359426303
11359434725
11359440524
11359445834
11359455538
11359461093
11359468661
11359476534
11359485507
11359490206
11359498934
11359505404
11359512667
11359519076
11359526522
11359532259
11359542147
11359551363
11359564730
11359572665
11359579989
11359590609
11359592806
11359616671
11359624056
11359632601
11359640047
11359648958
11359654757
11359663546
11359671297
11359678499
11359685762
11359690889
11359699434
11359704500
11359712984
11359721956
11359727877
11359735628
11359741243
11359749666
11359755342
11359765169
11359771211
11359778291
11359785677
11359794344
11359801485
11359809969
11359815462
11359823457
11359829622
11359837129
11359844331
11359851228
11359860994
11359868501
11359875520
11359883760
11359890657
11359896882
11359902986
11359913911
11359920869
11359928987
11359936311
11359942048
11359950227
11359957673
11359965852
11359975923
11359981111
11359989717
11359997102
11360004182
11360010408
11360020845
11360029206
11360035981
11360044953
11360050385
11360059175
11360066804
11360074799
11360083711
11360090974
11360099397
11360105744
11360113313
11360119477
11360130280
11360137666
11360144624
11360151704
11360157685
11360167878
11360172822
11360182892
11360190522
11360197968
11360205414
11360211640
11360220917
11360228364
11360237275
11360250641
11360256318
11360263581
11360269440
11360278290
11360284394
11360292572
11360301544
11360308197
11360315766
11360322052
11360328888
11360336457
11360344147
11360352020
11360358246
11360366608
11360372894
11360380524
11360389618
11360397186
11360405670
11360410309
11360417694
11360426910
11360433136
11360441681
11360450043
11360457489
11360464264
11360470123
11360478973
11360484649
11360494781
11360502594
11360509796
11360518768
11360524444
11360533783
11360539154
11360549163
11360557953
11360565887
11360573639
11360580658
11360587677
11360596649
11360604705
11360615448
11360621856
11360629180
11360636749
11360642852
11360652252
11360661102
11360667999
11360674590
11360683257
11360691680
11360697784
11360709563
11360716888
11360724212
11360731719
11360739410
11360748077
11360755035
11360763396
11360770232
11360777984
11360787322
11360793548
11360802031
11360808318
11360817656
11360824981
11360834502
11360839385
11360848296
11360855681
11360860686
11360872649
11360883818
11360891997
11360900725
11360907561
11360915190
11360925749
11360932585
11360942412
11360950713
11360957610
11360964446
11360971648
11360977873
11360987151
11360995573
11361001921
11361009001
11361014128
11361022246
11361028227
11361038298
11361045500
11361052397
11361059477
11361064970
11361074492
11361080473
11361088347
11361097014
11361102202
11361109892
11361115690
11361125578
11361133574
11361141752
11361150908
11361156889
11361165190
11361171904
11361180021
11361185942
11361194303
11361203947
11361212065
11361219023
11361225370
11361232939
11361239652
11361249784
11361259001
11361266935
11361274992
11361281278
11361290311
11361297941
11361305326
11361312528
11361319975
11361328275
11361334867
11361342252
11361347501
11361358671
11361365446
11361374479
11361382291
11361389676
11361397123
11361403653
11361412626
11361421171
11361428983
11361438199
11361442533
11361452481
11361460233
11361467679
11361478177
11361487516
11361495145
11361503995
11361509061
11361519010
11361526151
11361534940
11361542996
11361548429
11361557828
11361564237
11361576199
11361586026
11361595670
11361604886
11361613065
11361622098
11361629605
11361636563
11361645230
11361653958
11361661404
11361668545
11361673978
11361684231
11361691983
11361697598
11361705594
11361713162
11361720669
11361730374
11361736111
11361744046
11361752591
11361761563
11361769192
11361776883
11361785611
11361793545
11361800564
11361807339
11361812405
11361821133
11361827358
11361837063
11361844204
11361851223
11361859707
11361866055
11361872585
11361880825
11361889248
11361896694
11361903713
11361911343
11361919094
11361926540
11361934658
11361940456
11361949306
11361957912
11361965237
11361972866
11361981411
11361990383
11361998379
11362006374
11362014492
11362021816
11362028469
11362034755
11362045925
11362054226
11362062587
11362069545
11362076442
11362084255
11362090297
11362102443
11362109767
11362118190
11362125209
11362133510
11362140590
11362148280
11362155177
11362162807
11362170497
11362179652
11362186916
11362193935
11362201442
11362212123
11362221217
11362231227
11362238917
11362245509
11362254298
11362261256
11362271144
11362278102
11362287440
11362294948
11362302089
11362309413
11362314845
11362324305
11362332301
11362339564
11362345179
11362353358
11362360499
11362367274
11362374049
11362383143
11362396083
11362401271
11362408778
11362417628
11362421900
11362433436
11362440150
11362446681
11362453883
11362461268
11362469080
11362473719
11362484095
11362491969
11362498804
11362505091
11362513392
11362520716
11362526820
11362535181
11362544825
11362551661
11362560511
11362569422
11362576380
11362588465
11362595545
11362604029
11362609461
11362618921
11362624170
11362631434
11362640284
11362649317
11362656824
11362662439
11362670801
11362678919
11362683435
11362694849
11362703638
11362710779
11362717859
11362725183
11362733423
11362741052
11362749109
11362757166
11362764612
11362770715
11362778467
11362787073
11362794458
11362802637
11362812646
11362818262
11362825891
11362833704
11362841699
11362847742
11362855615
11362863977
11362870996
11362873620
11362884118
11362892114
11362901880
11362911523
11362918847
11362928430
11362936670
11362943872
11362950830
11362961206
11362969628
11362978356
11362984460
11362991479
11362998620
11363007836
11363013024
11363024133
11363029138
11363038598
11363045556
11363052392
11363060326
11363066003
11363077783
11363085351
11363091821
11363099816
11363107751
11363113915
11363121056
11363128869
11363136376
11363145837
11363151086
11363160302
11363166161
11363175377
11363181725
11363190697
11363198754
11363206078
11363213158
11363221642
11363228783
11363236168
11363245324
11363254235
11363259667
11363268334
11363273461
11363284203
11363292321
11363300804
11363305870
11363314720
11363323509
11363329125
11363341210
11363347984
11363356407
11363362633
11363370140
11363376366
11363385216
11363392174
11363402672
11363410179
11363415916
11363425804
11363431724
11363440025
11363444420
11363455894
11363465233
11363472557
11363480430
11363487755
11363494529
11363501976
11363509605
11363519310
11363525413
11363532798
11363538475
11363546409
11363555076
11363563072
11363570579
11363585105
11363594383
11363602500
11363609153
11363619956
11363625755
11363634483
11363643333
11363650352
11363657493
11363665366
11363675010
11363683006
11363690147
11363698569
11363703696
11363711814
11363718894
11363725425
11363735618
11363741294
11363749961
11363756797
11363764609
11363771750
11363779441
11363787559
11363795371
11363803611
11363808432
11363816672
11363826438
11363834433
11363842490
11363848838
11363858420
11363863974
11363871482
11363880271
11363888877
11363896872
11363902609
11363911399
11363918051
11363925864
11363933920
11363941855
11363950217
11363957480
11363963583
11363969016
11363978232
11363985861
11363993674
11363999411
11364009421
11364017172
11364022665
11364032187
11364039389
11364046225
11364053976
11364062338
11364068930
11364074301
11364082419
11364088339
11364096823
11364107565
11364114889
11364121359
11364129965
11364137350
11364143637
11364155172
11364162191
11364170065
11364178671
11364185141
11364193441
11364200582
11364208334
11364216513
11364226583
11364233297
11364238180
11364246969
11364257772
11364266317
11364275777
11364287862
11364293417
11364302389
11364310628
11364317342
11364325338
11364330343
11364338094
11364346395
11364353231
11364360677
11364368123
11364376790
11364382894
11364391317
11364397786
11364403951
11364411519
11364418355
11364427144
11364433736
11364440206
11364447652
11364455587
11364462300
11364469503
11364477010
11364484761
11364492024
11364499227
11364505208
11364515462
11364522664
11364530721
11364538350
11364545979
11364552083
11364558492
11364568074
11364578084
11364585103
11364595235
11364602681
11364609822
11364616292
11364627156
11364636555
11364643941
11364651570
11364660481
11364668782
11364678120
11364683919
11364693562
11364700337
11364707783
11364714253
11364722065
11364727070
11364736653
11364745564
11364753193
11364761921
11364769062
11364775776
11364784626
11364793049
11364802754
11364809773
11364816975
11364824360
11364832722
11364840717
11364848530
11364857014
11364864155
11364870869
11364875935
11364885517
11364896259
11364905231
11364913166
11364920429
11364932880
11364941669
11364948505
11364956745
11364968952
11364976276
11364984882
11364991108
11364999531
11365006794
11365014423
11365023273
11365028278
11365035724
11365043659
11365051654
11365059406
11365068561
11365077289
11365082416
11365090900
11365097919
11365106159
11365112445
11365123676
11365131549
11365138629
11365146503
11365153400
11365161456
11365170673
11365175739
11365185321
11365192889
11365201556
11365208820
11365217242
11365221759
11365231158
11365239825
11365248309
11365255023
11365263385
11365269549
11365277545
11365285602
11365294024
11365299884
11365307757
11365313800
11365323809
11365331073
11365338580
11365346392
11365354754
11365362567
11365367938
11365376849
11365384906
11365391436
11365400836
11365408953
11365416888
11365422381
11365430560
11365436358
11365443438
11365451922
11365459490
11365465838
11365473528
11365480303
11365489581
11365498614
11365505633
11365512774
11365521868
11365527056
11365536028
11365542620
11365551592
11365559771
11365567705
11365574663
11365583025
11365590960
11365598223
11365610979
11365618853
11365626238
11365635393
11365644670
11365654985
11365665300
11365672014
11365682207
11365689592
11365697771
11365706011
11365714372
11365722673
11365729387
11365738115
11365746355
11365753679
11365762895
11365768938
11365781877
11365790300
11365797746
11365806230
11365811845
11365821367
11365828935
11365836809
11365845720
11365851274
11365861223
11365867387
11365875444
11365881791
11365891801
11365900407
11365907914
11365916703
11365922075
11365930742
11365938737
11365946489
11365955766
11365963334
11365971818
11365977677
11365986466
11365995683
11366003861
11366011003
11366018449
11366027482
11366034257
11366041886
11366047135
11366056046
11366065324
11366072404
11366080766
11366087968
11366095780
11366104325
11366110734
11366120377
11366127762
11366134782
11366141801
11366148575
11366157670
11366166337
11366175309
11366181840
11366190812
11366199967
11366205582
11366215592
11366225296
11366230301
11366237381
11366245560
11366255265
11366262101
11366271195
11366279557
11366287857
11366298172
11366303971
11366314102
11366320694
11366332657
11366338822
11366348282
11366355789
11366364212
11366372208
11366379288
11366388138
11366394302
11366403397
11366410477
11366418472
11366423843
11366433670
11366440506
11366449844
11366455643
11366463150
11366471145
11366478286
11366485611
11366497268
11366505630
11366516922
11366526199
11366536758
11366545486
11366553176
11366560012
11366567031
11366574600
11366581314
11366589126
11366594619
11366602859
11366608840
11366616409
11366622024
11366629348
11366635269
11366642349
11366650466
11366656020
11366664870
11366672927
11366677871
11366686904
11366690932
11366699660
11366708755
11366716628
11366723647
11366730178
11366737502
11366743545
11366751235
11366761672
11366769912
11366778457
11366786452
11366795730
11366802565
11366811110
11366817641
11366825454
11366833693
11366841201
11366847548
11366855971
11366874282
11366893080
11366903700
11366915053
11366925673
11366932692
11366939955
11366945448
11366952712
11366959731
11366967787
11366976942
11366986647
11366994643
11367003554
11367012160
11367019423
11367026015
11367034926
11367042982
11367049513
11367057142
11367065443
11367071730
11367079664
11367085890
11367094252
11367099806
11367106093
11367112623
11367120131
11367128675
11367134657
11367141920
11367149244
11367155592
11367162733
11367169447
11367176466
11367183485
11367191297
11367198255
11367206007
11367213453
11367221266
11367228529
11367233045
11367241163
11367246900
11367254591
11367260816
11367268873
11367277662
11367286268
11367291639
11367300062
11367306470
11367315076
11367323194
11367329114
11367336744
11367343397
11367350110
11367357374
11367365613
11367373182
11367381666
11367388807
11367396680
11367403821
11367409925
11367422132
11367431226
11367438794
11367446790
11367455579
11367461560
11367473523
11367480542
11367488233
11367495130
11367504468
11367509839
11367519116
11367526990
11367534253
11367541333
11367548474
11367556592
11367563245
11367569226
11367577222
11367586255
11367597607
11367604809
11367613965
11367622082
11367630017
11367638562
11367647473
11367653088
11367662365
11367670605
11367677990
11367686352
11367694897
11367701977
11367711438
11367719067
11367726818
11367734326
11367743603
11367750805
11367757397
11367767224
11367772778
11367780346
11367787792
11367797497
11367805798
11367813488
11367822094
11367827892
11367836987
11367845654
11367851879
11367860424
11367868786
11367877941
11367886120
11367893322
11367899059
11367907421
11367915050
11367922741
11367931835
11367940075
11367946483
11367955517
11367962963
11367972667
11367979625
11367988781
11367994640
11368003185
11368009349
11368017711
11368025585
11368033031
11368042675
11368051036
11368057628
11368065563
11368072826
11368079479
11368086742
11368094982
11368101451
11368109203
11368117137
11368124889
11368131603
11368140025
11368147594
11368155284
11368162791
11368169994
11368176402
11368187999
11368195689
11368202769
11368209788
11368217235
11368224132
11368232982
11368241710
11368247874
11368257762
11368264842
11368272654
11368279673
11368289073
11368298289
11368310191
11368318309
11368327891
11368334605
11368343821
11368352000
11368361949
11368371043
11368378062
11368385569
11368391978
11368400523
11368408763
11368416209
11368424754
11368431223
11368439280
11368445872
11368455759
11368462290
11368472727
11368481638
11368487315
11368497507
11368506296
11368514536
11368523386
11368530771
11368538950
11368546030
11368554087
11368561960
11368570444
11368577646
11368585459
11368593332
11368600596
11368607554
11368615122
11368623423
11368631662
11368639841
11368648447
11368653208
11368661936
11368670114
11368675791
11368686167
11368694284
11368701486
11368711069
11368716196
11368725107
11368731394
11368743051
11368751596
11368758920
11368764902
11368773202
11368781808
11368785776
11368796152
11368805124
11368812326
11368821847
11368827707
11368836618
11368841073
11368851510
11368859872
11368868051
11368875314
11368880929
11368887887
11368894540
11368904184
11368913827
11368922494
11368929574
11368935739
11368943917
11368951242
11368959725
11368967843
11368974008
11368983468
11368991647
11369000070
11369010201
11369019357
11369026498
11369039193
11369047067
11369053658
11369061715
11369069039
11369079232
11369087350
11369094796
11369102608
11369108407
11369117440
11369125191
11369132393
11369141183
11369148751
11369157235
11369163460
11369171517
11369177865
11369186348
11369195748
11369202095
11369211678
11369216988
11369225289
11369236214
11369244454
11369251839
11369258553
11369265328
11369275521
11369279366
11369290474
11369298653
11369306343
11369314034
11369320870
11369329170
11369338020
11369346260
11369354988
11369359932
11369367317
11369375435
11369383980
11369391731
11369400337
11369409309
11369414497
11369422432
11369429268
11369437263
11369444343
11369453865
11369462410
11369467720
11369476997
11369484260
11369491401
11369496772
11369505928
11369516121
11369522590
11369529914
11369538398
11369544685
11369553901
11369560310
11369569526
11369575569
11369585639
11369592170
11369599494
11369609992
11369616340
11369627204
11369633064
11369640571
11369648383
11369656074
11369664436
11369672614
11369687568
11369696784
11369704230
11369714362
11369723395
11369731757
11369740973
11369746833
11369757819
11369764594
11369770636
11369775275
11369785956
11369795234
11369803168
11369810553
11369817817
11369824713
11369832160
11369839423
11369848212
11369854987
11369861640
11369870673
11369876227
11369883856
11369892035
11369900458
11369907904
11369915900
11369923834
11369931769
11369941290
11369947455
11369956976
11369964789
11369969916
11369980719
11369986761
11369996161
11370003973
11370008978
11370014044
11370023016
11370030646
11370037909
11370050177
11370058722
11370066351
11370075018
11370080877
11370090094
11370097357
11370105902
11370112371
11370120489
11370129400
11370136541
11370143438
11370150640
11370159796
11370169073
11370175176
11370184088
11370190618
11370199346
11370208379
11370215215
11370222723
11370232671
11370240972
11370249578
11370257818
11370264532
11370273687
11370280828
11370289190
11370297735
11370305181
11370310430
11370319646
11370328679
11370335637
11370343755
11370353582
11370363591
11370371038
11370380620
11370389898
11370396672
11370406865
11370416021
11370423711
11370430242
11370440679
11370449346
11370456731
11370466008
11370472966
11370481023
11370486211
11370499150
11370505986
11370514531
11370522160
11370527409
11370535588
11370545598
11370555363
11370564091
11370568669
11370579411
11370583928
11370591801
11370603398
11370609013
11370618535
11370626164
11370634892
11370642399
11370651066
11370659672
11370667363
11370675053
11370683354
11370691166
11370697636
11370703312
11370715275
11370722966
11370728947
11370744084
11370752751
11370764408
11370771610
11370779606
11370787724
11370793461
11370802677
11370809635
11370816898
11370823124
11370832584
11370841557
11370849125
11370857304
11370865055
11370873539
11370882755
11370889896
11370898868
11370905277
11370913456
11370922062
11370927250
11370937870
11370947086
11370953922
11370962528
11370969974
11370977787
11370985904
11370994388
11371001773
11371010562
11371017215
11371023929
11371031375
11371039615
11371047733
11371059024
11371070560
11371079349
11371087406
11371093509
11371101993
11371110660
11371120975
11371130069
11371137820
11371143253
11371151187
11371161075
11371168338
11371176456
11371181888
11371190860
11371198978
11371206973
11371215518
11371223819
11371231631
11371240848
11371248477
11371254214
11371261966
11371268252
11371276736
11371285159
11371289798
11371298709
11371306704
11371314090
11371323367
11371331423
11371340335
11371346865
11371354800
11371362307
11371369387
11371377383
11371383425
11371390872
11371398440
11371406374
11371414980
11371421572
11371431887
11371436892
11371445132
11371452395
11371459658
11371467776
11371472475
11371483095
11371492312
11371499453
11371504153
11371512148
11371519228
11371527163
11371535280
11371543459
11371552492
11371560061
11371567446
11371575441
11371581179
11371592897
11371600222
11371607851
11371614931
11371621950
11371630861
11371637148
11371646547
11371657228
11371663027
11371672121
11371677797
11371687013
11371694704
11371703676
11371711366
11371716371
11371724184
11371733217
11371743898
11371751405
11371760927
11371770570
11371777406
11371787843
11371796693
11371803834
11371809755
11371820070
11371830324
11371838014
11371844606
11371852907
11371859193
11371867067
11371876344
11371882814
11371890626
11371899110
11371905580
11371913148
11371918946
11371928102
11371937867
11371943849
11371953858
11371960389
11371967713
11371976747
11371984010
11371992616
11372000611
11372008363
11372015443
11372023072
11372030946
11372039979
11372047852
11372053407
11372061402
11372068482
11372076661
11372086549
11372092469
11372103455
11372108155
11372117859
11372125550
11372131104
11372140076
11372151429
11372159424
11372168274
11372179261
11372186768
11372193848
11372205384
11372210083
11372218018
11372225769
11372232910
11372239807
11372247559
11372255738
11372263123
11372271301
11372279053
11372286621
11372294434
11372302796
11372310974
11372319580
11372326050
11372334168
11372341125
11372349121
11372357178
11372365723
11372373779
11372381531
11372388977
11372394836
11372403198
11372410034
11372419250
11372430053
11372440063
11372449157
11372460266
11372468383
11372477417
11372485717
11372492797
11372500488
11372508972
11372515747
11372524169
11372532897
11372542419
11372554565
11372564697
11372575012
11372580993
11372590209
11372598144
11372606323
11372616088
11372620971
11372630065
11372636291
11372645202
11372654662
11372659850
11372668761
11372676940
11372684203
11372690490
11372701903
11372711120
11372718383
11372725341
11372731872
11372740172
11372747863
11372755126
11372763671
11372770812
11372779052
11372787352
11372796508
11372805175
11372813903
11372821288
11372825804
11372834532
11372843016
11372849181
11372860594
11372867613
11372877623
11372882933
11372891966
11372899107
11372904845
11372916380
11372924559
11372931883
11372939513
11372946776
11372954466
11372960448
11372971922
11372979735
11372987303
11372992857
11373002135
11373010618
11373016661
11373025633
11373033934
11373040770
11373047423
11373055357
11373062498
11373068174
11373078001
11373087461
11373094419
11373098936
11373106993
11373116636
11373122801
11373133909
11373143492
11373151548
11373157774
11373166990
11373173643
11373183897
11373193968
11373201414
11373210081
11373216550
11373226987
11373233030
11373242429
11373251646
11373259458
11373267515
11373274045
11373282041
11373291196
11373298826
11373306089
11373315061
11373322507
11373328184
11373337522
11373343931
11373352659
11373359006
11373370542
11373378171
11373386838
11373393491
11373400205
11373408811
11373417295
11373426450
11373433652
11373440427
11373447202
11373454282
11373462033
11373470395
11373478635
11373488400
11373495908
11373504392
11373511716
11373519955
11373527036
11373533261
11373541501
11373551877
11373559384
11373566159
11373571896
11373583371
11373590878
11373598324
11373605282
11373613522
11373621335
11373626706
11373635251
11373645321
11373651120
11373658322
11373666134
11373674801
11373681027
11373691220
11373698361
11373707028
11373714474
11373721981
11373730221
11373736508
11373745358
11373754940
11373761471
11373768978
11373777645
11373784420
11373791866
11373801937
11373809567
11373819027
11373827389
11373834713
11373845760
11373851925
11373862972
11373873104
11373881039
11373887142
11373895382
11373902828
11373907528
11373917293
11373927059
11373934566
11373941463
11373948116
11373956051
11373963436
11373972103
11373979793
11373987117
11373994808
11374001400
11374011470
11374017025
11374025875
11374034542
11374042354
11374049861
11374056331
11374064876
11374073177
11374080562
11374090511
11374099117
11374105891
11374112605
11374120418
11374130122
11374139461
11374146236
11374152766
11374161067
11374169490
11374174800
11374184382
11374193660
11374201167
11374208674
11374216426
11374223567
11374230098
11374241206
11374248958
11374258052
11374263423
11374271418
11374279902
11374286128
11374295222
11374302790
11374311763
11374318598
11374326655
11374335139
11374341487
11374352961
11374361201
11374368830
11374375544
11374381709
11374389643
11374395869
11374405268
11374414607
11374422236
11374428584
11374434809
11374442622
11374449946
11374459772
11374468745
11374475153
11374484675
11374491205
11374499262
11374507197
11374515314
11374525385
11374533808
11374540583
11374547663
11374553095
11374561640
11374570368
11374577509
11374587336
11374591913
11374601191
11374611689
11374620355
11374627741
11374637140
11374642206
11374649957
11374658197
11374667108
11374674677
11374682794
11374691583
11374699030
11374705194
11374713678
11374721429
11374727838
11374738763
11374747064
11374755182
11374763055
11374770380
11374778985
11374784112
11374792718
11374800958
11374810113
11374817499
11374824640
11374832635
11374841668
11374848443
11374854059
11374861200
11374871026
11374879205
11374886285
11374893609
11374900079
11374909295
11374916925
11374924737
11374933099
11374940423
11374950067
11374957086
11374964654
11374973504
11374981011
11374987176
11374992852
11375003045
11375011041
11375019769
11375028191
11375034722
11375042779
11375050957
11375060845
11375068230
11375077202
11375085930
11375090874
11375099053
11375106988
11375115349
11375121331
11375130242
11375138237
11375143181
11375152947
11375158928
11375167595
11375184502
11375192864
11375199211
11375209709
11375215996
11375225456
11375231438
11375241448
11375248467
11375256890
11375261589
11375269768
11375277153
11375284477
11375294060
11375300285
11375306633
11375316765
11375321342
11375334038
11375342277
11375348564
11375355827
11375365349
11375372063
11375379387
11375387932
11375397026
11375403740
11375412346
11375420402
11375427849
11375436882
11375444694
11375453910
11375461601
11375468071
11375475517
11375484245
11375490654
11375500846
11375507072
11375516960
11375522758
11375531425
11375538261
11375544547
11375554679
11375563468
11375571647
11375578727
11375586479
11375596061
11375603873
11375612479
11375618461
11375626823
11375635551
11375643973
11375650626
11375657950
11375666251
11375676566
11375682242
11375690482
11375697867
11375705741
11375711295
11375723136
11375732901
11375739493
11375748526
11375753043
11375762198
11375770011
11375778067
11375787101
11375793387
11375802848
11375810172
11375818167
11375827323
11375834281
11375842520
11375849722
11375856375
11375868094
11375875540
11375885916
11375893851
11375902335
11375909781
11375918326
11375925772
11375934378
11375938895
11375949210
11375958365
11375964529
11375974478
11375981985
11375988821
11376000052
11376006399
11376016348
11376023489
11376030203
11376039236
11376045034
11376053762
11376060965
11376069876
11376076651
11376085073
11376092642
11376100454
11376107351
11376116079
11376124136
11376135244
11376140615
11376149282
11376157278
11376163320
11376172537
11376180776
11376188650
11376193960
11376203420
11376209219
11376219595
11376226553
11376235586
11376243459
11376248891
11376256399
11376263845
11376271047
11376277517
11376284902
11376293386
11376298818
11376308706
11376314382
11376323842
11376333730
11376341359
11376348867
11376356984
11376365407
11376371206
11376381581
11376391347
11376398671
11376406056
11376411611
11376420339
11376426259
11376435903
11376443593
11376451283
11376458547
11376465993
11376473317
11376478932
11376490956
11376498219
11376505971
11376514272
11376519276
11376526540
11376533925
11376542714
11376553334
11376563466
11376571522
11376580983
11376587636
11376601674
11376609181
11376614918
11376629139
11376639637
11376646901
11376655079
11376663441
11376671620
11376680897
11376687794
11376694081
11376701283
11376708790
11376718251
11376725880
11376735340
11376741627
11376750416
11376758351
11376766041
11376776783
11376783619
11376792225
11376801746
11376807789
11376816090
11376822010
11376833546
11376841846
11376849720
11376858021
11376863392
11376872120
11376882984
11376891834
11376897815
11376906849
11376914539
11376922657
11376930164
11376934070
11376944141
11376953907
11376960987
11376968250
11376974475
11376983570
11376991199
11377000110
11377009265
11377015430
11377024097
11377032581
11377039295
11377044666
11377052783
11377060596
11377067859
11377076282
11377084644
11377090503
11377098010
11377107227
11377113879
11377121692
11377129871
11377136951
11377144946
11377150806
11377161120
11377169055
11377178271
11377188037
11377195666
11377204272
11377212939
11377219470
11377226672
11377234057
11377243457
11377252307
11377259631
11377271838
11377281787
11377289477
11377297595
11377307360
11377315417
11377321337
11377331896
11377340746
11377347216
11377353991
11377361620
11377370104
11377377978
11377387621
11377396288
11377404284
11377411913
11377418566
11377425951
11377434191
11377442248
11377449145
11377458300
11377464831
11377473131
11377480211
11377486498
11377497301
11377502550
11377511889
11377519030
11377527758
11377536425
11377541857
11377550951
11377558336
11377565416
11377575060
11377580553
11377589098
11377596483
11377604479
11377612902
11377618822
11377627733
11377633592
11377643724
11377647936
11377659044
11377666185
11377674486
11377682481
11377688158
11377698351
11377702745
11377714098
11377722032
11377729784
11377736986
11377744798
11377753770
11377760240
11377769761
11377778734
11377783861
11377793382
11377800645
11377808824
11377817430
11377824571
11377833482
11377839891
11377848497
11377855577
11377862962
11377871568
11377879258
11377888780
11377896043
11377903611
11377909654
11377919114
11377926560
11377934556
11377942185
11377949204
11377959580
11377966844
11377976121
11377983323
11377993455
11378001084
11378012193
11378017258
11378025803
11378035691
11378041123
11378051072
11378059251
11378067673
11378075059
11378082993
11378089341
11378097031
11378107102
11378114060
11378122605
11378129685
11378135361
11378144700
11378150315
11378159470
11378166733
11378174729
11378181382
11378188950
11378197434
11378203659
11378213364
11378218430
11378228440
11378236130
11378243149
11378250229
11378255112
11378265488
11378271469
11378280197
11378286911
11378296433
11378302902
11378310471
11378319199
11378326034
11378335495
11378342941
11378349960
11378358261
11378363205
11378373581
11378379989
11378388778
11378395614
11378404953
11378413376
11378421432
11378429489
11378435836
11378443649
11378452316
11378459762
11378464889
11378472152
11378484542
11378491317
11378500106
11378507980
11378516525
11378525497
11378536605
11378543197
11378550948
11378558578
11378566329
11378574691
11378582565
11378588973
11378601058
11378609176
11378616805
11378625777
11378632003
11378642196
11378652267
11378661605
11378670028
11378678451
11378687484
11378695418
11378703719
11378712142
11378719954
11378727889
11378735823
11378743575
11378750045
11378759444
11378771895
11378780257
11378790267
11378797225
11378803450
11378811690
11378819319
11378827925
11378835188
11378842207
11378849104
11378857832
11378863204
11378877058
11378882918
11378893050
11378900374
11378907942
11378914656
11378921492
11378928572
11378939070
11378946944
11378960982
11378968916
11378975325
11378984358
11378993025
11379003157
11379012068
11379018416
11379028120
11379034773
11379042280
11379049055
11379057600
11379065412
11379072798
11379078291
11379087873
11379095320
11379102522
11379109236
11379118269
11379125532
11379132673
11379139936
11379147627
11379154829
11379162275
11379168440
11379178999
11379185468
11379194196
11379201887
11379209272
11379215314
11379223310
11379230939
11379236982
11379245222
11379253400
11379261152
11379268659
11379275312
11379282880
11379289167
11379295698
11379306196
11379313154
11379320356
11379327253
11379336286
11379343061
11379350751
11379356733
11379365949
11379372113
11379377668
11379385846
11379398358
11379405377
11379414960
11379424359
11379432965
11379442914
11379450543
11379458661
11379465619
11379473370
11379481976
11379487958
11379496014
11379503705
11379512311
11379518170
11379526898
11379532330
11379541180
11379549664
11379557965
11379565777
11379571454
11379578656
11379586529
11379593731
11379600567
11379607037
11379615826
11379622601
11379630108
11379638348
11379645611
11379651410
11379656720
11379666546
11379674969
11379683148
11379692059
11379698651
11379708782
11379715985
11379727215
11379735027
11379744488
11379751385
11379759930
11379765667
11379774090
11379779949
11379788006
11379795696
11379801739
11379810833
11379818829
11379824688
11379832134
11379839886
11379844463
11379852886
11379859417
11379868816
11379876629
11379884136
11379892437
11379899700
11379905559
11379913982
11379919902
11379927654
11379936321
11379944316
11379950115
11379957805
11379965068
11379972515
11379978801
11379985332
11379996562
11380004314
11380010356
11380016887
11380025737
11380032390
11380041606
11380048503
11380058513
11380066325
11380072917
11380079814
11380088298
11380095744
11380103069
11380108501
11380118571
11380127544
11380133586
11380141704
11380149272
11380156413
11380167766
11380178630
11380186320
11380195292
11380201762
11380210795
11380218364
11380225871
11380234599
11380240153
11380248271
11380255839
11380265116
11380274333
11380282084
11380290263
11380298381
11380305827
11380314860
11380322001
11380326396
11380336649
11380345805
11380353678
11380363017
11380369669
11380375407
11380382304
11380392191
11380400309
11380408060
11380415263
11380421427
11380430094
11380436747
11380443400
11380447977
11380460917
11380468546
11380475443
11380484232
11380492594
11380497477
11380508646
11380517801
11380523966
11380530497
11380539835
11380545084
11380554422
11380560953
11380568827
11380577860
11380584329
11380593546
11380598368
11380606668
11380615579
11380623941
11380632791
11380638895
11380647989
11380652933
11380661173
11380671304
11380680399
11380688333
11380695352
11380703409
11380708841
11380717325
11380725076
11380733865
11380740884
11380747659
11380755533
11380762979
11380770547
11380781045
11380789102
11380796792
11380805764
11380810647
11380819009
11380824929
11380834329
11380840921
11380849221
11380858987
11380869546
11380876565
11380885964
11380896157
11380902993
11380916421
11380923745
11380929666
11380938149
11380945168
11380953164
11380962502
11380969827
11380979165
11380985696
11380992715
11380998513
11381008645
11381019082
11381025246
11381034096
11381041115
11381047951
11381057473
11381065651
11381073403
11381083352
11381091286
11381099709
11381105080
11381115517
11381122170
11381131203
11381138466
11381146523
11381156288
11381162575
11381173378
11381181313
11381188637
11381195107
11381203530
11381211708
11381219338
11381227089
11381237465
11381244545
11381251442
11381258217
11381264198
11381271156
11381280800
11381287514
11381296669
11381304054
11381313454
11381322426
11381328895
11381338112
11381347267
11381354896
11381361610
11381369362
11381378029
11381385536
11381393715
11381403358
11381410255
11381417946
11381423683
11381432838
11381440651
11381447792
11381456153
11381463050
11381469642
11381478065
11381486488
11381494056
11381503883
11381512184
11381519813
11381528419
11381534278
11381544166
11381549171
11381561683
11381571937
11381579383
11381588844
11381594764
11381605689
11381612403
11381623206
11381630714
11381637672
11381645301
11381652564
11381659766
11381665381
11381677222
11381684974
11381692786
11381699927
11381705787
11381715247
11381722754
11381731177
11381738501
11381745826
11381753150
11381760474
11381768775
11381776953
11381784766
11381793555
11381801306
11381810584
11381816382
11381828467
11381837622
11381843237
11381853186
11381859534
11381867773
11381876135
11381884070
11381891760
11381901770
11381908911
11381916052
11381922827
11381932410
11381937781
11381947058
11381954443
11381962256
11381969275
11381976660
11381983740
11381991613
11382001989
11382009802
11382017614
11382024389
11382032751
11382040441
11382048132
11382057653
11382064978
11382074560
11382081701
11382089269
11382096472
11382102331
11382111181
11382118810
11382128637
11382134863
11382142736
11382149328
11382157262
11382164709
11382173498
11382180090
11382187231
11382196569
11382203344
11382210241
11382219030
11382226049
11382234045
11382243444
11382251928
11382262914
11382271642
11382280919
11382292089
11382300267
11382306798
11382316137
11382322362
11382328588
11382337438
11382344762
11382351354
11382359899
11382369542
11382375951
11382380040
11382391942
11382401952
11382408055
11382416783
11382423741
11382432103
11382439122
11382449925
11382456273
11382465184
11382473241
11382480565
11382488683
11382496983
11382504735
11382513280
11382520360
11382528966
11382539036
11382548436
11382557164
11382565159
11382572423
11382579808
11382587925
11382597081
11382603001
11382612462
11382620091
11382626988
11382634373
11382642247
11382651707
11382655918
11382668736
11382678623
11382685887
11382694798
11382703526
11382710545
11382716648
11382723789
11382733067
11382739414
11382749363
11382757298
11382764744
11382772739
11382780369
11382788364
11382794712
11382802341
11382808933
11382818577
11382827305
11382835117
11382844639
11382852085
11382860447
11382870640
11382877048
11382886936
11382895054
11382902378
11382908847
11382916904
11382924778
11382934665
11382943698
11382950290
11382958042
11382967563
11382972263
11382978855
11382983249
11382990268
11382996250
11383000156
11383005832
11383010593
11383015354
11383020969
11383026401
11383032199
11383036960
11383042636
11383047458
11383054050
11383058444
11383064243
11383068759
11383075290
11383079623
11383085788
11383091342
11383095554
11383101352
11383106845
11383112216
11383115695
11383125094
11383129306
11383135654
11383140597
11383146029
11383150729
11383156650
11383161227
11383167941
11383172702
11383177340
11383184482
11383190097
11383194369
11383198764
11383204745
11383210543
11383217929
11383223727
11383228854
11383234286
11383239535
11383244357
11383249423
11383254428
11383261996
11383272921
11383277987
11383283969
11383288790
11383294161
11383298922
11383306918
11383311862
11383318270
11383323580
11383328463
11383332613
11383339266
11383343539
11383350741
11383355502
11383361910
11383367709
11383371859
11383377169
11383382723
11383387850
11383392733
11383400118
11383406527
11383412325
11383416720
11383422884
11383426913
11383432101
11383435335
11383444063
11383451632
11383456331
11383460482
11383465914
11383469881
11383475741
11383480623
11383486727
11383493929
11383501497
11383506563
11383513826
11383521029
11383524874
11383534395
11383540010
11383544222
11383551607
11383557222
11383561373
11383566561
11383570894
11383577425
11383582918
11383588472
11383592806
11383599642
11383603853
11383610323
11383613802
11383622225
11383626680
11383632600
11383638155
11383642549
11383647554
11383654085
11383658907
11383665987
11383673006
11383678133
11383681490
11383687288
11383693574
11383697786
11383703889
11383708589
11383714815
11383720613
11383725252
11383731172
11383735506
11383741060
11383746309
11383752412
11383759126
11383765046
11383770662
11383773958
11383780061
11383785005
11383791536
11383796235
11383801301
11383807893
11383813386
11383818025
11383824006
11383829499
11383834016
11383839814
11383844209
11383851838
11383856843
11383861848
11383867402
11383872041
11383876924
11383883271
11383888093
11383894563
11383900300
11383905549
11383910798
11383916902
11383921784
11383926179
11383931916
11383938569
11383944550
11383950410
11383954865
11383960847
11383965791
11383971711
11383976899
11383982270
11383989899
11383995393
11384002289
11384008027
11384012177
11384018403
11384022980
11384029572
11384034394
11384042328
11384046784
11384053925
11384059907
11384067353
11384073212
11384080536
11384087250
11384092377
11384106293
11384113984
11384125763
11384134064
11384141632
11384150177
11384155609
11384165070
11384171723
11384179291
11384188263
11384194428
11384200836
11384208405
11384213471
11384219391
11384227326
11384232758
11384241608
11384246918
11384253998
11384259796
11384263458
11384269379
11384274384
11384279755
11384285858
11384291351
11384296539
11384301239
11384307526
11384312713
11384317169
11384321197
11384328583
11384333160
11384340606
11384344879
11384351043
11384356476
11384361053
11384365997
11384372406
11384377472
11384383880
11384389251
11384395111
11384399749
11384405548
11384409881
11384415985
11384421783
11384427093
11384433258
11384437652
11384444244
11384448944
11384455657
11384462432
11384467987
11384474029
11384482696
11384486358
11384492828
11384497589
11384503387
11384508270
11384514800
11384519012
11384523467
11384530669
11384535369
11384541045
11384547942
11384552215
11384557830
11384563201
11384569854
11384577117
11384582854
11384587981
11384593536
11384598662
11384603728
11384609771
11384615020
11384626128
11384633758
11384640655
11384645110
11384649016
11384655974
11384660125
11384666900
11384671111
11384677825
11384683745
11384689299
11384692717
11384699065
11384704009
11384709685
11384714446
11384720244
11384726775
11384732146
11384736602
11384742827
11384748137
11384753508
11384761443
11384766143
11384775542
11384782683
11384787200
11384794524
11384798979
11384803557
11384809355
11384815703
11384820158
11384824736
11384830351
11384834807
11384840422
11384845122
11384849516
11384858366
11384862761
11384868254
11384874663
11384879912
11384886626
11384892668
11384897673
11384905363
11384910734
11384915129
11384920866
11384926298
11384930693
11384934599
11384941862
11384948210
11384954680
11384959013
11384964079
11384969755
11384975004
11384980375
11384986052
11384989775
11384997465
11385002531
11385008329
11385012785
11385020048
11385025236
11385031218
11385036344
11385042875
11385048429
11385053312
11385058988
11385063139
11385069303
11385072538
11385079618
11385085356
11385092130
11385095732
11385102140
11385107450
11385113432
11385118131
11385124418
11385129301
11385136320
11385141447
11385148100
11385152921
11385160612
11385165922
11385171171
11385180265
11385186307
11385194486
11385200040
11385208829
11385216154
11385219572
11385228605
11385237394
11385244108
11385251859
11385261258
11385268644
11385275541
11385284024
11385289518
11385296598
11385303434
11385309964
11385318814
11385326810
11385335538
11385343717
11385347318
11385356473
11385365384
11385371610
11385378446
11385384915
11385394681
11385400662
11385412564
11385418546
11385428738
11385438260
11385444913
11385452176
11385459378
11385462674
11385471646
11385477566
11385488675
11385491360
11385500210
11385505337
11385514126
11385519131
11385525479
11385529873
11385538540
11385542569
11385548672
11385555081
11385560574
11385566189
11385570645
11385574795
11385582547
11385587002
11385592617
11385598111
11385604214
11385610073
11385615017
11385620144
11385630215
11385636074
11385641384
11385646755
11385651577
11385656521
11385660916
11385668972
11385675259
11385683193
11385688381
11385693813
11385699612
11385705044
11385710171
11385715603
11385722439
11385730801
11385736660
11385742092
11385747097
11385751980
11385758572
11385763027
11385769131
11385775845
11385782436
11385791408
11385797207
11385804287
11385811611
11385815945
11385822536
11385827419
11385835354
11385841152
11385847072
11385852260
11385856960
11385865200
11385870022
11385876247
11385881191
11385890102
11385894558
11385900356
11385910122
11385916225
11385922084
11385927883
11385929714
11385937404
11385943630
11385948268
11385955593
11385960292
11385964809
11385972682
11385977504
11385984218
11385990932
11385996059
11386001247
11386007655
11386012904
11386018337
11386025295
11386027919
11386035732
11386043544
11386048549
11386055385
11386063625
11386073329
11386081508
11386084254
11386095546
11386100551
11386109035
11386113307
11386120570
11386124660
11386130580
11386133571
11386143092
11386147670
11386154017
11386157374
11386164821
11386168300
11386174281
11386179103
11386186549
11386192286
11386197291
11386202174
11386207118
11386211390
11386217799
11386222193
11386230555
11386237208
11386242213
11386246669
11386252528
11386256861
11386262477
11386267970
11386273707
11386279322
11386284998
11386288966
11386294154
11386300990
11386306666
11386312159
11386317103
11386325465
11386330347
11386334925
11386342616
11386350306
11386356348
11386361842
11386370814
11386376734
11386386011
11386392115
11386400110
11386405054
11386412562
11386419642
11386426295
11386435450
11386440882
11386451868
11386459498
11386467371
11386476099
11386481470
11386490870
11386495691
11386502100
11386512171
11386517603
11386528467
11386536646
11386540064
11386550684
11386555872
11386565271
11386570276
11386576502
11386585169
11386590296
11386601282
11386609277
11386617273
11386624170
11386631433
11386637231
11386642236
11386649683
11386656335
11386663599
11386675256
11386681726
11386687524
11386694726
11386703943
11386710718
11386717492
11386724573
11386732141
11386740198
11386747705
11386754113
11386761133
11386768884
11386775903
11386782983
11386789453
11386798913
11386804284
11386819116
11386825219
11386836511
11386844628
11386855248
11386861169
11386868066
11386874902
11386882836
11386889611
11386896813
11386903161
11386906884
11386913720
11386919335
11386923730
11386928552
11386936913
11386942345
11386948571
11386953393
11386958947
11386963708
11386969018
11386973412
11386979638
11386985558
11386987694
11386995995
11387000146
11387006737
11387010033
11387016015
11387020775
11387029381
11387035058
11387040368
11387045617
11387050255
11387055077
11387061669
11387067711
11387069970
11387081932
11387086815
11387092614
11387098046
11387104149
11387107933
11387114891
11387120018
11387128014
11387133812
11387138573
11387142906
11387148522
11387154869
11387159203
11387165062
11387172325
11387179772
11387183861
11387190331
11387195580
11387201439
11387206810
11387213707
11387218407
11387225182
11387231590
11387240013
11387244774
11387249351
11387256248
11387260338
11387266746
11387271873
11387278648
11387283897
11387290611
11387295860
11387300621
11387306724
11387311302
11387317589
11387323204
11387329796
11387334434
11387341270
11387344871
11387352134
11387355980
11387363243
11387368248
11387376365
11387382042
11387387107
11387392234
11387398765
11387404686
11387411033
11387415794
11387421226
11387427818
11387438133
11387443992
11387449668
11387459556
11387467796
11387477012
11387487022
11387496116
11387504844
11387512901
11387520774
11387526633
11387535606
11387543906
11387549949
11387555869
11387560569
11387571799
11387579917
11387586204
11387592429
11387598289
11387603416
11387610068
11387615012
11387619651
11387625998
11387630332
11387636130
11387641684
11387647422
11387650779
11387657981
11387661399
11387670493
11387676047
11387680564
11387685386
11387691916
11387696189
11387702597
11387706870
11387713095
11387719870
11387724692
11387728903
11387732871
11387740744
11387744956
11387750754
11387756980
11387764792
11387768881
11387775412
11387780844
11387785910
11387790549
11387796958
11387803122
11387809897
11387814719
11387821555
11387826559
11387833151
11387838339
11387846457
11387851584
11387856894
11387865195
11387870810
11387876913
11387881491
11387888754
11387893454
11387898093
11387904440
11387911215
11387917624
11387921408
11387929342
11387933310
11387939901
11387944906
11387950949
11387956320
11387964682
11387970480
11387975363
11387979635
11387986227
11387990988
11387997885
11388002645
11388011068
11388017294
11388023825
11388028158
11388031515
11388038961
11388044577
11388049887
11388053549
11388061178
11388066915
11388074117
11388079733
11388085470
11388090353
11388096578
11388101217
11388108053
11388115133
11388121236
11388128744
11388136251
11388141439
11388147115
11388153463
11388158895
11388164693
11388172018
11388177267
11388181966
11388186849
11388193075
11388197164
11388202901
11388207540
11388214864
11388218587
11388226217
11388231710
11388236471
11388241903
11388246297
11388250997
11388259603
11388265462
11388269979
11388274862
11388281820
11388287923
11388294271
11388300374
11388307332
11388313497
11388317830
11388323018
11388330159
11388335530
11388341023
11388345723
11388351155
11388359517
11388365132
11388372212
11388377461
11388385945
11388392598
11388397786
11388406392
11388411214
11388417439
11388423543
11388428975
11388435262
11388439717
11388444966
11388451436
11388460347
11388466511
11388472188
11388477559
11388482442
11388487202
11388493611
11388499959
11388505574
11388511921
11388517415
11388523152
11388529194
11388534260
11388539753
11388546772
11388552083
11388558491
11388564228
11388569233
11388575703
11388580769
11388588215
11388593708
11388598896
11388604267
11388612934
11388619160
11388624714
11388631428
11388637287
11388642048
11388648396
11388653156
11388660969
11388667744
11388672810
11388679402
11388683735
11388689961
11388696064
11388700947
11388706196
11388714314
11388721699
11388727741
11388732624
11388738667
11388743793
11388752827
11388759968
11388768024
11388774982
11388781757
11388786396
11388790302
11388796528
11388802448
11388807087
11388812946
11388818989
11388824299
11388829303
11388834491
11388839802
11388845173
11388849872
11388854999
11388862507
11388867817
11388872760
11388876972
11388882709
11388887226
11388893024
11388898822
11388903400
11388912189
11388916584
11388922382
11388926715
11388933429
11388937641
11388943866
11388947284
11388953876
11388959857
11388965412
11388970294
11388974750
11388981281
11388986286
11388990619
11388999164
11389004596
11389009113
11389014850
11389019611
11389025897
11389030536
11389037189
11389040790
11389048724
11389055255
11389060199
11389065326
11389071612
11389076800
11389083087
11389087787
11389092486
11389101703
11389106830
11389113727
11389119769
11389125140
11389130877
11389136615
11389141864
11389150897
11389156817
11389164813
11389169268
11389174456
11389180133
11389187091
11389192340
11389199603
11389205462
11389212298
11389216998
11389223773
11389228839
11389235491
11389240252
11389246844
11389253680
11389260272
11389266009
11389269366
11389275836
11389281268
11389287432
11389292071
11389298419
11389305743
11389311114
11389317217
11389322466
11389327349
11389333208
11389337969
11389343401
11389350726
11389365862
11389371661
11389377398
11389385393
11389389849
11389396868
11389401629
11389408587
11389412554
11389418047
11389422320
11389429155
11389432634
11389441118
11389444475
11389450335
11389455217
11389461443
11389465105
11389471087
11389474199
11389482012
11389485369
11389491899
11389496782
11389501299
11389505815
11389512346
11389515764
11389524431
11389530168
11389534563
11389539324
11389546099
11389550798
11389555864
11389560076
11389567888
11389572649
11389579546
11389584062
11389590288
11389594499
11389599870
11389605791
11389609270
11389616899
11389623125
11389627458
11389633012
11389638383
11389643144
11389648759
11389653337
11389660112
11389667131
11389672136
11389677324
11389681657
11389689104
11389695207
11389699907
11389706010
11389711870
11389717668
11389724016
11389729753
11389735551
11389740617
11389747087
11389751725
11389756791
11389764665
11389771867
11389777299
11389783525
11389787980
11389794328
11389798844
11389804765
11389811357
11389818009
11389823381
11389828935
11389833451
11389837235
11389844071
11389851151
11389857377
11389862992
11389867631
11389873856
11389879838
11389885697
11389889970
11389897599
11389902543
11389911515
11389917374
11389922990
11389930009
11389936356
11389944596
11389956925
11389965775
11389974747
11389980973
11389987870
11389995011
11390002701
11390011735
11390017472
11390024064
11390034440
11390041337
11390048050
11390054581
11390060563
11390067276
11390073929
11390082169
11390088761
11390096024
11390102127
11390108353
11390117142
11390121842
11390128983
11390135330
11390141312
11390149552
11390158219
11390166886
11390173050
11390180313
11390187271
11390196793
11390203262
11390208389
11390217545
11390221817
11390228287
11390238480
11390245499
11390252273
11390259659
11390267715
11390273880
11390279922
11390289749
11390296463
11390305374
11390313125
11390316177
11390326126
11390332473
11390341995
11390347366
11390354202
11390360855
11390367569
11390378616
11390385818
11390393692
11390398819
11390407852
11390414382
11390420608
11390428115
11390433181
11390443679
11390451858
11390459792
11390467483
11390473708
11390482436
11390487441
11390494277
11390501052
11390512405
11390519057
11390524551
11390534133
11390541274
11390547805
11390554153
11390562697
11390569533
11390594008
11390602065
11390608596
11390614821
11390625319
11390631911
11390641982
11390648269
11390657912
11390665603
11390672255
11390678542
11390685012
11390694289
11390700209
11390707778
11390715834
11390723952
11390731337
11390739821
11390746901
11390752150
11390765090
11390774428
11390781447
11390791396
11390800368
11390812331
11390828566
11390836134
11390840285
11390853712
11390860243
11390867140
11390875319
11390882704
11390888930
11390896315
11390903944
11390911451
11390916578
11390922987
11390929701
11390937941
11390944166
11390953077
11390961805
11390968275
11390975111
11390980604
11390986830
11390995130
11391001051
11391005751
11391015638
11391022901
11391029005
11391035353
11391041029
11391048536
11391055128
11391061414
11391067335
11391073255
11391083448
11391089063
11391095594
11391101942
11391108045
11391111951
11391119093
11391123975
11391131544
11391137098
11391143018
11391147596
11391152601
11391157117
11391163526
11391167982
11391173780
11391179517
11391183973
11391191236
11391197156
11391206495
11391210096
11391216565
11391222486
11391228895
11391235486
11391240308
11391246045
11391253003
11391258313
11391263746
11391268567
11391275953
11391283033
11391288465
11391293225
11391300244
11391304944
11391310987
11391317029
11391320691
11391329541
11391335340
11391342237
11391347669
11391351941
11391358289
11391363049
11391369519
11391374280
11391380872
11391387097
11391392346
11391398511
11391404065
11391409253
11391414929
11391419507
11391425977
11391432873
11391438550
11391444165
11391448804
11391455395
11391459973
11391466565
11391470471
11391479870
11391486035
11391490918
11391495556
11391502209
11391507947
11391512707
11391520337
11391528332
11391533215
11391541577
11391546765
11391554455
11391560864
11391566418
11391570568
11391576672
11391582836
11391588696
11391593029
11391597058
11391603588
11391609082
11391614636
11391617993
11391625500
11391631237
11391636120
11391640881
11391647106
11391651867
11391657238
11391661511
11391668896
11391675488
11391680492
11391685009
11391693066
11391697948
11391705517
11391710705
11391716625
11391723400
11391729015
11391736156
11391742077
11391747326
11391754467
11391759106
11391764049
11391772228
11391779247
11391784679
11391790539
11391796520
11391802257
11391807262
11391812694
11391821117
11391825023
11391831371
11391838817
11391843395
11391849865
11391854259
11391861400
11391866222
11391874462
11391878795
11391887157
11391891002
11391899242
11391905651
11391911815
11391918651
11391924632
11391930614
11391936534
11391942455
11391948619
11391952220
11391959117
11391964244
11391970836
11391976329
11391983409
11391988841
11391994273
11391998973
11392003673
11392011302
11392016490
11392023082
11392029369
11392035838
11392039867
11392047374
11392052684
11392058665
11392064281
11392070140
11392075145
11392079967
11392087962
11392092479
11392099498
11392103831
11392109630
11392114879
11392123729
11392130504
11392135936
11392149119
11392154429
11392160655
11392165843
11392173350
11392178355
11392184764
11392189891
11392194834
11392199717
11392204783
11392210093
11392215953
11392221690
11392226939
11392232859
11392238535
11392243968
11392248789
11392253550
11392261973
11392265879
11392271800
11392276682
11392281931
11392288279
11392293589
11392297984
11392304514
11392308848
11392314951
11392319285
11392324900
11392330454
11392335764
11392339915
11392344858
11392351816
11392357798
11392362620
11392367869
11392373728
11392378428
11392385325
11392389963
11392396555
11392403025
11392408213
11392414621
11392419138
11392424753
11392430185
11392436411
11392441660
11392449472
11392455149
11392461557
11392466745
11392471689
11392477793
11392482431
11392489511
11392493235
11392501535
11392505503
11392512155
11392517343
11392523569
11392529001
11392533945
11392540048
11392546640
11392553659
11392558420
11392564768
11392569772
11392575021
11392580270
11392586740
11392591440
11392600778
11392606516
11392612253
11392616952
11392621530
11392628488
11392633188
11392639230
11392644357
11392652353
11392658945
11392664743
11392668344
11392674386
11392678659
11392684762
11392689584
11392697214
11392702218
11392707345
11392714181
11392720102
11392724923
11392729379
11392739084
11392743234
11392754159
11392762338
11392767038
11392773202
11392777841
11392785165
11392789682
11392794076
11392802072
11392807077
11392813912
11392818917
11392822946
11392828927
11392833383
11392839120
11392844918
11392851632
11392855905
11392861459
11392866647
11392871468
11392877389
11392882211
11392889413
11392894479
11392899972
11392904305
11392910348
11392914803
11392921151
11392926827
11392932320
11392938424
11392940743
11392949166
11392953194
11392959603
11392963448
11392970833
11392974068
11392983101
11392986764
11392993416
11392998726
11393003670
11393008370
11393015206
11393019783
11393029061
11393034188
11393039315
11393047432
11393053658
11393059761
11393064888
11393071907
11393077217
11393083504
11393088997
11393094612
11393100960
11393107491
11393113594
11393117867
11393123482
11393129708
11393135506
11393142281
11393148445
11393152168
11393160591
11393165901
11393171883
11393177132
11393181709
11393188118
11393193001
11393200569
11393205269
11393211128
11393217293
11393222481
11393227791
11393234688
11393240608
11393246712
11393251350
11393257881
11393262581
11393267097
11393274483
11393278084
11393286506
11393290535
11393297676
11393303413
11393309150
11393314094
11393320381
11393325142
11393329841
11393339912
11393350227
11393355476
11393364631
11393372078
11393377876
11393383796
11393389656
11393396919
11393403144
11393407173
11393413642
11393417060
11393423774
11393428718
11393436164
11393441230
11393447578
11393452522
11393457649
11393462409
11393467292
11393473090
11393477729
11393485603
11393494025
11393502631
11393509040
11393516669
11393523872
11393529609
11393536872
11393541755
11393546332
11393550544
11393554450
11393558967
11393563117
11393568549
11393573188
11393577460
11393581733
11393586738
11393591193
11393595344
11393601630
11393605475
11393610663
11393614753
11393619574
11393621528
11393628791
11393633735
11393638984
11393644477
11393649665
11393655097
11393659064
11393664008
11393668158
11393674384
11393680793
11393686042
11393691474
11393696540
11393700751
11393705756
11393712897
11393717230
11393724494
11393728827
11393733405
11393738837
