11613635186
11613640373
11613645745
11613650994
11613656914
11613661858
11613667900
11613673699
11613679192
11613685722
11613691216
11613696709
11613703179
11613709953
11613715386
11613721733
11613726799
11613734123
11613739800
11613746819
11613754692
11613762566
11613769035
11613774589
11613781303
11613789177
11613795219
11613802116
11613809074
11613816887
11613822868
11613828605
11613835380
11613841911
11613847282
11613854973
11613863640
11613870048
11613877189
11613883903
11613891410
11613899711
11613906425
11613912345
11613919548
11613926994
11613933891
11613940055
11613946708
11613951591
11613958305
11613963371
11613971183
11613978019
11613984123
11613989738
11613996574
11614004203
11614010734
11614016959
11614022208
11614028983
11614034721
11614042777
11614048942
11614055534
11614062675
11614067557
11614073234
11614079703
11614084525
11614092155
11614100272
11614105338
11614111503
11614117911
11614123710
11614129386
11614135489
11614143180
11614148490
11614154044
11614160697
11614165885
11614174369
11614181205
11614187491
11614193778
11614199271
11614205802
11614213187
11614219290
11614226493
11614233206
11614239188
11614245108
11614250968
11614258109
11614264517
11614274893
11614283438
11614292227
11614302847
11614307547
11614316092
11614325308
11614332022
11614339163
11614346182
11614354605
11614360709
11614366202
11614373465
11614380850
11614387747
11614393667
11614401053
11614406363
11614413870
11614420462
11614427542
11614432120
11614440481
11614446890
11614454153
11614459951
11614465750
11614473135
11614479910
11614487844
11614493460
11614499502
11614506521
11614513784
11614520620
11614528005
11614534475
11614540151
11614547537
11614553640
11614559927
11614566397
11614573721
11614581472
11614587942
11614594839
11614603994
11614611196
11614619253
11614630300
11614636892
11614644216
11614650320
11614658071
11614664724
11614672292
11614682363
11614691213
11614696767
11614702810
11614710561
11614718557
11614726552
11614732229
11614740957
11614747854
11614755483
11614762624
11614770620
11614777639
11614784352
11614793874
11614799367
11614806752
11614814077
11614821950
11614829030
11614836659
11614844167
11614849355
11614858815
11614864125
11614873647
11614885793
11614892629
11614902699
11614908864
11614918935
11614925832
11614934560
11614941945
11614947194
11614954274
11614961964
11614967763
11614975575
11614981557
11614989430
11614997121
11615002797
11615009633
11615018239
11615024769
11615031300
11615039052
11615046193
11615054249
11615061512
11615068470
11615076039
11615082692
11615090687
11615098927
11615106984
11615113392
11615122425
11615128956
11615136280
11615142506
11615149769
11615157520
11615164906
11615172169
11615179310
11615187367
11615194691
11615200306
11615208241
11615214100
11615221119
11615230396
11615238636
11615244434
11615250843
11615259266
11615265308
11615273853
11615280323
11615289600
11615296802
11615303577
11615311329
11615318043
11615325367
11615333790
11615340931
11615347645
11615353687
11615363636
11615369983
11615378040
11615382618
11615393482
11615397571
11615408680
11615417224
11615425220
11615431507
11615439685
11615446094
11615454334
11615461719
11615470996
11615478320
11615487476
11615494556
11615502307
11615509570
11615516711
11615524707
11615531482
11615540149
11615547473
11615557422
11615563647
11615571582
11615579028
11615586780
11615594531
11615602771
11615610461
11615619128
11615626880
11615635486
11615644336
11615652514
11615659594
11615668567
11615675402
11615682849
11615693469
11615700183
11615709765
11615716479
11615724963
11615731677
11615740405
11615747241
11615753955
11615761889
11615768481
11615774096
11615783373
11615789599
11615797106
11615803637
11615812731
11615817919
11615827258
11615832629
11615839892
11615847948
11615855578
11615863940
11615869555
11615875231
11615884203
11615890063
11615898424
11615904223
11615912890
11615921740
11615929003
11615934679
11615943346
11615949144
11615955431
11615964586
11615971788
11615981066
11615986193
11615996324
11616004015
11616011827
11616018297
11616026415
11616033251
11616041307
11616050768
11616058580
11616065050
11616073045
11616080126
11616087694
11616097032
11616102464
11616112108
11616120836
11616127916
11616133836
11616141893
11616148912
11616158983
11616166063
11616174547
11616182786
11616190904
11616195054
11616205125
11616211656
11616220750
11616229051
11616235887
11616248033
11616254014
11616263292
11616269578
11616278672
11616285813
11616293321
11616300279
11616311143
11616318406
11616328233
11616336106
11616344041
11616350816
11616358262
11616364060
11616373155
11616381944
11616389756
11616396165
11616403611
11616407456
11616418687
11616429856
11616436997
11616450486
11616457200
11616467637
11616474961
11616484666
11616491685
11616502427
11616507371
11616515366
11616524888
11616530930
11616539292
11616545090
11616554123
11616560044
11616569321
11616577805
11616583115
11616588913
11616597702
11616605271
11616612778
11616620652
11616627793
11616635239
11616640549
11616649460
11616655441
11616663986
11616669968
11616678513
11616684860
11616691635
11616699936
11616706528
11616712936
11616720322
11616728317
11616735764
11616742844
11616750595
11616757980
11616766159
11616774093
11616780441
11616786606
11616794967
11616807724
11616815536
11616821274
11616830856
11616836715
11616845016
11616852768
11616860641
11616867660
11616876388
11616884018
11616889938
11616899154
11616905258
11616914535
11616920700
11616930709
11616937667
11616945053
11616953903
11616961471
11616968917
11616977035
11616984664
11616993392
11617004134
11617011092
11617017806
11617027267
11617032027
11617041183
11617047774
11617058211
11617064132
11617071334
11617078475
11617085799
11617093551
11617100875
11617108870
11617114303
11617123031
11617130355
11617139144
11617146407
11617153182
11617160445
11617166426
11617175460
11617183211
11617190718
11617198287
11617204024
11617213668
11617221480
11617228255
11617236617
11617243025
11617250472
11617259993
11617267500
11617274947
11617283614
11617290205
11617297713
11617305037
11617313643
11617320296
11617328108
11617334761
11617341597
11617348982
11617355147
11617364790
11617371626
11617378828
11617386519
11617393904
11617400679
11617407881
11617413740
11617422957
11617430952
11617438398
11617444563
11617451948
11617457747
11617466841
11617472761
11617479292
11617488264
11617494123
11617502607
11617510054
11617516706
11617523359
11617531965
11617539655
11617546186
11617553266
11617561384
11617569135
11617575849
11617582380
11617591291
11617597212
11617604658
11617612348
11617620222
11617627302
11617635358
11617641645
11617650617
11617657026
11617668195
11617675153
11617683027
11617689252
11617696882
11617706403
11617712140
11617721357
11617727094
11617738385
11617746198
11617753644
11617760724
11617768842
11617776593
11617784528
11617788983
11617798444
11617807355
11617815412
11617821698
11617828900
11617836164
11617844647
11617852155
11617859296
11617869611
11617877667
11617884808
11617891766
11617899823
11617903973
11617919293
11617928448
11617938641
11617945965
11617955182
11617963971
11617972638
11617980878
11617991986
11618001813
11618016644
11618026654
11618035870
11618046307
11618056805
11618066204
11618077862
11618087384
11618095806
11618107769
11618113629
11618121990
11618130352
11618135479
11618141644
11618151287
11618158428
11618165386
11618172100
11618178814
11618185589
11618193401
11618200787
11618206341
11618214397
11618220196
11618227032
11618233074
11618241314
11618248211
11618256939
11618263836
11618271892
11618279522
11618287029
11618294048
11618301250
11618309063
11618316021
11618324566
11618331340
11618338604
11618347149
11618354168
11618363811
11618371440
11618378704
11618385601
11618392375
11618400676
11618406658
11618415019
11618422649
11618428691
11618437297
11618445110
11618452556
11618458537
11618466472
11618474651
11618482158
11618489665
11618495280
11618503642
11618511089
11618520000
11618526958
11618535075
11618541972
11618550639
11618558635
11618565715
11618573588
11618582011
11618592875
11618600505
11618613078
11618619121
11618626628
11618636638
11618645305
11618651774
11618658122
11618667216
11618676738
11618682536
11618690898
11618697306
11618706095
11618714335
11618722636
11618729960
11618739543
11618747294
11618755595
11618764445
11618775004
11618783305
11618790446
11618798930
11618807658
11618813395
11618821085
11618828471
11618835978
11618843424
11618849222
11618856364
11618864908
11618870341
11618878702
11618886393
11618893046
11618901163
11618909830
11618917887
11618925028
11618930521
11618938639
11618945780
11618953226
11618962503
11618969400
11618976358
11618985514
11618992350
11619001261
11619007730
11619014322
11619022257
11619031107
11619038614
11619045633
11619052957
11619060220
11619068704
11619075662
11619082071
11619088785
11619097696
11619104654
11619113016
11619118692
11619128274
11619134500
11619144327
11619154703
11619161905
11619169107
11619176980
11619184732
11619190225
11619199746
11619206155
11619214151
11619220010
11619228738
11619235879
11619242959
11619250955
11619258645
11619265481
11619272744
11619280557
11619289529
11619295571
11619304483
11619313027
11619319253
11619328225
11619334023
11619342324
11619350076
11619357827
11619366433
11619374246
11619380837
11619388406
11619396401
11619404763
11619412759
11619420815
11619430886
11619438637
11619446206
11619453957
11619462868
11619469948
11619478982
11619487221
11619494118
11619502053
11619509743
11619517006
11619523781
11619531044
11619538125
11619545876
11619554116
11619561440
11619565346
11619574257
11619583107
11619590309
11619596047
11619603737
11619611855
11619620156
11619626015
11619632057
11619640724
11619648232
11619655007
11619662087
11619670631
11619677406
11619684425
11619692116
11619698952
11619704689
11619713905
11619719948
11619727638
11619735512
11619743446
11619751442
11619759437
11619765907
11619774452
11619780861
11619790687
11619797340
11619806495
11619814979
11619820594
11619829994
11619835182
11619845436
11619850685
11619861183
11619866920
11619874977
11619884193
11619890419
11619896888
11619906288
11619912696
11619921791
11619931129
11619937599
11619947242
11619952674
11619962135
11619967994
11619975990
11619984962
11619994483
11620002052
11620009559
11620016273
11620024390
11620032325
11620040565
11620044898
11620055518
11620062354
11620070594
11620079078
11620087684
11620094031
11620102210
11620109595
11620116187
11620126441
11620134009
11620141028
11620147132
11620157203
11620163855
11620171973
11620179541
11620187598
11620194129
11620202979
11620209754
11620220496
11620227454
11620235694
11620243140
11620251624
11620262183
11620270545
11620280676
11620288672
11620296240
11620302832
11620312476
11620319067
11620328345
11620334875
11620343420
11620351843
11620359411
11620366675
11620375647
11620382422
11620391394
11620398779
11620405981
11620414648
11620420385
11620429297
11620437414
11620444128
11620451330
11620459936
11620468542
11620476721
11620484716
11620490515
11620496923
11620506506
11620515966
11620524145
11620531347
11620537817
11620545202
11620551244
11620560644
11620569982
11620577795
11620584753
11620592321
11620600134
11620606420
11620616369
11620624486
11620631750
11620639684
11620648107
11620653051
11620661535
11620668981
11620677160
11620682409
11620690893
11620699010
11620707189
11620714086
11620721532
11620729528
11620736364
11620742650
11620750524
11620759923
11620767491
11620775487
11620785009
11620791234
11620798009
11620805089
11620813329
11620819860
11620829991
11620837010
11620844701
11620853307
11620861852
11620869420
11620876195
11620885228
11620892613
11620898961
11620907017
11620913182
11620920140
11620928502
11620938206
11620947606
11620960972
11620966466
11620979039
11620985142
11620994236
11621002293
11621010472
11621018467
11621026707
11621033909
11621041600
11621048375
11621055516
11621063877
11621069920
11621078404
11621086827
11621094639
11621101597
11621108128
11621117161
11621124241
11621131199
11621139927
11621148106
11621156590
11621163609
11621171055
11621176975
11621183201
11621191990
11621199009
11621210178
11621218296
11621225864
11621234287
11621240635
11621248752
11621255955
11621264622
11621274143
11621280735
11621288730
11621297275
11621304661
11621312290
11621321018
11621328098
11621335727
11621342502
11621351535
11621360263
11621367832
11621374118
11621384922
11621392734
11621401584
11621407871
11621415195
11621422702
11621430759
11621440158
11621449069
11621456394
11621463718
11621470065
11621481540
11621487827
11621496494
11621504367
11621512973
11621522739
11621529147
11621538119
11621545749
11621552951
11621559604
11621567782
11621576510
11621583713
11621591098
11621600985
11621607760
11621618686
11621627230
11621635653
11621644259
11621655978
11621665744
11621675692
11621683688
11621691806
11621699130
11621709689
11621715304
11621725070
11621731051
11621741061
11621748385
11621755831
11621765353
11621772494
11621779818
11621786715
11621794222
11621802157
11621807589
11621816561
11621825045
11621831087
11621837496
11621845980
11621853853
11621860262
11621870455
11621880282
11621887484
11621893404
11621900972
11621910006
11621915560
11621924227
11621931673
11621940584
11621948030
11621955294
11621962740
11621970491
11621977754
11621984712
11621992159
11621999361
11622006319
11622012605
11622020845
11622028169
11622037569
11622045931
11622050813
11622060091
11622068330
11622075594
11622083589
11622091158
11622100252
11622107637
11622114534
11622122713
11622129243
11622137239
11622147188
11622153047
11622159700
11622170686
11622177583
11622185640
11622192781
11622200776
11622209932
11622215913
11622224885
11622233003
11622239228
11622246431
11622255769
11622262849
11622270234
11622279206
11622286653
11622293733
11622303132
11622309846
11622317109
11622324738
11622334321
11622341279
11622348725
11622358796
11622366670
11622373078
11622383454
11622388520
11622398896
11622407014
11622416230
11622421235
11622434296
11622442597
11622451264
11622458527
11622466340
11622475312
11622483918
11622495453
11622501679
11622510895
11622516816
11622523346
11622532196
11622540375
11622548615
11622555939
11622561493
11622567841
11622576264
11622582855
11622591339
11622596955
11622605744
11622612702
11622621246
11622628266
11622634979
11622643219
11622649994
11622657074
11622663727
11622671051
11622680328
11622685883
11622693268
11622700897
11622708466
11622715240
11622722626
11622729889
11622738983
11622744293
11622751800
11622759613
11622766815
11622774017
11622781524
11622789215
11622796295
11622803009
11622810882
11622818756
11622826873
11622835723
11622841583
11622847930
11622857940
11622864166
11622872283
11622881622
11622887054
11622896392
11622902313
11622913421
11622921661
11622928863
11622935455
11622945586
11622952056
11622960174
11622968963
11622974761
11622983916
11622991485
11622999847
11623005767
11623012176
11623021636
11623028045
11623037993
11623045074
11623052886
11623062102
11623068450
11623077910
11623082915
11623093047
11623099028
11623107207
11623115081
11623124846
11623131011
11623139190
11623147124
11623155242
11623162261
11623169646
11623176543
11623186492
11623192839
11623200102
11623210173
11623217070
11623227446
11623233794
11623243926
11623251616
11623260893
11623267912
11623277983
11623285368
11623292937
11623299528
11623306242
11623315459
11623322172
11623329130
11623337797
11623343168
11623350432
11623358061
11623365690
11623372770
11623379851
11623386808
11623395964
11623401823
11623409086
11623414885
11623424833
11623432646
11623440153
11623448332
11623454557
11623462553
11623468473
11623474089
11623483305
11623489164
11623497953
11623504423
11623513090
11623520170
11623528898
11623534940
11623543852
11623550932
11623559904
11623565763
11623574064
11623582059
11623590055
11623597196
11623606657
11623614591
11623621732
11623629423
11623637906
11623643949
11623651273
11623658780
11623667386
11623676725
11623683805
11623692472
11623698331
11623707669
11623714811
11623724149
11623733121
11623739530
11623745999
11623754056
11623763028
11623770719
11623778165
11623786710
11623794156
11623802457
11623808988
11623817227
11623825589
11623833218
11623841031
11623846585
11623854153
11623862820
11623869412
11623881253
11623887112
11623896207
11623904752
11623909634
11623918301
11623928555
11623935818
11623947354
11623959012
11623967984
11623976895
11623988247
11623998745
11624004971
11624013028
11624018277
11624027127
11624033596
11624041348
11624049221
11624056362
11624062832
11624068814
11624076931
11624084011
11624090908
11624099026
11624104336
11624114102
11624120999
11624127895
11624134609
11624143032
11624148586
11624155361
11624163418
11624172268
11624179409
11624186916
11624195705
11624204311
11624213039
11624218044
11624227566
11624235866
11624244472
11624252895
11624262172
11624269008
11624275905
11624284939
11624291286
11624303493
11624311245
11624319179
11624331630
11624338710
11624345729
11624354274
11624363063
11624371486
11624381374
11624386379
11624396572
11624404018
11624411464
11624419277
11624426906
11624433559
11624443752
11624450282
11624456630
11624467555
11624474147
11624484889
11624491664
11624499416
11624506251
11624515163
11624521571
11624530238
11624537440
11624544093
11624551417
11624560023
11624566432
11624579249
11624586024
11624593654
11624604884
11624612269
11624622828
11624631617
11624639613
11624650538
11624659327
11624666835
11624678736
11624685267
11624692164
11624701869
11624708643
11624716822
11624724391
11624730433
11624738307
11624744044
11624752222
11624760340
11624767908
11624776148
11624780665
11624788660
11624797022
11624805689
11624812952
11624817835
11624825342
11624833887
11624840784
11624847254
11624855433
11624863367
11624869105
11624878504
11624887476
11624894129
11624902491
11624912439
11624919336
11624924219
11624934046
11624939600
11624950342
11624956140
11624964563
11624972132
11624980005
11624986719
11624994715
11625002405
11625010462
11625018457
11625025171
11625030481
11625039026
11625047571
11625055444
11625063867
11625073083
11625081506
11625087244
11625094446
11625101282
11625110498
11625119287
11625127405
11625134912
11625144555
11625153161
11625158777
11625168115
11625177942
11625186181
11625194909
11625202173
11625211023
11625219506
11625228784
11625236108
11625243981
11625253076
11625261254
11625267053
11625276574
11625285363
11625296411
11625302453
11625311608
11625320702
11625330102
11625338281
11625347863
11625363854
11625372643
11625379113
11625386315
11625394006
11625401696
11625409630
11625417382
11625425133
11625432763
11625441247
11625449242
11625457360
11625466698
11625476464
11625483178
11625490502
11625498070
11625502831
11625512047
11625521202
11625528710
11625536644
11625544091
11625552330
11625559410
11625568077
11625575157
11625584313
11625592125
11625600609
11625608910
11625616234
11625622460
11625631676
11625637596
11625645226
11625654991
11625664207
11625671226
11625678429
11625688744
11625695640
11625702904
11625710106
11625719749
11625727928
11625735740
11625745567
11625753013
11625759910
11625768333
11625775047
11625783775
11625793968
11625801597
11625809227
11625816856
11625824913
11625834190
11625843528
11625850120
11625856712
11625865074
11625873985
11625878990
11625886619
11625895774
11625904014
11625910850
11625918845
11625925987
11625933860
11625940635
11625950095
11625958640
11625963584
11625974448
11625983970
11625989829
11625998252
11626008262
11626018271
11626026694
11626033652
11626043296
11626048911
11626056968
11626066001
11626073569
11626079490
11626086692
11626096518
11626103415
11626110251
11626117270
11626124900
11626132529
11626139304
11626147238
11626155905
11626164572
11626171042
11626178916
11626187705
11626195212
11626203513
11626210532
11626218222
11626226340
11626231894
11626240256
11626247580
11626255881
11626261679
11626271384
11626278036
11626285971
11626293600
11626300680
11626308676
11626315695
11626325766
11626334189
11626342062
11626350363
11626357260
11626363241
11626370382
11626380270
11626387716
11626393515
11626401144
11626410421
11626416769
11626423849
11626434469
11626442037
11626448385
11626456808
11626464987
11626470480
11626479513
11626486715
11626495260
11626503988
11626511739
11626521505
11626532369
11626539449
11626546041
11626553121
11626559713
11626568563
11626574911
11626582174
11626591451
11626600973
11626608053
11626616903
11626623739
11626633077
11626640279
11626650045
11626660116
11626666341
11626675741
11626684957
11626694234
11626701375
11626708944
11626722310
11626730062
11626737447
11626746358
11626751546
11626758565
11626768209
11626776204
11626782552
11626791829
11626799092
11626805074
11626815144
11626822408
11626830891
11626840291
11626849263
11626857808
11626865132
11626873555
11626886311
11626895711
11626905965
11626915913
11626926106
11626935689
11626946248
11626952656
11626959431
11626965718
11626971882
11626978047
11626987935
11626995198
11627001179
11627009114
11627017048
11627025654
11627031208
11627039082
11627044758
11627053669
11627061177
11627068623
11627074909
11627080891
11627089558
11627097065
11627105061
11627111652
11627116840
11627123249
11627131733
11627137165
11627146015
11627153278
11627160969
11627167683
11627176228
11627185444
11627192158
11627200703
11627209431
11627215412
11627225239
11627233661
11627241657
11627247577
11627257099
11627264179
11627271869
11627280292
11627289264
11627296650
11627303791
11627313556
11627321186
11627330829
11627337238
11627348407
11627357562
11627367694
11627380390
11627389362
11627398822
11627406146
11627414203
11627422076
11627430804
11627436786
11627444598
11627453326
11627459125
11627469073
11627475970
11627483722
11627492206
11627499164
11627506244
11627515338
11627524249
11627532672
11627540362
11627550616
11627559894
11627567340
11627576678
11627583026
11627591510
11627599932
11627607379
11627613604
11627623675
11627631427
11627648333
11627658465
11627664202
11627672869
11627682635
11627690692
11627698443
11627706683
11627714922
11627721636
11627729327
11627736651
11627746416
11627752764
11627761248
11627768389
11627777117
11627785662
11627791521
11627799517
11627805498
11627813799
11627821917
11627829363
11627838030
11627846087
11627856585
11627864702
11627872820
11627880571
11627887774
11627895769
11627904375
11627910723
11627919084
11627927385
11627933367
11627942339
11627948625
11627957048
11627966326
11627974260
11627982134
11627989214
11627997576
11628004106
11628012895
11628020586
11628033586
11628041521
11628049272
11628055925
11628066728
11628073381
11628082292
11628090410
11628102800
11628111162
11628118486
11628127641
11628134843
11628140581
11628150956
11628157548
11628165605
11628170427
11628181047
11628188920
11628196672
11628204972
11628212358
11628218644
11628225968
11628231889
11628241044
11628245317
11628255998
11628261857
11628269242
11628278581
11628284562
11628293778
11628301347
11628308610
11628316605
11628323808
11628332536
11628340165
11628347184
11628357316
11628362687
11628370866
11628380204
11628386368
11628392594
11628402543
11628409379
11628418900
11628425370
11628432023
11628441544
11628447648
11628456986
11628464127
11628471451
11628478348
11628488236
11628494217
11628502152
11628510208
11628518204
11628522293
11628532852
11628540055
11628549515
11628555985
11628566055
11628572464
11628579056
11628588516
11628595780
11628603043
11628612503
11628619644
11628626236
11628634232
11628643326
11628649246
11628655472
11628665115
11628674881
11628682754
11628690323
11628698746
11628706314
11628712112
11628718460
11628728653
11628735245
11628745193
11628751419
11628760269
11628766678
11628774429
11628783401
11628789993
11628799820
11628807998
11628814285
11628821121
11628831253
11628837722
11628847610
11628856582
11628864761
11628873550
11628886428
11628896987
11628904434
11628912429
11628919875
11628928054
11628936599
11628943923
11628950393
11628960830
11628967300
11628974807
11628981155
11628990493
11628998855
11629006179
11629012649
11629021926
11629027785
11629035171
11629042251
11629049575
11629057998
11629065322
11629071669
11629078811
11629084792
11629091811
11629100295
11629108351
11629114455
11629121901
11629130324
11629136550
11629143263
11629151686
11629158461
11629163771
11629173232
11629181105
11629187758
11629195326
11629202162
11629208998
11629216139
11629223525
11629230849
11629237013
11629246291
11629253432
11629260939
11629268080
11629276137
11629284071
11629289931
11629298720
11629308241
11629315138
11629324843
11629331129
11629338270
11629348097
11629355360
11629362806
11629369520
11629377516
11629385023
11629392958
11629400953
11629408949
11629415846
11629423902
11629435316
11629441236
11629447523
11629457899
11629464186
11629474012
11629480360
11629487623
11629497022
11629504469
11629511732
11629518079
11629526319
11629533277
11629543592
11629550062
11629558118
11629567029
11629575208
11629579420
11629589857
11629596143
11629605909
11629612195
11629619459
11629629590
11629637586
11629645582
11629653943
11629663465
11629672559
11629680310
11629688916
11629695935
11629708448
11629716687
11629724744
11629731397
11629738721
11629744580
11629752881
11629758740
11629765882
11629774365
11629780774
11629789380
11629794995
11629803784
11629810376
11629819531
11629829236
11629837109
11629844617
11629850354
11629858350
11629864209
11629871167
11629880505
11629888379
11629893933
11629901806
11629908581
11629915845
11629922375
11629928784
11629938244
11629946301
11629952893
11629960949
11629967541
11629975415
11629982495
11629988232
11629998425
11630005444
11630012463
11630018505
11630025463
11630032055
11630038952
11630044689
11630053539
11630059948
11630069592
11630075329
11630083325
11630089306
11630096935
11630105480
11630111095
11630120373
11630129162
11630135571
11630142956
11630149975
11630155773
11630165111
11630170788
11630178539
11630187755
11630194774
11630201305
11630208813
11630215587
11630222912
11630228588
11630235973
11630245861
11630254100
11630260631
11630270275
11630281017
11630287975
11630296032
11630304454
11630313121
11630320323
11630327587
11630336681
11630343944
11630350780
11630357921
11630365550
11630374095
11630381175
11630389476
11630396800
11630403819
11630414989
11630421642
11630430247
11630440440
11630453258
11630461009
11630469859
11630479686
11630485423
11630494945
11630502635
11630511241
11630516673
11630524608
11630531810
11630539805
11630547007
11630552745
11630561778
11630567698
11630575755
11630580516
11630589915
11630593150
11630601695
11630610179
11630618663
11630625254
11630632762
11630638682
11630644419
11630653086
11630659129
11630668467
11630673228
11630682932
11630689463
11630694895
11630703196
11630709605
11630720225
11630727305
11630734629
11630742747
11630749522
11630757822
11630766123
11630775645
11630782847
11630791147
11630798838
11630805124
11630814829
11630822580
11630830271
11630837473
11630845102
11630855906
11630865305
11630870493
11630880625
11630889475
11630897104
11630905405
11630910166
11630918344
11630924936
11630934091
11630941660
11630949594
11630956980
11630964914
11630972177
11630979624
11630989084
11630995065
11631003305
11631009653
11631017465
11631026193
11631035776
11631045114
11631051645
11631059701
11631067575
11631075326
11631082895
11631090890
11631099313
11631108285
11631115854
11631125497
11631133798
11631141305
11631150216
11631159189
11631166635
11631174630
11631182809
11631190377
11631197030
11631204782
11631211923
11631219186
11631225534
11631233407
11631239999
11631248055
11631255441
11631261727
11631269113
11631278207
11631284371
11631290780
11631298043
11631306588
11631314828
11631321908
11631330087
11631336068
11631342477
11631351876
11631359872
11631367135
11631374642
11631382516
11631389596
11631399544
11631406563
11631414559
11631423226
11631429818
11631437447
11631444771
11631453621
11631460762
11631468697
11631477547
11631485360
11631491280
11631502083
11631508980
11631518135
11631524544
11631536568
11631543892
11631549446
11631557137
11631567452
11631577461
11631584663
11631593208
11631600899
11631608528
11631617561
11631626228
11631636848
11631643196
11631649483
11631658272
11631666206
11631672920
11631682381
11631691841
11631699226
11631707649
11631715523
11631722908
11631728035
11631738838
11631745613
11631752327
11631760017
11631768989
11631777595
11631786628
11631795539
11631804084
11631812263
11631821357
11631826484
11631835639
11631845039
11631851692
11631857368
11631864936
11631870918
11631878425
11631886665
11631894416
11631902595
11631909736
11631917243
11631925727
11631931464
11631939704
11631946174
11631954841
11631962226
11631969855
11631978217
11631984199
11631992560
11632000007
11632009589
11632016059
11632025580
11632032172
11632038947
11632047736
11632056769
11632062751
11632071601
11632079779
11632087165
11632093390
11632101874
11632110663
11632119879
11632126654
11632135138
11632143439
11632150519
11632159857
11632167609
11632175421
11632182257
11632191718
11632199042
11632208014
11632214056
11632222968
11632232672
11632239752
11632249701
11632257635
11632263251
11632271490
11632280524
11632289313
11632296210
11632303290
11632311957
11632318548
11632326422
11632334967
11632342291
11632351385
11632357977
11632365362
11632374334
11632382147
11632387762
11632396002
11632404974
11632412969
11632420721
11632428533
11632436285
11632444280
11632452398
11632459844
11632467230
11632477056
11632487798
11632498357
11632506170
11632514837
11632523443
11632536443
11632545721
11632554204
11632562871
11632570745
11632577215
11632586187
11632591985
11632598333
11632606817
11632612920
11632621465
11632628423
11632635137
11632643621
11632650396
11632657415
11632665899
11632673223
11632679814
11632687261
11632693914
11632700261
11632709722
11632717351
11632724004
11632730657
11632738103
11632744878
11632753972
11632761113
11632768376
11632774297
11632781499
11632787419
11632796513
11632802678
11632812138
11632818364
11632827946
11632834233
11632841496
11632850957
11632874760
11632882084
11632889042
11632897160
11632904667
11632912480
11632920170
11632928227
11632936406
11632944096
11632952519
11632958378
11632967717
11632975529
11632982487
11632991398
11633000798
11633008000
11633015324
11633023381
11633031437
11633039433
11633046024
11633053410
11633059696
11633067082
11633072880
11633078739
11633088749
11633098393
11633108524
11633117008
11633124943
11633132267
11633138187
11633149906
11633158085
11633166386
11633173832
11633183903
11633192508
11633201603
11633210270
11633217350
11633226566
11633233707
11633241642
11633247623
11633256778
11633263431
11633270633
11633279483
11633287296
11633294071
11633304386
11633310489
11633321048
11633329898
11633338443
11633345767
11633352908
11633358646
11633367801
11633373538
11633381839
11633387698
11633396304
11633404666
11633412296
11633417911
11633425845
11633435184
11633441653
11633448428
11633455875
11633464603
11633471133
11633480044
11633485415
11633494082
11633501040
11633507693
11633516116
11633523135
11633529605
11633536746
11633543338
11633552615
11633558902
11633566165
11633574221
11633581973
11633588992
11633596255
11633604373
11633611758
11633617617
11633624941
11633632693
11633640078
11633647708
11633655154
11633660952
11633667544
11633676211
11633684145
11633689944
11633696658
11633705386
11633711245
11633719668
11633725466
11633734194
11633740664
11633747927
11633757632
11633765139
11633773562
11633780947
11633789797
11633796999
11633803469
11633811831
11633819826
11633827761
11633837221
11633843142
11633852114
11633860170
11633866335
11633873842
11633883181
11633890383
11633897951
11633904116
11633914247
11633919863
11633927797
11633935488
11633943483
11633949892
11633959291
11633968569
11633976503
11633983644
11633991335
11633995668
11634005373
11634013918
11634021730
11634029909
11634037965
11634047060
11634055665
11634063478
11634070192
11634080018
11634089662
11634096071
11634104371
11634115114
11634124940
11634131410
11634139650
11634146363
11634153871
11634162477
11634169801
11634176576
11634183778
11634190797
11634198121
11634203797
11634211732
11634219544
11634227052
11634232911
11634240418
11634248902
11634254517
11634263001
11634269532
11634276673
11634284058
11634292542
11634298951
11634305665
11634311951
11634321290
11634327637
11634335267
11634343995
11634350098
11634358582
11634366700
11634373108
11634381653
11634387940
11634396180
11634407410
11634416993
11634423340
11634429993
11634439515
11634447144
11634454529
11634462281
11634469727
11634477600
11634485779
11634489991
11634499939
11634506226
11634515625
11634521912
11634531738
11634540589
11634548340
11634557373
11634567627
11634574036
11634581238
11634590027
11634596252
11634605225
11634613098
11634619934
11634629455
11634635925
11634648193
11634654785
11634662903
11634671142
11634678528
11634687012
11634694092
11634700317
11634710083
11634718322
11634725891
11634733581
11634742859
11634747558
11634756225
11634762329
11634770996
11634779174
11634785766
11634794982
11634803405
11634809448
11634818420
11634825378
11634836303
11634845092
11634852599
11634868041
11634874267
11634883849
11634891296
11634901672
11634908569
11634920531
11634929748
11634937377
11634944274
11634950194
11634960387
11634967223
11634974059
11634983520
11634990050
11634995849
11635003905
11635009093
11635015807
11635023742
11635032042
11635036620
11635045714
11635052977
11635058837
11635065978
11635075194
11635082152
11635091490
11635097899
11635104857
11635113341
11635121947
11635127867
11635135192
11635144896
11635151793
11635160765
11635168700
11635176634
11635183165
11635192748
11635199950
11635209044
11635217223
11635226073
11635236449
11635244200
11635253844
11635261656
11635270018
11635278563
11635284056
11635291624
11635298704
11635309874
11635316465
11635324644
11635333250
11635338865
11635348875
11635357481
11635366880
11635372496
11635381285
11635389158
11635398496
11635403684
11635411131
11635421018
11635427305
11635438047
11635444334
11635452207
11635460081
11635469663
11635478635
11635486143
11635492490
11635501524
11635506712
11635516660
11635522459
11635532102
11635542966
11635550535
11635560544
11635570188
11635578550
11635590268
11635597226
11635608640
11635617368
11635625364
11635633603
11635644101
11635650693
11635659177
11635667295
11635674253
11635679868
11635690366
11635696958
11635705014
11635711972
11635720151
11635728757
11635737302
11635744138
11635753354
11635761899
11635771115
11635777707
11635786069
11635793576
11635800351
11635809994
11635817136
11635823544
11635831540
11635839352
11635845944
11635854611
11635863644
11635870785
11635878720
11635885190
11635893002
11635901303
11635909909
11635917233
11635924374
11635932736
11635942501
11635949093
11635955380
11635964596
11635973751
11635981320
11635989376
11635997738
11636006344
11636013363
11636021053
11636029598
11636034908
11636042477
11636052364
11636058407
11636068295
11636076412
11636084164
11636094906
11636100216
11636108639
11636115047
11636126217
11636131405
11636139889
11636147823
11636152950
11636163448
11636169796
11636179134
11636185604
11636199337
11636205929
11636211727
11636221248
11636230281
11636238216
11636252498
11636259212
11636270076
11636276912
11636287105
11636294857
11636303218
11636310176
11636318172
11636326228
11636334285
11636340267
11636349483
11636356441
11636365596
11636372310
11636380000
11636386348
11636394221
11636400874
11636408687
11636417598
11636425166
11636431758
11636439387
11636446712
11636453181
11636460017
11636469783
11636478145
11636486018
11636493464
11636499995
11636507075
11636515193
11636524470
11636532405
11636539424
11636549433
11636555842
11636563838
11636571162
11636581233
11636588130
11636596430
11636602412
11636611689
11636619074
11636628474
11636635188
11636641963
11636650202
11636658564
11636666377
11636674799
11636683161
11636690302
11636697504
11636705378
11636713801
11636721125
11636727595
11636736079
11636746027
11636754511
11636761835
11636769221
11636776911
11636784052
11636794123
11636801264
11636808649
11636816401
11636823175
11636832270
11636839106
11636844721
11636855646
11636864496
11636870661
11636877619
11636885797
11636895563
11636900812
11636914301
11636923639
11636929437
11636940363
11636945429
11636954889
11636962640
11636973199
11636981561
11636990778
11637000360
11637009576
11637016534
11637023736
11637032342
11637040765
11637048883
11637057794
11637064691
11637071710
11637079156
11637088678
11637096734
11637103936
11637110772
11637117669
11637126764
11637134027
11637140741
11637150079
11637155755
11637165521
11637172784
11637182427
11637189935
11637197259
11637207818
11637214471
11637221246
11637229302
11637236871
11637245110
11637255242
11637262261
11637268365
11637276604
11637284722
11637291863
11637301629
11637307549
11637317864
11637323479
11637332757
11637339043
11637346429
11637354241
11637360222
11637369561
11637377129
11637386101
11637393059
11637400200
11637409844
11637416375
11637424920
11637431450
11637439995
11637445366
11637453789
11637463677
11637472771
11637479668
11637486992
11637495110
11637501457
11637508843
11637518852
11637527275
11637537468
11637544487
11637553154
11637560234
11637570244
11637577690
11637586601
11637595818
11637601494
11637610771
11637619987
11637626396
11637636345
11637645073
11637653801
11637663505
11637670524
11637678093
11637687858
11637696891
11637703605
11637711174
11637717521
11637726371
11637732536
11637741874
11637749198
11637757316
11637765251
11637773551
11637779777
11637786857
11637796684
11637803825
11637811332
11637819206
11637827934
11637835990
11637842521
11637851371
11637859855
11637866386
11637874564
11637884025
11637891044
11637900687
11637908073
11637915031
11637921439
11637930533
11637939261
11637946158
11637953422
11637961783
11637970939
11637979667
11637987601
11637995902
11638001456
11638010367
11638018912
11638027152
11638034476
11638040946
11638050040
11638056571
11638065177
11638072989
11638078971
11638089408
11638095633
11638104117
11638109671
11638120230
11638129813
11638139395
11638146292
11638154227
11638160757
11638166800
11638175101
11638182791
11638191763
11638198843
11638205252
11638216055
11638223501
11638229361
11638239187
11638247732
11638256766
11638263052
11638270804
11638279165
11638287527
11638301260
11638308828
11638316214
11638323904
11638333303
11638339773
11638349050
11638362722
11638370596
11638378347
11638386404
11638391897
11638402822
11638412039
11638420950
11638426443
11638436392
11638442800
11638452322
11638460012
11638469289
11638477529
11638484853
11638492666
11638501943
11638509634
11638516897
11638525930
11638533071
11638540945
11638548330
11638555349
11638564382
11638573903
11638580190
11638588613
11638595937
11638602834
11638611379
11638618154
11638625417
11638635976
11638642812
11638647817
11638657643
11638663259
11638672231
11638679555
11638688771
11638696095
11638701955
11638710988
11638717397
11638727162
11638735219
11638742726
11638750356
11638759328
11638766713
11638774953
11638782155
11638791249
11638798512
11638806386
11638812123
11638819997
11638829152
11638835499
11638845326
11638852284
11638860646
11638869191
11638876942
11638883534
11638889760
11638898854
11638905507
11638914296
11638920399
11638929249
11638935353
11638943714
11638951893
11638960438
11638969471
11638979481
11638988819
11638996449
11639006092
11639014820
11639021168
11639030872
11639039417
11639047840
11639055470
11639066761
11639076405
11639085499
11639094105
11639102467
11639108692
11639118580
11639127186
11639132801
11639141651
11639147266
11639157764
11639164417
11639173267
11639179188
11639188526
11639197132
11639202808
11639212513
11639220081
11639226795
11639237476
11639242908
11639250782
11639258655
11639265552
11639274036
11639281299
11639290515
11639300159
11639307422
11639314502
11639321277
11639331348
11639338672
11639345264
11639355335
11639361865
11639369312
11639376392
11639384204
11639390796
11639398486
11639409350
11639416247
11639422351
11639431262
11639438403
11639444995
11639453601
11639462573
11639471484
11639481494
11639491137
11639498645
11639506396
11639517199
11639527148
11639532946
11639541674
11639550341
11639557849
11639567065
11639573413
11639582751
11639589770
11639596423
11639605029
11639615893
11639622973
11639633166
11639640185
11639647082
11639655627
11639662280
11639670153
11639679552
11639690539
11639699084
11639707506
11639716296
11639724352
11639734301
11639749926
11639756701
11639763842
11639772326
11639781298
11639787645
11639798266
11639803392
11639812243
11639818590
11639826647
11639835802
11639843187
11639850084
11639858141
11639866442
11639873705
11639879198
11639889879
11639897203
11639907152
11639913805
11639922411
11639928941
11639934251
11639943285
11639952745
11639958604
11639963487
11639968370
11639975572
11639979784
11639986314
11639995286
11640001634
11640007921
11640012315
11640017503
11640022142
11640026658
11640033433
11640037828
11640043870
11640047960
11640054246
11640058824
11640065355
11640070054
11640077134
11640083909
11640089219
11640093492
11640101548
11640106675
11640109300
11640116685
11640123155
11640129197
11640135118
11640139695
11640145433
11640150743
11640157151
11640160813
11640167527
11640172654
11640179429
11640184434
11640189683
11640194322
11640201097
11640205308
11640211167
11640218064
11640225022
11640230821
11640234544
11640240342
11640244553
11640249253
11640255235
11640263474
11640270127
11640275986
11640281907
11640290208
11640296433
11640305222
11640315537
11640321274
11640333176
11640340867
11640347092
11640353013
11640360398
11640366196
11640372117
11640375779
11640382126
11640388291
11640392685
11640396592
11640403366
11640409409
11640414475
11640419907
11640424912
11640429795
11640435776
11640439438
11640444626
11640450241
11640456589
11640460739
11640465500
11640470200
11640475510
11640480637
11640485642
11640490952
11640497482
11640501694
11640506821
11640512192
11640517136
11640519699
11640526535
11640533310
11640539108
11640543564
11640549973
11640554306
11640559189
11640565598
11640569931
11640576828
11640581711
11640588913
11640594345
11640599411
11640604355
11640609299
11640614548
11640620285
11640627731
11640633468
11640638473
11640643905
11640649093
11640654587
11640658798
11640663620
11640670578
11640676620
11640681625
11640688217
11640693771
11640701522
11640706466
11640716049
11640723251
11640730148
11640735458
11640743454
11640747726
11640753829
11640759628
11640765304
11640771896
11640778854
11640784225
11640788619
11640795516
11640800338
11640805831
11640811569
11640815597
11640823959
11640829574
11640834579
11640840194
11640846114
11640849899
11640855819
11640859664
11640866622
11640873641
11640877425
11640885482
11640890060
11640896285
11640902145
11640908675
11640916610
11640923018
11640927779
11640934188
11640939620
11640947066
11640951339
11640956588
11640962386
11640968123
11640973250
11640977706
11640982528
11640988814
11640993941
11640998946
11641003829
11641010299
11641014998
11641020980
11641025923
11641030440
11641034652
11641041548
11641048018
11641053206
11641057723
11641063155
11641068953
11641073104
11641079634
11641085188
11641091475
11641097701
11641102400
11641108016
11641112227
11641118208
11641122481
11641129134
11641134505
11641140425
11641147322
11641152388
11641157332
11641162886
11641167952
11641172835
11641180281
11641186018
11641191145
11641195479
11641200972
11641205855
11641211226
11641218123
11641223494
11641230635
11641236494
11641241926
11641247420
11641252058
11641257734
11641261946
11641266279
11641274397
11641281782
11641286360
11641292341
11641296858
11641302412
11641307600
11641312361
11641318464
11641325300
11641330854
11641337202
11641342268
11641345869
11641352949
11641358198
11641363081
11641369856
11641375654
11641381574
11641387129
11641391950
11641397688
11641403425
11641409040
11641413679
11641418684
11641425520
11641431135
11641436628
11641444379
11641452497
11641461408
11641466657
11641476057
11641484113
11641491682
11641495405
11641506025
11641510725
11641518354
11641526044
11641530988
11641536970
11641542768
11641546735
11641551435
11641558637
11641564557
11641571515
11641577253
11641583661
11641587140
11641593305
11641598310
11641603376
11641608258
11641614057
11641621564
11641627668
11641630597
11641639203
11641643659
11641649335
11641654889
11641660382
11641663983
11641672223
11641675092
11641681317
11641685346
11641691022
11641697370
11641701703
11641707196
11641713056
11641719769
11641724957
11641730145
11641735516
11641740582
11641746075
11641752057
11641756818
11641762982
11641768964
11641774518
11641779279
11641784955
11641789288
11641795697
11641800946
11641807477
11641812054
11641816876
11641823285
11641827191
11641833661
11641839276
11641844525
11641849774
11641856488
11641861615
11641866436
11641871380
11641876996
11641881756
11641887921
11641895733
11641902081
11641908001
11641912213
11641916790
11641922772
11641929852
11641935162
11641941082
11641946575
11641951763
11641957562
11641962506
11641967449
11641972943
11641979168
11641985211
11641989605
11641997173
11642001751
11642007061
11642011883
11642019451
11642023480
11642029400
11642034771
11642042339
11642046795
11642053997
11642059429
11642066326
11642070843
11642078228
11642083050
11642090679
11642098797
11642107403
11642112591
11642120891
11642126324
11642133587
11642138836
11642145611
11642150432
11642157696
11642162822
11642169780
11642174358
11642181438
11642186687
11642191997
11642197734
11642202678
11642207622
11642212993
11642218242
11642223552
11642229839
11642236431
11642241008
11642246379
11642251750
11642256023
11642261760
11642267131
11642275066
11642279460
11642285747
11642291545
11642296306
11642300762
11642307964
11642313579
11642320049
11642326030
11642332622
11642337871
11642342998
11642348491
11642353374
11642358806
11642364726
11642370097
11642377116
11642381999
11642387553
11642392375
11642397868
11642402080
11642407939
11642412761
11642420451
11642425334
11642432658
11642438029
11642445109
11642450664
11642458659
11642463908
11642470073
11642475566
11642481242
11642488505
11642493876
11642499308
11642505473
11642511149
11642516520
11642522990
11642527995
11642534098
11642540568
11642546488
11642551432
11642555949
11642564555
11642570109
11642575663
11642582926
11642587870
11642593302
11642601298
11642605753
11642612833
11642622599
11642628031
11642635416
11642644205
11642649210
11642656351
11642664347
11642671854
11642679728
11642689249
11642701395
11642707499
11642717509
11642725870
11642733866
11642742655
11642747355
11642758951
11642766703
11642775126
11642781534
11642788492
11642793985
11642799906
11642806192
11642811258
11642816935
11642822794
11642828897
11642834024
11642839456
11642845621
11642851175
11642855570
11642861246
11642865946
11642872721
11642876932
11642882669
11642889566
11642895242
11642900369
11642907938
11642913492
11642921549
11642926492
11642931314
11642938455
11642942911
11642949991
11642954263
11642960062
11642967203
11642973917
11642978982
11642985086
11642990396
11642996438
11643001260
11643006326
11643013772
11643020852
11643025552
11643030801
11643035989
11643041849
11643047159
11643053201
11643059121
11643065225
11643071389
11643078408
11643083596
11643087564
11643094339
11643099221
11643105081
11643110940
11643116922
11643122476
11643127969
11643133645
11643139749
11643144631
11643150064
11643155618
11643161660
11643167336
11643171914
11643178323
11643181985
11643189126
11643193826
11643200417
11643205972
11643211587
11643217629
11643222634
11643228799
11643233804
11643238442
11643244057
11643249062
11643256692
11643261452
11643267983
11643273232
11643278176
11643283791
11643289529
11643295876
11643302956
11643308083
11643314553
11643321511
11643326943
11643332619
11643338662
11643345376
11643351296
11643356057
11643362832
11643368935
11643375039
11643379494
11643385109
11643392556
11643398293
11643403908
11643409584
11643414223
11643419838
11643424172
11643429116
11643435829
11643441994
11643447487
11643453774
11643458168
11643463967
11643469094
11643474709
11643480141
11643487099
11643492348
11643498207
11643503090
11643508095
11643513771
11643519630
11643523903
11643530922
11643537025
11643539833
11643548073
11643552772
11643558144
11643563271
11643568886
11643575172
11643580910
11643586647
11643592079
11643596901
11643602821
11643607094
11643612160
11643619423
11643624672
11643631935
11643635597
11643642006
11643647194
11643652076
11643656654
11643663795
11643670692
11643677467
11643682777
11643687904
11643693214
11643698829
11643704628
11643708778
11643716224
11643721962
11643727882
11643732276
11643738380
11643743934
11643748207
11643754127
11643760658
11643766151
11643770484
11643776893
11643782997
11643788429
11643794044
11643799720
11643807349
11643811988
11643818519
11643822547
11643829627
11643834998
11643840675
11643847511
11643851722
11643857520
11643865699
11643869727
11643876197
11643882117
11643888282
11643891822
11643900123
11643908484
11643916785
11643922645
11643932166
11643937293
11643945899
11643950782
11643957374
11643963782
11643970130
11643977088
11643983069
11643991675
11643997718
11644001807
11644006751
11644014319
11644019751
11644025061
11644029639
11644033667
11644039954
11644046057
11644051551
11644058386
11644063330
11644068152
11644074561
11644079321
11644085364
11644090064
11644096777
11644104041
11644109351
11644112036
11644119360
11644124854
11644130225
11644134619
11644140845
11644147375
11644152808
11644157996
11644163245
11644168860
11644173621
11644178076
11644183081
11644189184
11644194494
11644199499
11644204993
11644210608
11644214758
11644220984
11644226477
11644232031
11644238012
11644242773
11644248449
11644254736
11644258886
11644265356
11644270239
11644275427
11644281530
11644287207
11644292761
11644297949
11644302343
11644309606
11644314306
11644320410
11644326940
11644333105
11644339086
11644343298
11644347631
11644354284
11644358801
11644366552
11644372534
11644378027
11644384130
11644390173
11644396154
11644401769
11644407995
11644413976
11644418676
11644426916
11644432836
11644437963
11644442663
11644447546
11644452489
11644459631
11644464330
11644471593
11644476903
11644485387
11644491552
11644498510
11644505651
11644512548
11644519140
11644525854
11644532567
11644537267
11644544652
11644549901
11644557225
11644562719
11644567724
11644573217
11644579198
11644584325
11644589147
11644599279
11644603917
11644610997
11644615575
11644620336
11644626927
11644630834
11644637914
11644641637
11644648778
11644655126
11644661534
11644666112
11644671178
11644677159
11644681432
11644687108
11644692296
11644697423
11644703099
11644708348
11644713597
11644718236
11644723790
11644733189
11644738805
11644745457
11644752232
11644762303
11644777379
11644789464
11644797459
11644805455
11644813267
11644821019
11644827244
11644833714
11644839757
11644844151
11644848546
11644853978
11644858616
11644863377
11644868443
11644872776
11644877842
11644884129
11644888890
11644894993
11644900486
11644903965
11644908604
11644914769
11644921055
11644925755
11644929783
11644934483
11644939549
11644944004
11644948887
11644954075
11644957859
11644965916
11644971226
11644975681
11644981297
11644986668
11644992222
11644996800
11645002049
11645006260
11645011692
11645018955
11645024815
11645029881
11645036045
11645039768
11645045933
11645051609
11645056736
11645064365
11645069248
11645074436
11645077854
11645083164
11645086765
11645090977
11645096897
11645101108
11645105686
11645110935
11645115635
11645119541
11645125339
11645129368
11645135715
11645140049
11645146030
11645150303
11645155430
11645161167
11645166050
11645171421
11645176426
11645181369
11645186130
11645192234
11645197788
11645202426
11645208103
11645217014
11645222446
11645227512
11645232761
11645237461
11645243076
11645247775
11645253086
11645257846
11645265048
11645270603
11645276035
11645280429
11645286166
11645290317
11645295261
11645304233
11645309421
11645314426
11645320041
11645324313
11645331088
11645336337
11645341342
11645345554
11645351474
11645356479
11645361423
11645367892
11645372836
11645377841
11645382419
11645388461
11645394626
11645401462
11645405063
11645411349
11645416354
11645421725
11645426181
11645431613
11645437777
11645443698
11645449252
11645454928
11645459750
11645465304
11645470797
11645476352
11645484957
11645488803
11645494540
11645501742
11645507968
11645513583
11645520785
11645527865
11645533541
11645543002
11645549288
11645556796
11645563449
11645568026
11645573519
11645580111
11645589694
11645596285
11645602145
11645606783
11645613863
11645618563
11645624239
11645631014
11645636996
11645641268
11645646883
11645651034
11645656771
11645662875
11645666476
11645673128
11645677584
11645684298
11645688570
11645695040
11645700350
11645705233
11645710177
11645715426
11645723177
11645728426
11645733004
11645738497
11645743319
11645748873
11645753145
11645759310
11645764071
11645771761
11645777315
11645782869
11645787142
11645793245
11645797762
11645802584
11645808077
11645815645
11645822542
11645826876
11645832125
11645837984
11645844148
11645847383
11645857149
11645864168
11645869539
11645872225
11645880892
11645885408
11645892671
11645897798
11645903841
11645910494
11645918428
11645922578
11645928682
11645934358
11645940950
11645944063
11645950777
11645957796
11645965852
11645971162
11645976228
11645983125
11645987581
11645993562
11645999238
11646005342
11646012483
11646020723
11646026338
11646032075
11646039033
11646044404
11646049470
11646055513
11646062837
11646068696
11646075105
11646079438
11646086152
11646092378
11646097322
11646103303
11646107881
11646113435
11646120332
11646124177
11646130647
11646135591
11646141999
11646146821
11646153962
11646161897
11646170014
11646175324
11646181428
11646186372
11646194734
11646199006
11646207490
11646213410
11646220979
11646226716
11646230744
11646236665
11646240327
11646246857
11646251862
11646257111
11646261506
11646269807
11646275056
11646281220
11646286347
11646291230
11646298737
11646303193
11646308381
11646314179
11646318268
11646324250
11646328766
11646333588
11646338837
11646345612
11646350251
11646355622
11646359406
11646365876
11646371491
11646376862
11646381928
11646387543
11646394013
11646399079
11646404755
11646409638
11646414765
11646420258
11646425751
11646431488
11646436676
11646440705
11646446564
11646451996
11646456330
11646461334
11646469330
11646475495
11646480316
11646485870
11646490997
11646497223
11646502594
11646507660
11646513886
11646520721
11646526886
11646532074
11646538177
11646543426
11646550323
11646555084
11646560821
11646566864
11646573089
11646579437
11646584442
11646589569
11646595001
11646600921
11646606048
11646612274
11646620819
11646626800
11646629852
11646636810
11646641571
11646646759
11646654022
11646659332
11646664886
11646669708
11646675628
11646682281
11646686981
11646694427
11646699188
11646704864
11646709686
11646715850
11646721649
11646727447
11646735015
11646743133
11646751556
11646758026
11646762298
11646771758
11646778350
11646784149
11646790557
11646797210
11646803924
11646809844
11646814239
11646822112
11646826446
11646833221
11646837493
11646843230
11646847442
11646852264
11646859222
11646864898
11646870452
11646876067
11646880950
11646886748
11646891875
11646896209
11646901580
11646908538
11646914580
11646920623
11646924834
11646931243
11646935271
11646940886
11646947417
11646955169
11646961028
11646966033
11646972686
11646977446
11646983428
11646988921
11646993560
11646999663
11647006926
11647012175
11647015959
11647023162
11647027739
11647033660
11647038115
11647044829
11647051299
11647055876
11647062163
11647067473
11647071929
11647077849
11647082366
11647087553
11647092925
11647099516
11647105193
11647111235
11647116118
11647119719
11647125822
11647131987
11647137724
11647143889
11647150175
11647155119
11647160612
11647166472
11647170683
11647176237
11647181853
11647186491
11647193083
11647197539
11647202788
11647209318
11647213041
11647219328
11647225065
11647230375
11647237455
11647242704
11647248503
11647253813
11647258879
11647264982
11647270231
11647276762
11647283293
11647290434
11647297087
11647304838
11647311247
11647317411
11647325224
11647331449
11647339811
11647350797
11647361662
11647368559
11647375578
11647382963
11647391386
11647399931
11647406889
11647415617
11647421354
11647434476
11647440580
11647448453
11647453275
11647459562
11647465848
11647472928
11647479032
11647489530
11647495511
11647501859
11647506803
11647511747
11647516569
11647522062
11647530362
11647535917
11647540433
11647545926
11647550809
11647556302
11647560758
11647567472
11647573331
11647578885
11647584684
11647589811
11647594937
11647601895
11647606046
11647611661
11647618802
11647624234
11647629300
11647636807
11647640958
11647646939
11647653104
11647659085
11647666226
11647670865
11647675504
11647682217
11647686917
11647694241
11647698941
11647704068
11647709927
11647717252
11647723294
11647727750
11647733975
11647740445
11647746365
11647749539
11647756985
11647761990
11647767361
11647774808
11647780667
11647786160
11647790188
11647797757
11647801663
11647807705
11647816128
11647822720
11647827481
11647833462
11647840237
11647845791
11647850552
11647855740
11647862820
11647869534
11647874112
11647880093
11647886563
11647891690
11647897061
11647903164
11647910000
11647917813
11647921536
11647929165
11647935330
11647941128
11647946621
11647951748
11647961636
11647971645
11647978909
11647985195
11647993252
11648002590
11648011623
11648018154
11648024868
11648033352
11648046352
11648052212
11648062832
11648070583
11648077053
11648084560
11648091274
11648099331
11648107265
11648115017
11648118740
11648127163
11648131984
11648138149
11648143276
11648150295
11648155422
11648160549
11648165859
11648171840
11648176967
11648181240
11648188198
11648191066
11648198146
11648205593
11648211574
11648214504
11648221645
11648227382
11648231716
11648237514
11648241603
11648248622
11648254970
11648259914
11648265346
11648270351
11648275661
11648280849
11648285610
11648291042
11648298183
11648305812
11648309718
11648315395
11648321193
11648326625
11648331630
11648337123
11648342799
11648348842
11648355311
11648358729
11648365382
11648369960
11648376308
11648381312
11648386744
11648392604
11648399684
11648404811
11648409938
11648414210
11648421229
11648427150
11648432887
11648438868
11648443629
11648447779
11648454737
11648459132
11648466700
11648472071
11648478114
11648483424
11648490199
11648496180
11648502955
11648508692
11648514369
11648520716
11648529078
11648534205
11648543971
11648550746
11648558863
11648564784
11648572840
11648582056
11648587794
11648592432
11648604395
11648611720
11648618800
11648627467
11648634547
11648641993
11648650233
11648659693
11648667444
11648673304
11648682215
11648688746
11648701319
11648709314
11648716822
11648724756
11648734827
11648742579
11648749414
11648757288
11648763391
11648774927
11648780420
11648788599
11648793543
11648799219
11648806055
11648810755
11648816126
11648823145
11648830103
11648834863
11648840112
11648846460
11648851343
11648857630
11648861292
11648870081
11648875330
11648880579
11648885950
11648889063
11648895960
11648900232
11648906702
11648911584
11648916589
11648923486
11648930749
11648935876
11648943323
11648948450
11648955896
11648960168
11648968225
11648975183
11648981775
11648987024
11648995080
11649000207
11649005517
11649011743
11649018335
11649024621
11649031213
11649036645
11649041284
11649047265
11649053003
11649059289
11649067346
11649072717
11649079797
11649086328
11649090295
11649099267
11649104821
11649112695
11649119836
11649127404
11649132348
11649137292
11649144128
11649149011
11649155908
11649160851
11649166650
11649174218
11649179467
11649185571
11649191369
11649196923
11649204125
11649208520
11649214623
11649221642
11649227990
11649234215
11649240441
11649245812
11649251977
11649257165
11649262597
11649269555
11649277978
11649286339
11649292077
11649299828
11649308312
11649314660
11649321496
11649329064
11649338402
11649344994
11649355553
11649360131
11649370324
11649377037
11649382164
11649392052
11649399559
11649408898
11649418968
11649426903
11649433495
11649444908
11649453880
11649464195
11649471153
11649477928
11649485130
11649492210
11649497887
11649502953
11649508385
11649514366
11649520103
11649525230
11649531883
11649536705
11649541771
11649547447
11649552696
11649557640
11649563866
11649569908
11649577293
11649582603
11649588524
11649593467
11649598533
