11208860587
11208865897
11208871634
11208876456
11208881095
11208887015
11208891288
11208896659
11208902640
11208907096
11208912039
11208919181
11208923636
11208930655
11208936515
11208942618
11208947745
11208952323
11208958670
11208965018
11208969901
11208976370
11208982413
11208986502
11208995169
11208999991
11209004752
11209011343
11209015921
11209021964
11209027457
11209034903
11209041800
11209046683
11209055472
11209061758
11209069571
11209077078
11209083853
11209091604
11209099234
11209105337
11209111136
11209120169
11209129385
11209137076
11209141775
11209150503
11209159842
11209168936
11209173697
11209182425
11209188101
11209194448
11209197988
11209206350
11209211294
11209217459
11209224234
11209229910
11209236318
11209244070
11209250112
11209254507
11209262014
11209266165
11209272634
11209277212
11209285085
11209289785
11209297292
11209302358
11209310415
11209314993
11209322561
11209327261
11209335744
11209341482
11209347097
11209354909
11209360403
11209365652
11209372732
11209378408
11209385183
11209390554
11209397451
11209403188
11209410146
11209416616
11209423086
11209427602
11209434499
11209439748
11209446645
11209452565
11209458730
11209464711
11209470937
11209476918
11209483144
11209489919
11209496450
11209502858
11209509084
11209515431
11209521596
11209527638
11209533925
11209539174
11209546376
11209557424
11209563954
11209570546
11209574574
11209583424
11209589711
11209595998
11209603322
11209608022
11209626698
11209632741
11209639210
11209646718
11209652943
11209659291
11209666249
11209672841
11209675893
11209685231
11209691334
11209697377
11209702809
11209708668
11209715565
11209726979
11209736805
11209742665
11209751454
11209758534
11209766407
11209774891
11209781910
11209787403
11209792530
11209800587
11209808033
11209814381
11209819813
11209826222
11209833119
11209839466
11209846546
11209851185
11209857899
11209864185
11209870594
11209875416
11209882618
11209889271
11209895619
11209900318
11209908131
11209912708
11209919849
11209924610
11209932850
11209938831
11209944508
11209949573
11209956959
11209964771
11209970631
11209976368
11209985279
11209990711
11209997425
11210004200
11210011097
11210016163
11210023792
11210030872
11210037403
11210044178
11210049915
11210056873
11210062854
11210069568
11210076709
11210083789
11210091419
11210097034
11210104785
11210110706
11210119678
11210125965
11210133411
11210140369
11210146533
11210158618
11210169727
11210178088
11210184802
11210190295
11210199634
11210205981
11210213855
11210221973
11210229114
11210237170
11210244067
11210250049
11210257373
11210266223
11210271838
11210280871
11210289172
11210296130
11210303393
11210310473
11210317126
11210325427
11210331530
11210339343
11210347644
11210354174
11210362048
11210367297
11210376208
11210383960
11210389697
11210397326
11210407946
11210420825
11210430102
11210439135
11210448535
11210455981
11210468615
11210476672
11210484606
11210491991
11210497546
11210505663
11210513415
11210521105
11210527148
11210535754
11210542040
11210548266
11210557604
11210562914
11210572069
11210579699
11210586779
11210592943
11210601366
11210607714
11210616198
11210624132
11210630419
11210638720
11210646959
11210653002
11210660814
11210669115
11210673937
11210682726
11210688951
11210698229
11210705370
11210714464
11210720568
11210729601
11210735826
11210742418
11210751390
11210757738
11210764879
11210772447
11210779405
11210785570
11210796190
11210803148
11210809251
11210817552
11210825548
11210831651
11210840440
11210846727
11210855150
11210861558
11210868638
11210878282
11210886217
11210893785
11210900010
11210907823
11210915757
11210922349
11210930528
11210936876
11210944993
11210953050
11210959092
11210966722
11210975877
11210980882
11210990220
11210997178
11211003953
11211010728
11211019639
11211026902
11211034287
11211041551
11211048448
11211054490
11211062974
11211072312
11211079759
11211088242
11211094834
11211101060
11211111008
11211118150
11211124619
11211131699
11211138535
11211145188
11211154893
11211161484
11211168442
11211176926
11211182603
11211193284
11211201706
11211208909
11211224778
11211233689
11211241013
11211248520
11211258774
11211266281
11211272751
11211282334
11211289353
11211297104
11211304245
11211308335
11211318650
11211324875
11211333237
11211341477
11211349533
11211355942
11211362290
11211371506
11211377487
11211384628
11211393478
11211400620
11211409164
11211416000
11211423996
11211431198
11211438522
11211445785
11211452072
11211461777
11211468185
11211475448
11211483566
11211491501
11211497848
11211504013
11211513290
11211520126
11211527328
11211536789
11211545761
11211551864
11211560958
11211565109
11211574874
11211581771
11211591476
11211597763
11211605636
11211613876
11211621810
11211628097
11211636337
11211642623
11211651351
11211657638
11211665817
11211675033
11211679977
11211688155
11211694503
11211703414
11211709579
11211718124
11211726730
11211734237
11211740340
11211746932
11211756087
11211760909
11211771041
11211778060
11211785262
11211791671
11211801070
11211807235
11211816329
11211824447
11211831710
11211837996
11211845992
11211854232
11211864058
11211870223
11211878890
11211885054
11211889266
11211901229
11211905318
11211915450
11211921919
11211931258
11211937483
11211945418
11211953597
11211959334
11211967574
11211973616
11211982710
11211988081
11211998457
11212007185
11212015303
11212019637
11212029646
11212036787
11212047102
11212054426
11212063399
11212072798
11212084517
11212088484
11212098372
11212104780
11212113386
11212119612
11212127241
11212136396
11212144453
11212150618
11212155622
11212164717
11212171553
11212179792
11212188887
11212196028
11212202253
11212210310
11212218672
11212226362
11212232649
11212238996
11212250654
11212258344
11212266645
11212269575
11212281660
11212288435
11212295515
11212299787
11212310957
11212318159
11212324750
11212332990
11212339460
11212347639
11212355512
11212361860
11212370771
11212377057
11212382062
11212391767
11212395795
11212408429
11212412458
11212421735
11212428205
11212436078
11212444440
11212452008
11212460370
11212468427
11212474530
11212482465
11212488874
11212497235
11212504315
11212512067
11212521588
11212528363
11212537091
11212543378
11212552045
11212558698
11212566937
11212576276
11212582562
11212591595
11212598004
11212606732
11212611127
11212619122
11212624860
11212633160
11212640057
11212649274
11212660016
11212668378
11212675824
11212686444
11212692669
11212702496
11212709149
11212718365
11212723797
11212733014
11212738385
11212748455
11212755780
11212762432
11212770062
11212777020
11212784649
11212791363
11212797833
11212807598
11212813580
11212822308
11212829144
11212838665
11212846050
11212859173
11212870831
11212879131
11212887432
11212894329
11212902630
11212910564
11212918438
11212926983
11212935406
11212941753
11212950420
11212961651
11212970318
11212976482
11212984417
11212990032
11212998272
11213004009
11213011760
11213018169
11213026897
11213035686
11213042949
11213048687
11213056438
11213063030
11213069439
11213076030
11213082073
11213091594
11213097576
11213105754
11213111370
11213118572
11213126262
11213133159
11213138835
11213148662
11213154704
11213161479
11213169902
11213174968
11213181621
11213187480
11213196025
11213202068
11213210918
11213217143
11213224528
11213232341
11213238444
11213246074
11213253276
11213258891
11213268046
11213276042
11213283915
11213289775
11213296428
11213304728
11213311564
11213318095
11213324138
11213332133
11213338237
11213346659
11213352336
11213360453
11213366313
11213374308
11213382243
11213390483
11213396525
11213404338
11213412028
11213421305
11213428691
11213434916
11213440531
11213449748
11213457804
11213466227
11213473612
11213479777
11213485575
11213493815
11213501627
11213509928
11213517802
11213524149
11213529948
11213538309
11213544108
11213547953
11213558878
11213563761
11213572794
11213582743
11213590616
11213599466
11213607279
11213616373
11213624552
11213638468
11213647135
11213655375
11213666849
11213674539
11213680338
11213689676
11213697916
11213705606
11213711527
11213719278
11213724954
11213730936
11213739664
11213744180
11213753214
11213760538
11213767557
11213774332
11213785257
11213791666
11213801126
11213807657
11213816873
11213824930
11213832071
11213839639
11213847391
11213853494
11213862527
11213868875
11213877847
11213884073
11213892984
11213899087
11213907205
11213915567
11213922097
11213929300
11213936929
11213944192
11213950601
11213959939
11213966165
11213974527
11213982888
11213987649
11213996865
11214002481
11214011636
11214018044
11214027139
11214031350
11214043069
11214047097
11214057595
11214064004
11214071877
11214080300
11214086648
11214094827
11214101846
11214110268
11214116738
11214125832
11214132119
11214139260
11214147378
11214156533
11214164467
11214171792
11214178811
11214186135
11214192238
11214200478
11214209939
11214218056
11214224221
11214232399
11214240578
11214245583
11214254982
11214262490
11214269570
11214276650
11214284584
11214290749
11214299416
11214307595
11214315773
11214321938
11214328468
11214338112
11214346169
11214352394
11214360878
11214368385
11214372536
11214384254
11214392555
11214400429
11214407814
11214421425
11214429787
11214439125
11214445351
11214455360
11214460792
11214470741
11214478676
11214486793
11214493019
11214502113
11214508339
11214516945
11214523170
11214532020
11214538063
11214547157
11214553321
11214560890
11214567909
11214574989
11214582130
11214591041
11214596961
11214605506
11214612586
11214620765
11214627845
11214636146
11214640968
11214650062
11214656959
11214664039
11214671241
11214679603
11214685584
11214694617
11214701026
11214709449
11214717811
11214724830
11214733253
11214740089
11214748389
11214753638
11214762916
11214767005
11214777991
11214782264
11214793128
11214800025
11214808387
11214814673
11214823157
11214832007
11214838538
11214847022
11214852759
11214862036
11214868079
11214877600
11214884619
11214891883
11214898108
11214906653
11214912818
11214921424
11214929785
11214937354
11214945654
11214953406
11214959448
11214967932
11214976172
11214982520
11214989722
11214997168
11215005408
11215011694
11215020544
11215026709
11215035864
11215044165
11215051489
11215059668
11215066443
11215074743
11215082190
11215088354
11215095984
11215103125
11215111364
11215118506
11215124975
11215134924
11215141699
11215149450
11215156103
11215163122
11215171362
11215179479
11215187841
11215196203
11215202368
11215207617
11215219579
11215223852
11215233618
11215240576
11215250707
11215259557
11215271886
11215281774
11215288915
11215297338
11215303442
11215312109
11215319433
11215329320
11215336462
11215340490
11215351842
11215356176
11215365636
11215371007
11215380285
11215386937
11215394506
11215402684
11215410924
11215417333
11215425878
11215432103
11215440587
11215447789
11215456578
11215465612
11215470861
11215485692
11215495030
11215503758
11215513402
11215521275
11215531041
11215538426
11215545262
11215550938
11215557103
11215563634
11215569981
11215576756
11215584508
11215590611
11215597081
11215603734
11215610387
11215617345
11215623326
11215630772
11215638463
11215644627
11215651158
11215658177
11215664647
11215671605
11215676304
11215684117
11215691807
11215698765
11215703892
11215711461
11215718358
11215723423
11215730687
11215736973
11215745640
11215752171
11215760472
11215767063
11215770970
11215781407
11215787632
11215794590
11215800328
11215810032
11215816319
11215824803
11215831089
11215837803
11215847019
11215854221
11215861301
11215871372
11215879429
11215886021
11215893284
11215901340
11215908543
11215914768
11215923435
11215930027
11215940220
11215946445
11215954929
11215961033
11215967930
11215976413
11215983921
11215993259
11216004612
11216010715
11216021091
11216028354
11216038425
11216045688
11216053012
11216062473
11216069858
11216076816
11216083896
11216090854
11216096591
11216103549
11216111301
11216118686
11216124606
11216131931
11216137363
11216145725
11216151035
11216159335
11216166110
11216172763
11216179416
11216188266
11216196017
11216202548
11216209811
11216216403
11216222018
11216230563
11216236178
11216245822
11216251437
11216259921
11216265658
11216273471
11216280917
11216287143
11216294833
11216301913
11216309787
11216317050
11216323397
11216327426
11216337863
11216344882
11216353122
11216359286
11216369418
11216375643
11216383822
11216392001
11216398409
11216406832
11216414157
11216420260
11216428927
11216437350
11216443881
11216450900
11216458102
11216466647
11216472933
11216482027
11216488680
11216498568
11216507540
11216514864
11216520907
11216529391
11216535677
11216541964
11216551485
11216557894
11216567110
11216574618
11216581820
11216588656
11216596041
11216605013
11216612398
11216618868
11216626619
11216634920
11216642366
11216650606
11216657808
11216665132
11216670015
11216679170
11216689363
11216695467
11216702486
11216709688
11216715791
11216726228
11216732637
11216740999
11216747530
11216756319
11216762605
11216769197
11216779451
11216787141
11216794832
11216803255
11216811677
11216818574
11216832490
11216840120
11216849214
11216857087
11216863191
11216867341
11216879426
11216883760
11216894929
11216899324
11216908601
11216914766
11216924287
11216930574
11216937654
11216945832
11216951875
11216959504
11216966340
11216974763
11216980012
11216988374
11216995393
11217002534
11217007112
11217017243
11217023469
11217032563
11217038667
11217046784
11217055024
11217062104
11217070466
11217079682
11217085969
11217092988
11217102143
11217107941
11217117219
11217122163
11217132172
11217140046
11217147309
11217153473
11217161957
11217168061
11217174958
11217183381
11217190217
11217199433
11217206879
11217214203
11217218293
11217230378
11217237275
11217244904
11217251190
11217260102
11217266510
11217275543
11217281891
11217290985
11217297150
11217305878
11217312042
11217317780
11217327118
11217331452
11217341766
11217348663
11217356476
11217362701
11217371490
11217379852
11217386688
11217395477
11217405548
11217411896
11217421905
11217428253
11217436737
11217442962
11217449249
11217458465
11217465362
11217474518
11217480987
11217488250
11217496002
11217503387
11217509491
11217518951
11217525421
11217536163
11217542938
11217550323
11217556427
11217564544
11217573028
11217581390
11217588470
11217597686
11217608489
11217616912
11217624420
11217634002
11217640411
11217650420
11217657378
11217665984
11217673309
11217680022
11217687713
11217694121
11217703033
11217708465
11217716155
11217723662
11217732085
11217739409
11217745696
11217753203
11217760711
11217766509
11217773345
11217782439
11217790923
11217796965
11217801970
11217812346
11217820220
11217827605
11217834563
11217842009
11217848967
11217857512
11217865935
11217871184
11217880339
11217887725
11217894805
11217899870
11217908721
11217916045
11217925139
11217931487
11217939360
11217945586
11217954192
11217962431
11217969450
11217978056
11217985686
11217991972
11217998869
11218008208
11218013090
11218022429
11218026762
11218037138
11218043303
11218053129
11218059355
11218068815
11218075224
11218083464
11218089750
11218096098
11218105436
11218114042
11218120268
11218124479
11218134550
11218140654
11218149015
11218158110
11218165068
11218171598
11218179899
11218188200
11218195890
11218202238
11218207060
11218217191
11218221525
11218231352
11218238004
11218248624
11218255705
11218261991
11218270292
11218278165
11218284513
11218293546
11218299955
11218308500
11218314725
11218323026
11218330228
11218334440
11218346891
11218351102
11218361112
11218367338
11218376981
11218385221
11218391080
11218401456
11218409269
11218417997
11218425565
11218432523
11218446195
11218451505
11218461454
11218468656
11218477567
11218483853
11218492703
11218499173
11218507901
11218516141
11218523038
11218531217
11218536343
11218545499
11218553494
11218560452
11218564481
11218575955
11218579800
11218589444
11218596036
11218603604
11218610013
11218617947
11218626431
11218633694
11218641995
11218649014
11218655484
11218663968
11218671292
11218675625
11218686673
11218693570
11218701809
11218708157
11218716336
11218724453
11218731228
11218739651
11218746487
11218755032
11218764248
11218770657
11218777188
11218786282
11218792019
11218801418
11218809658
11218816921
11218825039
11218832180
11218838467
11218847927
11218854031
11218861782
11218870388
11218876553
11218885769
11218893093
11218899258
11218903347
11218915676
11218921169
11218930385
11218937710
11218945034
11218951442
11218960109
11218968288
11218975734
11218981899
11218988674
11218997951
11219004848
11219012233
11219016506
11219028286
11219032314
11219041286
11219047634
11219057338
11219063625
11219072780
11219079250
11219085842
11219094997
11219101711
11219109035
11219117030
11219124233
11219128444
11219140102
11219147182
11219155116
11219161403
11219168788
11219177211
11219183986
11219192653
11219198634
11219208766
11219220546
11219226710
11219235316
11219244960
11219252467
11219261744
11219267909
11219278407
11219285121
11219293055
11219298487
11219307032
11219314906
11219321376
11219328212
11219334986
11219340724
11219348780
11219354335
11219362879
11219368739
11219376490
11219383998
11219390650
11219398219
11219406886
11219414576
11219422205
11219428004
11219436243
11219441920
11219450465
11219456568
11219461573
11219472987
11219477991
11219487818
11219495203
11219502405
11219508631
11219516871
11219525477
11219534205
11219540552
11219548243
11219556421
11219559229
11219570582
11219575831
11219585291
11219589563
11219600428
11219606531
11219614710
11219623560
11219630823
11219637110
11219644983
11219653406
11219660730
11219670130
11219676904
11219684229
11219691492
11219698633
11219705774
11219715296
11219719385
11219729089
11219735315
11219744592
11219750879
11219757837
11219767053
11219773889
11219781152
11219788110
11219797571
11219802453
11219811853
11219818689
11219826501
11219832910
11219841699
11219850122
11219857690
11219863855
11219870324
11219879663
11219888086
11219894372
11219901269
11219908471
11219915551
11219926355
11219931359
11219939904
11219946191
11219954614
11219963586
11219969567
11219978478
11219987451
11219993737
11220001367
11220010705
11220019067
11220026330
11220033166
11220042809
11220055749
11220062035
11220071191
11220077294
11220086999
11220092919
11220099938
11220107690
11220116723
11220122460
11220130761
11220136437
11220143639
11220151269
11220158654
11220164330
11220172753
11220179589
11220188561
11220195763
11220202782
11220210106
11220216698
11220225365
11220234459
11220243126
11220249230
11220256493
11220264977
11220271813
11220279381
11220286766
11220292442
11220301293
11220307030
11220314537
11220322899
11220327843
11220337181
11220344017
11220351341
11220357567
11220366661
11220372887
11220382042
11220390221
11220396263
11220405723
11220413231
11220421593
11220430748
11220437828
11220445335
11220454063
11220458458
11220468345
11220474937
11220481651
11220487266
11220496849
11220502952
11220509971
11220515770
11220523338
11220530906
11220537315
11220545127
11220554344
11220560020
11220568748
11220574607
11220580222
11220588767
11220594566
11220602928
11220608665
11220617088
11220625022
11220631370
11220639732
11220646873
11220653831
11220662437
11220668906
11220678184
11220684409
11220693564
11220699851
11220707053
11220715476
11220722312
11220729697
11220737632
11220744651
11220751548
11220758750
11220767783
11220774741
11220782981
11220789145
11220798056
11220806479
11220812827
11220824912
11220830771
11220841086
11220848105
11220857627
11220868186
11220877219
11220883627
11220890952
11220899069
11220906760
11220912924
11220921347
11220929526
11220935568
11220944785
11220950217
11220959372
11220963644
11220974692
11220978842
11220989767
11220996115
11221004721
11221011130
11221018088
11221026327
11221032980
11221041586
11221047934
11221055075
11221062094
11221071249
11221075399
11221085226
11221090780
11221098776
11221107809
11221114340
11221123007
11221130697
11221139059
11221145590
11221154013
11221160299
11221167379
11221174581
11221182760
11221189047
11221198446
11221204855
11221213216
11221221456
11221228109
11221236349
11221243551
11221251852
11221258688
11221268148
11221274374
11221283590
11221288656
11221297079
11221303426
11221313558
11221320577
11221330099
11221336263
11221343770
11221352254
11221359212
11221367025
11221376424
11221382955
11221391317
11221400838
11221406514
11221415853
11221420735
11221429769
11221436177
11221444478
11221450765
11221460530
11221466878
11221473775
11221483113
11221488545
11221497945
11221505879
11221512166
11221519795
11221529134
11221536153
11221543355
11221549763
11221558736
11221565144
11221573750
11221580159
11221588338
11221596577
11221602559
11221611714
11221619832
11221627522
11221632344
11221642598
11221649189
11221662800
11221669575
11221677693
11221687275
11221694844
11221698933
11221707966
11221714436
11221724385
11221730793
11221738667
11221746845
11221754231
11221760700
11221769612
11221776020
11221785053
11221791828
11221799275
11221805927
11221810017
11221821369
11221828449
11221835590
11221841999
11221850422
11221858723
11221865131
11221873615
11221880268
11221887409
11221895405
11221902546
11221910602
11221920978
11221925129
11221935993
11221940387
11221950519
11221957050
11221965656
11221972614
11221983966
11221990192
11221997577
11222004474
11222012531
11222018390
11222025531
11222032062
11222040851
11222048114
11222060321
11222068500
11222078876
11222085224
11222091876
11222097369
11222105792
11222112079
11222119952
11222127643
11222133197
11222140826
11222143329
11222154620
11222163776
11222170611
11222176044
11222184405
11222188190
11222197772
11222203448
11222211139
11222217364
11222226520
11222233111
11222241412
11222247088
11222253863
11222261615
11222267474
11222276080
11222284320
11222291583
11222295977
11222305072
11222312518
11222319110
11222324786
11222333148
11222339312
11222349139
11222357501
11222363787
11222371417
11222376910
11222385699
11222392657
11222401263
11222410662
11222418108
11222425311
11222433916
11222441973
11222450823
11222456499
11222469500
11222477801
11222485552
11222492022
11222500872
11222507036
11222516070
11222522051
11222531389
11222538897
11222547442
11222555071
11222561174
11222567217
11222576067
11222585527
11222591509
11222601885
11222608049
11222616777
11222623430
11222627275
11222639177
11222644670
11222653337
11222659014
11222668047
11222672502
11222683794
11222688371
11222697405
11222701555
11222711748
11222719926
11222726030
11222733293
11222742143
11222749284
11222755205
11222763994
11222770036
11222779863
11222786088
11222792863
11222801347
11222807756
11222816789
11222823625
11222830522
11222840043
11222845537
11222853898
11222861711
11222869340
11222878251
11222884660
11222894120
11222900590
11222909379
11222917375
11222923722
11222933732
11222940080
11222951005
11222957658
11222966203
11222970353
11222979508
11222987321
11222996415
11223005570
11223013261
11223019364
11223026444
11223033707
11223042496
11223048722
11223057694
11223064530
11223073563
11223078812
11223087296
11223092606
11223101578
11223109940
11223115922
11223125260
11223134842
11223142716
11223148758
11223157059
11223165604
11223172989
11223183609
11223191483
11223200516
11223211930
11223221756
11223231034
11223239395
11223243973
11223254776
11223260880
11223269303
11223275650
11223283646
11223291763
11223298538
11223304947
11223313797
11223319962
11223327652
11223334915
11223343887
11223350906
11223357132
11223366043
11223372391
11223380875
11223387161
11223395584
11223401932
11223410843
11223417190
11223425491
11223432754
11223440139
11223447281
11223453933
11223461990
11223470352
11223478958
11223485122
11223493118
11223501297
11223508010
11223516372
11223522293
11223529373
11223536514
11223545913
11223552749
11223559829
11223566116
11223575637
11223582107
11223592422
11223598586
11223606277
11223614578
11223620010
11223629165
11223635085
11223644363
11223649490
11223660232
11223668288
11223675490
11223679641
11223690627
11223696914
11223704909
11223711440
11223720534
11223728896
11223735366
11223743483
11223750380
11223757705
11223761916
11223773269
11223780288
11223789626
11223793715
11223803420
11223809767
11223819350
11223825453
11223834731
11223841139
11223850356
11223856459
11223864211
11223871657
11223877883
11223885146
11223892287
11223900465
11223909804
11223918959
11223923720
11223932509
11223941054
11223947768
11223952162
11223962477
11223971266
11223983046
11223993178
11223999769
11224007216
11224014967
11224024061
11224032362
11224040602
11224049818
11224058241
11224064405
11224073317
11224080397
11224084669
11224096388
11224100660
11224111463
11224117811
11224124830
11224133192
11224139906
11224148329
11224156324
11224162611
11224172010
11224180372
11224186170
11224195265
11224199293
11224208997
11224215162
11224223707
11224230054
11224240675
11224246900
11224254835
11224262891
11224270582
11224276807
11224283643
11224293775
11224301465
11224308362
11224316663
11224323804
11224330884
11224338025
11224344434
11224352796
11224359143
11224368787
11224376905
11224383863
11224392224
11224398389
11224406079
11224411389
11224419873
11224428418
11224434888
11224442700
11224449353
11224456433
11224463025
11224468701
11224476636
11224486951
11224494214
11224500684
11224508313
11224515942
11224523389
11224529187
11224537061
11224542798
11224551465
11224559643
11224564831
11224573193
11224577588
11224587109
11224594433
11224601269
11224608594
11224617444
11224624768
11224631360
11224637219
11224645642
11224651440
11224658764
11224664502
11224673596
11224681713
11224688549
11224694226
11224701428
11224708081
11224714794
11224721325
11224727551
11224738232
11224745434
11224752026
11224758007
11224766918
11224773083
11224782787
11224788952
11224798046
11224804699
11224813366
11224821850
11224828075
11224836315
11224844372
11224851635
11224860546
11224867016
11224874950
11224882458
11224888988
11224894848
11224903209
11224909008
11224917553
11224924144
11224929027
11224937328
11224941967
11224951366
11224958324
11224964977
11224972301
11224981517
11224988903
11224996837
11225002452
11225009838
11225017467
11225024913
11225031017
11225040660
11225046581
11225053966
11225061595
11225069042
11225074840
11225081676
11225088207
11225095165
11225103954
11225110790
11225120799
11225128184
11225137645
11225143199
11225155833
11225161876
11225172252
11225180003
11225188182
11225195506
11225206309
11225214183
11225224559
11225233287
11225242259
11225252574
11225258311
11225272349
11225281626
11225292002
11225301219
11225308360
11225320933
11225327159
11225340098
11225352671
11225362498
11225370921
11225380137
11225392527
11225402720
11225411448
11225422068
11225429209
11225441843
11225451975
11225461436
11225472239
11225479014
11225489451
11225499094
11225507395
11225517893
11225527964
11225540110
11225549997
11225561106
11225568857
11225578318
11225591074
11225600290
11225604441
11225617685
11225629465
11225641916
11225651560
11225659677
11225670725
11225676767
11225688730
11225698373
11225708322
11225719736
11225728403
11225741769
11225751474
11225762704
11225773447
11225784250
11225795907
11225802438
11225817087
11225827462
11225841317
11225850351
11225859140
11225868417
11225873849
11225884042
11225894662
11225899728
11225911508
11225920053
11225929879
11225938302
11225947946
11225955880
11225965707
11225975106
11225980294
11225990121
11226001656
11226011056
11226022530
11226030099
11226038094
11226043587
11226055428
11226063668
11226073922
11226082162
11226090157
11226099801
11226109444
11226119088
11226127816
11226137581
11226147530
11226153267
11226164742
11226174080
11226187081
11226196846
11226204415
11226217293
11226224373
11226236153
11226245125
11226254402
11226262947
11226271492
11226282417
11226290901
11226300789
11226309578
11226321175
11226330208
11226335823
11226347847
11226357002
11226368904
11226378364
11226388313
11226396248
11226404854
11226415779
11226424812
11226432258
11226442695
11226453621
11226463508
11226473579
11226484993
11226494697
11226507759
11226514839
11226523628
11226533393
11226541999
11226553840
11226564155
11226569892
11226582588
11226591499
11226602851
11226611457
11226618354
11226628730
11226638373
11226653815
11226663276
11226669318
11226679633
11226689277
11226700141
11226709174
11226717536
11226726569
11226733710
11226748114
11226757514
11226766669
11226775458
11226783271
11226793341
11226802252
11226811652
11226823798
11226836432
11226845648
11226854071
11226864081
11226873908
11226882636
11226895087
11226899786
11226916083
11226922613
11226936835
11226947638
11226958685
11226968085
11226978094
11226986578
11226991827
11227002325
11227013128
11227020636
11227027472
11227036810
11227042791
11227049566
11227057318
11227063543
11227071295
11227078863
11227086309
11227094305
11227100042
11227107489
11227114141
11227120733
11227129461
11227133734
11227144903
11227149053
11227158331
11227164312
11227172308
11227179998
11227187750
11227193914
11227202093
11227210455
11227216680
11227224309
11227229925
11227236883
11227245183
11227251897
11227256170
11227267034
11227274480
11227281255
11227287908
11227295110
11227300847
11227309392
11227315557
11227325506
11227331853
11227338567
11227346257
11227351567
11227360112
11227364507
11227374761
11227383733
11227391118
11227399236
11227406499
11227414495
11227421880
11227426335
11227437383
11227444219
11227453130
11227462102
11227469121
11227476750
11227481755
11227490422
11227496953
11227503667
11227508733
11227520390
11227524968
11227533635
11227541020
11227547856
11227554326
11227561101
11227567326
11227576237
11227582707
11227591557
11227597355
11227604374
11227612126
11227617375
11227625981
11227632573
11227641667
11227647221
11227655827
11227660649
11227668339
11227674870
11227683476
11227690312
11227700932
11227708134
11227717167
11227725407
11227732060
11227740666
11227748905
11227753910
11227763920
11227773197
11227779484
11227787174
11227792851
11227800968
11227805912
11227813847
11227821171
11227828556
11227835087
11227841251
11227848331
11227854496
11227860782
11227868656
11227875675
11227884342
11227891605
11227897953
11227903873
11227910099
11227917606
11227922916
11227930668
11227938541
11227944645
11227952518
11227960270
11227964664
11227973392
11227979251
11227987857
11227997989
11228004276
11228008914
11228019412
11228023868
11228032474
11228039066
11228046207
11228052799
11228063541
11228070133
11228076846
11228082706
11228090030
11228097781
11228104068
11228111819
11228121280
11228127566
11228132938
11228142764
11228147220
11228156802
11228163516
11228170352
11228176700
11228185550
11228191714
11228199099
11228206912
11228213626
11228219485
11228228335
11228234134
11228243350
11228251590
11228258425
11228264163
11228271548
11228278323
11228285769
11228292483
11228300296
11228307315
11228313723
11228322085
11228330508
11228336489
11228343997
11228350466
11228358584
11228365481
11228373660
11228381106
11228386782
11228395083
11228401064
11228407900
11228414492
11228423769
11228430971
11228439028
11228445803
11228451479
11228460573
11228466372
11228474123
11228482973
11228491762
11228498293
11228507143
11228513369
11228523562
11228528872
11228537355
11228543520
11228553591
11228560183
11228566408
11228571718
11228579531
11228584902
11228592531
11228600405
11228609194
11228614809
11228621706
11228628786
11228635988
11228641237
11228648317
11228656069
11228664919
11228671022
11228679018
11228684633
11228691591
11228698488
11228705507
11228711977
11228718324
11228727907
11228734498
11228743776
11228749452
11228756837
11228763429
11228771425
11228777101
11228785707
11228793825
11228799928
11228807496
11228813600
11228820436
11228826967
11228835511
11228843385
11228850343
11228857484
11228864991
11228870607
11228879457
11228885133
11228892823
11228898500
11228907105
11228915284
11228921388
11228929017
11228934022
11228942872
11228949952
11228956544
11228964478
11228973389
11228980164
11228986695
11228992371
11229001344
11229007142
11229014283
11229022401
11229031068
11229037293
11229045411
11229051087
11229056946
11229065674
11229070191
11229080140
11229088379
11229097413
11229101380
11229110413
11229117188
11229125428
11229131104
11229140198
11229146424
11229155396
11229163758
11229169190
11229176758
11229182373
11229190918
11229195435
11229204651
11229212036
11229221924
11229226990
11229236939
11229243164
11229253906
11229260071
11229267456
11229275940
11229285706
11229289612
11229298828
11229306885
11229312988
11229318359
11229325806
11229331909
11229340332
11229346191
11229353577
11229360596
11229367737
11229374878
11229380005
11229387207
11229394592
11229401916
11229408203
11229415832
11229422851
11229430603
11229437927
11229443176
11229452453
11229458313
11229464965
11229472045
11229479003
11229484985
11229491455
11229499877
11229507202
11229514160
11229521118
11229528442
11229534240
11229542236
11229549804
11229557189
11229563354
11229571838
11229579833
11229586364
11229594054
11229600585
11229608215
11229612975
11229621398
11229625548
11229637755
11229642272
11229651183
11229657592
11229666137
11229671996
11229680175
11229689940
11229697020
11229703185
11229710997
11229718871
11229725585
11229731383
11229739867
11229745726
11229754332
11229762938
11229768065
11229776732
11229780577
11229789916
11229798827
11229805419
11229811827
11229820677
11229826842
11229835204
11229843443
11229849974
11229857726
11229863219
11229871458
11229880553
11229887206
11229894957
11229900694
11229907408
11229915892
11229922911
11229929625
11229937559
11229944517
11229950560
11229959044
11229964842
11229974730
11229981077
11229989927
11229996031
11230005858
11230014586
11230022154
11230029356
11230037474
11230044859
11230051756
11230059202
11230066343
11230073912
11230080992
11230086485
11230093870
11230100889
11230106321
11230113462
11230120909
11230128233
11230135435
11230143369
11230150816
11230158567
11230165647
11230173704
11230181821
11230187498
11230195310
11230202879
11230209714
11230215635
11230223936
11230229795
11230239927
11230245908
11230253416
11230261594
11230267576
11230274839
11230281370
11230290891
11230299375
11230307554
11230314145
11230323606
11230330014
11230337827
11230344052
11230352597
11230357846
11230365842
11230375058
11230383664
11230391965
11230397946
11230408200
11230415830
11230426450
11230434201
11230440793
11230448666
11230455563
11230462033
11230470822
11230478085
11230484799
11230490964
11230501157
11230507443
11230513913
11230521542
11230528439
11230536191
11230540585
11230549435
11230557431
11230566281
11230573056
11230579953
11230584469
11230593258
11230600949
11230607602
11230614315
11230621945
11230628109
11230636105
11230643734
11230650143
11230657772
11230663937
11230671505
11230678952
11230687252
11230693722
11230702938
11230708920
11230717343
11230721920
11230730099
11230736508
11230745602
11230755001
11230762569
11230770321
11230779171
11230785946
11230794735
11230800655
11230811336
11230817623
11230827633
11230831600
11230840999
11230847042
11230853084
11230861446
11230867916
11230873775
11230882381
11230887630
11230894588
11230901546
11230908870
11230914486
11230923336
11230929256
11230937252
11230942501
11230949764
11230956722
11230962703
11230971858
11230977779
11230985408
11230991268
11230998287
11231004634
11231011592
11231016353
11231024104
11231031795
11231040035
11231044490
11231053645
11231060542
11231067195
11231073665
11231080562
11231089656
11231096797
11231103206
11231112300
11231118281
11231125789
11231131465
11231138850
11231146663
11231155269
11231161677
11231167354
11231176387
11231182124
11231188899
11231195186
11231203303
11231209590
11231219111
11231226069
11231234492
11231240168
11231249018
11231254756
11231261592
11231269465
11231276545
11231284846
11231290766
11231298457
11231306208
11231312129
11231318476
11231327143
11231331538
11231343379
11231348139
11231357172
11231364253
11231370783
11231376765
11231385065
11231391047
11231400629
11231421076
11231429194
11231438227
11231444758
11231451410
11231462092
11231468317
11231476252
11231482172
11231490107
11231498468
11231505060
11231513361
11231523859
11231533075
11231541254
11231547235
11231556635
11231565912
11231574152
11231580805
11231589044
11231596063
11231604242
11231611322
11231618463
11231622675
11231631830
11231636224
11231645014
11231651849
11231659906
11231668329
11231674432
11231684503
11231691217
11231700250
11231708429
11231715448
11231722528
11231727289
11231736749
11231743524
11231753534
11231758233
11231770379
11231778802
11231785577
11231793939
11231799371
11231808770
11231815179
11231823968
11231830987
11231839715
11231847772
11231854425
11231863519
11231873223
11231880609
11231889520
11231898553
11231906182
11231915826
11231923821
11231931573
11231938104
11231946832
11231953790
11231962457
11231969720
11231977593
11231985650
11231993890
11232000054
11232007989
11232017571
11232027276
11232035821
11232044610
11232051568
11232059929
11232068108
11232074822
11232082329
11232090569
11232099602
11232108025
11232115593
11232124077
11232130608
11232138604
11232146843
11232155815
11232161248
11232170098
11232179131
11232185601
11232195061
11232201531
11232211296
11232215630
11232224968
11232233513
11232240410
11232246941
11232255486
11232263115
11232272575
11232280510
11232288689
11232296562
11232303398
11232312431
11232319878
11232329094
11232337272
11232346916
11232354851
11232363579
11232375969
11232382255
11232391349
11232397697
11232402580
11232413627
11232421867
11232429130
11232436698
11232443901
11232450981
11232458427
11232468132
11232475578
11232481742
11232489860
11232498039
11232503593
11232512809
11232520316
11232526603
11232534721
11232543754
11232549918
11232559501
11232567741
11232574027
11232582450
11232589591
11232593925
11232606925
11232614371
11232621635
11232627799
11232635856
11232644340
11232650931
11232659232
11232667167
11232675528
11232683646
11232689872
11232697501
11232704703
11232711173
11232720145
11232729544
11232736747
11232742911
11232751883
11232758353
11232766287
11232774771
11232781668
11232790030
11232796195
11232805533
11232813651
11232819876
11232827689
11232835135
11232842032
11232849905
11232856497
11232865591
11232871756
11232881338
11232887686
11232896353
11232902518
11232911185
11232917349
11232925528
11232935110
11232941092
11232950491
11232957571
11232964834
11232970999
11232979117
11232985403
11232995657
11233001944
11233008596
11233016836
11233022512
11233031973
11233036856
11233046926
11233054068
11233061270
11233067678
11233077139
11233083242
11233091299
11233100454
11233106619
11233116079
11233125540
11233132497
11233145864
11233152517
11233161977
11233168386
11233178579
11233185537
11233194875
11233201223
11233207693
11233217153
11233222097
11233232046
11233236196
11233245656
11233251943
11233261953
11233270253
11233276906
11233285207
11233292348
11233300466
11233307241
11233314382
11233323598
11233330800
11233338063
11233347402
11233351552
11233361135
11233367482
11233377126
11233383595
11233391652
11233399953
11233407582
11233413747
11233422902
11233429067
11233436879
11233444264
11233451405
11233458730
11233464833
11233473683
11233481923
11233488637
11233496876
11233503773
11233512196
11233519337
11233526478
11233534169
11233541371
11233550160
11233557301
11233564259
11233573048
11233579518
11233586476
11233594960
11233602345
11233610707
11233617604
11233623768
11233631031
11233640492
11233645619
11233655506
11233659596
11233671253
11233675404
11233686573
11233694142
11233701771
11233709461
11233720814
11233729969
11233738514
11233742664
11233751942
11233757740
11233765430
11233771290
11233782764
11233789661
11233797535
11233803272
11233811390
11233817188
11233823047
11233831531
11233840687
11233847156
11233855701
11233861927
11233866016
11233875782
11233881397
11233890552
11233897022
11233907825
11233914844
11233925525
11233936023
11233946094
11233955371
11233962207
11233973255
11233980335
11233991992
11233998767
11234007984
11234013110
11234024524
11234030566
11234039905
11234044055
11234055347
11234062549
11234069690
11234075915
11234085010
11234091357
11234101001
11234107165
11234113818
11234123340
11234129565
11234136767
11234143908
11234153186
11234161487
11234168506
11234175525
11234183398
11234189563
11234198962
11234205066
11234213488
11234220019
11234226001
11234235278
11234240100
11234250659
11234258166
11234265368
11234271777
11234281298
11234287524
11234295947
11234302355
11234310534
11234318713
11234324633
11234333056
11234338915
11234348376
11234353320
11234363634
11234370654
11234377734
11234384264
11234394396
11234400561
11234408983
11234415392
11234424608
11234430773
11234437182
11234446581
11234454638
11234460985
11234465136
11234477160
11234484606
11234491930
11234498156
11234506273
11234514513
11234521959
11234528185
11234536669
11234543077
11234552477
11234558580
11234562731
11234574938
11234579088
11234587938
11234594225
11234605089
11234612047
11234622301
11234626695
11234636034
11234645372
11234652086
11234660509
11234668504
11234676805
11234683519
11234691698
11234696702
11234706041
11234714220
11234721300
11234726121
11234736986
11234744249
11234753648
11234766282
11234773362
11234783006
11234791063
11234796251
11234806688
11234813218
11234823106
11234829393
11234837876
11234846116
11234852098
11234860520
11234866868
11234875291
11234885667
11234892076
11234898911
11234908311
11234913316
11234922654
11234926926
11234937486
11234944688
11234953599
11234959824
11234968247
11234974473
11234983445
11234989670
11234996628
11235005845
11235014512
11235020798
11235027695
11235036973
11235041306
11235050828
11235056870
11235065476
11235071702
11235080735
11235089035
11235095749
11235104111
11235111618
11235118027
11235126572
11235133042
11235142624
11235152024
11235157822
11235167282
11235171555
11235180344
11235186569
11235195786
11235202011
11235211899
11235220383
11235227768
11235236008
11235242111
11235250412
11235256760
11235265976
11235271408
11235281235
11235285263
11235296127
11235302536
11235311386
11235317734
11235325607
11235334457
11235342514
11235350631
11235357589
11235363998
11235368881
11235380233
11235385055
11235394394
11235401413
11235410751
11235414840
11235425582
11235431869
11235439865
11235446334
11235454635
11235461044
11235469711
11235478073
11235484359
11235491866
11235499130
11235506027
11235513107
11235521468
11235528060
11235538070
11235544662
11235554244
11235561080
11235571700
11235578841
11235587508
11235596969
11235610763
11235617843
11235625777
11235633590
11235642806
11235646956
11235656661
11235663070
11235674300
11235681929
11235689132
11235695296
11235703963
11235710189
11235718734
11235724898
11235734297
11235740523
11235748519
11235755660
11235764083
11235771346
11235778487
11235785811
11235795516
11235802351
11235808760
11235817305
11235825606
11235832076
11235840498
11235847029
11235854353
11235864058
11235871138
11235879744
11235887007
11235891035
11235900862
11235907149
11235916670
11235923506
11235931990
11235940840
11235948897
11235954817
11235961287
11235969771
11235976423
11235983076
11235991011
11235998152
11236004988
11236012007
11236017866
11236026167
11236033735
11236039595
11236047285
11236056196
11236062055
11236068586
11236077192
11236083784
11236090376
11236097761
11236104292
11236111555
11236120344
11236124983
11236134077
11236138166
11236147810
11236153730
11236160078
11236168073
11236176923
11236183271
11236191877
11236197614
11236204938
11236212629
11236217939
11236226606
11236232221
11236241254
11236249250
11236257489
11236265851
11236274396
11236281110
11236289777
11236297223
11236305463
11236313642
11236319806
11236328534
11236334333
11236343122
11236352155
11236364057
11236371137
11236380780
11236388837
11236397382
11236404706
11236413861
11236422589
11236429547
11236438397
11236444989
11236453168
11236459088
11236466412
11236473431
11236482831
11236487042
11236499371
11236506390
11236513043
11236521527
11236527325
11236535626
11236542218
11236550519
11236556439
11236565838
11236573712
11236580914
11236588360
11236595623
11236601971
11236610272
11236616619
11236625775
11236633953
11236639569
11236648846
11236654278
11236663433
11236668560
11236677777
11236685650
11236692974
11236699139
11236708599
11236714947
11236724407
11236731182
11236746197
11236757061
11236763531
11236773907
11236777691
11236788677
11236792278
11236803387
11236807354
11236818401
11236825664
11236832500
11236838176
11236845928
11236854229
11236860759
11236869793
11236878154
11236884258
11236892742
11236899334
11236910259
11236917705
11236926372
11236934124
11236943279
11236949565
11236959941
11236967021
11236973918
11236980388
11236989726
11236995952
11237007427
11237013896
11237021953
11237030071
11237036174
11237044109
11237051555
11237060100
11237068339
11237077312
11237084514
11237090678
11237098552
11237106608
11237114360
11237121135
11237130107
11237136210
11237150737
11237161052
11237172587
11237183513
11237195964
11237204692
11237212199
11237221232
11237228434
11237236491
11237243815
11237251689
11237261027
11237267436
11237272441
11237276774
11237283183
11237287394
11237292216
11237297892
11237303874
11237310099
11237315043
11237320719
11237324809
11237329874
11237335001
11237340128
11237344889
11237352946
11237356486
11237361857
11237366129
11237372904
11237377116
11237384012
11237388102
11237394205
11237400248
11237405436
11237409891
11237414652
11237419779
11237425394
11237431009
11237438151
11237443461
11237449930
11237454874
11237459574
11237464029
11237469828
11237474588
11237478800
11237485575
11237491373
11237496134
11237501871
11237505655
11237512247
11237515116
11237522440
11237525431
11237533487
11237538309
11237544474
11237548868
11237554788
11237561197
11237566202
11237572428
11237577310
11237584024
11237590189
11237594888
11237600748
11237606180
11237610880
11237617349
11237622049
11237631082
11237636453
11237643350
11237648294
11237655008
11237659708
11237664590
11237671548
11237676858
11237682413
11237688943
11237695352
11237701700
11237707742
11237713235
11237720254
11237726114
11237731485
11237742288
11237746927
11237755777
11237762735
11237770669
11237777505
11237782205
11237793679
11237801248
11237812783
11237819802
11237826760
11237832498
11237839639
11237849099
11237856057
11237863076
11237871438
11237876199
11237887734
11237894631
11237900369
11237905557
11237911050
11237917153
11237921914
11237928384
11237935342
11237940591
11237945962
11237950173
11237953164
11237960244
11237962868
11237969582
11237974587
11237980996
11237987160
11237992592
11237995705
11238004555
11238009377
11238013527
11238019631
11238027566
11238032265
11238037636
11238043984
11238049111
11238054787
11238059365
11238064980
11238070656
11238076516
11238078591
11238087075
11238090737
11238097634
11238100624
11238107155
11238114907
11238120461
11238126198
11238133339
11238138405
11238144936
11238149086
11238154152
11238160195
11238165627
11238171730
11238176430
11238182228
11238186745
11238192543
11238196388
11238202797
11238208229
11238213295
11238218361
11238223793
11238229164
11238235878
11238239967
11238245399
11238251503
11238256508
11238262672
11238268043
11238272255
11238276710
11238283180
11238288917
11238293373
11238298988
11238304176
11238310402
11238315590
11238318641
11238327369
11238330299
11238336525
11238342628
11238349769
11238354652
11238361244
11238366066
11238372169
11238376075
11238381874
11238386207
11238394325
11238400001
11238406044
11238411537
11238418617
11238425086
11238430946
11238435707
11238444190
11238451637
11238458900
11238464210
11238468788
11238472694
11238478797
11238483192
11238489112
11238495033
11238499488
11238505348
11238510108
11238514747
11238520911
11238525306
11238531959
11238537818
11238543128
11238547279
11238551673
11238558143
11238561011
11238568458
11238573768
11238578895
11238582191
11238589942
11238594214
11238601111
11238605384
11238610267
11238616065
11238621375
11238627418
11238631812
11238638099
11238642005
11238647315
11238653663
11238658728
11238664893
11238670264
11238673560
11238680457
11238685462
11238692969
11238697669
11238703162
11238708838
11238715186
11238719886
11238723731
11238730017
11238734107
11238740515
11238746070
11238751319
11238754737
11238764990
11238768469
11238775488
11238780432
11238786963
11238791846
11238798377
11238803687
11238810278
11238817603
11238821448
11238829504
11238835120
11238842261
11238848059
11238852759
11238860449
11238866431
11238877722
11238884314
11238886694
11238898047
11238902136
11238911291
11238917883
11238922339
11238929602
11238933996
11238944494
11238951147
11238958654
11238964636
11238970434
11238977697
11238983618
11238987890
11238997229
11238999792
11239012609
11239020178
11239029211
11239037634
11239044836
11239052038
11239060156
11239067724
11239079809
11239089147
11239098852
11239106176
11239113927
11239121557
11239126684
11239135595
11239145910
11239154333
11239162572
11239168493
11239175756
11239182226
11239188817
11239195409
11239202978
11239210546
11239215246
11239224950
11239231298
11239238744
11239244542
11239247167
11239257726
11239261632
11239270482
11239277196
11239284764
11239292821
11239298131
11239307714
11239315526
11239323644
11239330480
11239338475
11239343724
11239351842
11239359776
11239367223
11239375585
11239382787
11239388463
11239395238
11239401708
11239407750
11239417271
11239424290
11239431798
11239436986
11239445225
11239451939
11239458287
11239465733
11239470128
11239480382
11239487767
11239497777
11239504857
11239511265
11239518651
11239525548
11239531529
11239540257
11239544285
11239554112
11239559971
11239570103
11239574620
11239582798
11239591954
11239599217
11239605503
11239609837
11239618077
11239626927
11239634678
11239642063
11239646824
11239655979
11239663853
11239670384
11239676914
11239679051
11239690281
11239698704
11239707066
11239714573
11239720188
11239727573
11239734837
11239742222
11239748875
11239754734
11239761204
11239766880
11239778171
11239782993
11239793003
11239800998
11239809360
11239817356
11239825657
11239834934
11239842868
11239851047
11239858493
11239867099
11239874912
11239880771
11239889316
11239894382
11239904514
11239912082
11239922153
11239929050
11239931430
11239944126
11239952548
11239958042
11239967807
11239972446
11239984592
11239992526
11240003207
11240011813
11240020969
11240029086
11240038608
11240044894
11240050082
11240057956
11240064365
11240072787
11240079074
11240085177
11240091220
11240098910
11240104159
11240109958
11240118564
11240124484
11240134311
11240140963
11240147616
11240152621
11240158847
11240167575
11240173678
11240178317
11240187228
11240192782
11240202243
11240206576
11240213961
11240220370
11240229525
11240236178
11240240817
11240249117
11240255526
11240266451
11240273898
11240280428
11240285738
11240292452
11240300753
11240306918
11240312594
11240320406
11240327608
11240339327
11240346468
11240351290
11240359164
11240367831
11240375277
11240379854
11240388705
11240395296
11240402010
11240410250
11240414339
11240425509
11240432833
11240441195
11240449984
11240459444
11240467073
11240475862
11240484774
11240489962
11240500093
11240507601
11240514864
11240523348
11240528231
11240540071
11240547457
11240556978
11240564302
11240570345
11240578279
11240585054
11240590181
11240598238
11240602815
11240612825
11240619783
11240628206
11240635225
11240641817
11240649507
11240653596
11240663789
11240670076
11240677217
11240683992
11240689546
11240699373
11240703950
11240712617
11240719636
11240726716
11240734529
11240741792
11240749299
11240755464
11240763520
11240772432
11240775300
11240785005
11240792146
11240799653
11240806123
11240812104
11240819856
11240824433
11240839814
11240844636
11240855744
11240865998
11240872895
11240881379
11240890290
11240897187
11240907136
11240916779
11240922456
11240931794
11240937104
11240943940
11240949860
11240956940
11240964509
11240972748
11240979951
11240984284
11240991425
11240996735
11241002045
11241008088
11241012909
11241015839
11241024567
11241027741
11241035065
11241037873
11241045380
11241049836
11241055390
11241059479
11241065705
11241071686
11241076508
11241082733
11241086701
11241093781
11241098481
11241104889
11241108429
11241114960
11241118134
11241126740
11241130097
11241136566
11241142792
11241148346
11241152863
11241159393
11241165558
11241170990
11241175568
11241181427
11241187836
11241191376
11241197113
11241202240
11241210358
11241216339
11241221832
11241226959
11241233429
11241237945
11241244354
11241248932
11241253570
11241261749
11241270538
11241276275
11241283417
11241288421
11241292206
11241299774
11241307281
11241312713
11241318878
11241324798
11241330536
11241336273
11241341278
11241347931
11241352447
11241358673
11241365142
11241368743
11241375885
11241379913
11241386932
11241390228
11241397003
11241401519
11241410614
11241416046
11241422759
11241427764
11241434417
11241438690
11241445220
11241449798
11241458038
11241462493
11241470916
11241475066
11241483245
11241489837
11241499053
11241502410
11241512176
11241518523
11241523956
11241529327
11241536224
11241540557
11241547027
11241551360
11241557647
11241562530
11241566985
11241571197
11241578460
11241581267
11241587981
11241594573
11241599639
11241604522
11241611175
11241615447
11241620940
11241626616
11241631682
11241635894
11241642241
11241648101
11241652251
11241658538
11241662810
11241667693
11241672026
11241678923
11241683989
11241688872
11241695403
11241700225
11241704436
11241709746
11241715361
11241721160
11241725310
11241730925
11241737639
11241742278
11241748625
11241752226
11241759245
11241762236
11241769255
11241773894
11241782378
11241787199
11241792693
11241799284
11241804900
11241809966
11241815703
11241821013
11241825407
11241834441
11241843352
11241850310
11241855070
11241862211
11241867399
11241871733
11241878874
11241885100
11241889433
11241895720
11241899870
11241906279
11241909147
11241915495
11241922514
11241928434
11241933073
11241939360
11241943632
11241948942
11241954496
11241959501
11241965727
11241972197
11241977140
11241981901
11241988676
11241994535
11241999357
11242002897
11242010160
11242017362
11242027250
11242029386
11242041471
11242050993
11242058561
11242062589
11242072050
11242076383
11242088468
11242095121
11242107206
11242112577
11242125028
11242133512
11242140714
11242150724
11242153898
11242166715
11242174528
11242181791
11242188199
11242195096
11242201017
11242204923
11242214322
11242219938
11242228910
11242234281
11242240384
11242246549
11242252347
11242256376
11242262052
11242266446
11242269498
11242277799
11242281400
11242287259
11242292142
11242297635
11242302091
11242308133
11242314054
11242320889
11242325650
11242331449
11242335599
11242340604
11242346768
11242352017
11242356961
11242360867
11242368741
11242374478
11242379361
11242384671
11242390408
11242395291
11242401700
11242405728
11242413235
11242417935
11242423917
11242428860
11242435635
11242440274
11242443997
11242451260
11242454434
11242464322
11242467496
11242474087
11242478543
11242484768
11242490262
11242494656
11242500454
11242505887
11242512417
11242517727
11242522488
11242528531
11242534817
11242538540
11242544522
11242549344
11242557400
11242561856
11242567471
11242573635
11242578823
11242583767
11242590115
11242594754
11242601773
11242606655
11242610012
11242617520
11242620632
11242628811
11242633328
11242640469
11242645413
11242652554
11242659329
11242664578
11242671414
11242675808
11242683071
11242687832
11242693203
11242698452
11242706509
11242709927
11242716335
11242723598
11242729214
11242734280
11242740627
11242746609
11242754909
11242761257
11242769497
11242773952
11242781277
11242785610
11242791775
11242799038
11242804836
11242810573
11242814602
11242819484
11242824184
11242828945
11242835415
11242838161
11242846218
11242850978
11242856899
11242863552
11242867458
11242873195
11242877651
11242883266
11242890834
11242895473
11242900295
11242906825
11242911220
11242916286
11242921352
11242926357
11242930873
11242938747
11242944179
11242949855
11242954433
11242960903
11242965724
11242970180
11242977077
11242983669
11242990504
11242995998
11243000209
11243003444
11243011439
11243016750
11243022304
11243028041
11243034999
11243038661
11243046413
11243051356
11243057582
11243062038
11243068446
11243073329
11243080592
11243086268
11243092616
11243098231
11243101832
11243109157
11243113856
11243119899
11243126124
11243131739
11243138087
11243143214
11243148158
11243153712
11243159022
11243165248
11243170497
11243175929
11243183497
11243188807
11243196253
11243201502
11243208033
11243212916
11243216639
11243224024
11243230006
11243237452
11243243495
11243248927
11243254725
11243259791
11243266016
11243270960
11243277735
11243284449
11243290980
11243296473
11243301051
11243306422
11243313563
11243318201
11243323878
11243330775
11243340052
11243346766
11243356226
11243361353
11243368311
11243372400
11243380274
11243388819
11243394495
11243399561
11243405298
11243410486
11243415979
11243421595
11243439844
11243445337
11243450342
11243455652
11243459803
11243466455
11243470728
11243476343
11243480432
11243487085
11243491297
11243497217
11243501551
11243507776
11243512049
11243519190
11243523584
11243528772
11243534326
11243540125
11243544397
11243548914
11243555139
11243560022
11243566431
11243570337
11243576379
11243583337
11243587915
11243594385
11243599207
11243606958
11243612878
11243616968
11243623621
11243627222
11243634302
11243639734
11243645044
11243648584
11243658166
11243662073
11243669458
11243674402
11243680139
11243686303
11243691308
11243697595
11243705041
11243709924
11243714685
11243721704
11243727563
11243732080
11243735376
11243743859
11243748742
11243756921
11243762170
11243768640
11243773645
11243778833
11243784692
11243789025
11243796105
11243799951
11243807641
11243813622
11243819177
11243824670
11243830346
11243835107
11243841577
11243846337
11243854882
11243860009
11243865197
11243870568
11243876428
11243881738
11243886315
11243892846
11243897363
11243905846
11243910851
11243916833
11243924218
11243929955
11243935143
11243941125
11243947106
11243950646
11243960717
11243968529
11243974572
11243979333
11243984948
11243989220
11243994591
11244001427
11244005700
11244011437
11244015770
11244021203
11244026574
11244031701
11244037133
11244041893
11244048119
11244052758
11244058373
11244063744
11244067955
11244073876
11244078087
11244084496
11244090904
11244095665
11244101036
11244106041
11244112145
11244116844
11244121788
11244126305
11244134422
11244139305
11244144737
11244149315
11244155235
11244160790
11244165123
11244170921
11244177879
11244183373
11244187706
11244194176
11244199669
11244204491
11244207481
11244214561
11244219261
11244226707
11244232078
11244238487
11244245201
11244251121
11244255699
11244260582
11244267540
11244271629
11244280296
11244284080
11244293358
11244296653
11244303978
11244308555
11244314232
11244320823
11244327476
11244332359
11244337974
11244344078
11244349144
11244356163
11244361412
11244365989
11244373252
11244379905
11244384727
11244390403
11244396995
11244402488
11244407798
11244413413
11244418113
11244426109
11244431175
11244438133
11244443382
11244450340
11244454917
11244459434
11244466514
11244471702
11244478843
11244483176
11244490134
11244493552
11244501121
11244505881
11244512656
11244517844
11244527915
11244532554
11244539451
11244544639
11244550620
11244555747
11244561973
11244569175
11244578757
11244593100
11244602256
11244609641
11244615867
11244620566
11244625144
11244632956
11244637595
11244643698
11244647544
11244654319
11244658896
11244666098
11244673911
11244680808
11244685019
11244691733
11244697714
11244703269
11244708396
11244714804
11244720175
11244727439
11244731162
11244738364
11244745871
11244752402
11244758627
11244766684
11244772665
11244779746
11244785544
11244794577
11244800314
11244807272
11244814780
11244820090
11244827597
11244832358
11244841635
11244849264
11244855734
11244862753
11244869650
11244875570
11244881796
11244889364
11244896811
11244904196
11244909872
11244917257
11244925009
11244930624
11244938375
11244944967
11244952108
11244958578
11244964376
11244972433
11244977987
11244986410
11244992208
11244999594
11245008505
11245016073
11245022970
11245028463
11245034872
11245040060
11245045614
11245050985
11245056600
11245060934
11245067220
11245074117
11245080038
11245086202
11245093954
11245097738
11245104940
11245112875
11245118978
11245124471
11245131124
11245136739
11245141439
11245149068
11245153768
11245163717
11245168844
11245175252
11245182393
11245190999
11245195089
