11576867274
11576872951
11576878261
11576883510
11576889979
11576895167
11576901149
11576906520
11576912989
11576918544
11576925624
11576930445
11576936732
11576942225
11576949183
11576955531
11576960658
11576967738
11576975306
11576982386
11576989100
11576996119
11577002711
11577008998
11577017726
11577024989
11577032191
11577039698
11577049464
11577058192
11577066065
11577072352
11577078761
11577087733
11577095728
11577102625
11577110499
11577118128
11577125757
11577131678
11577139307
11577147120
11577153528
11577162440
11577168970
11577174341
11577179285
11577185572
11577190455
11577197779
11577204554
11577210840
11577216944
11577222010
11577228907
11577234583
11577239405
11577245508
11577252832
11577259424
11577264612
11577271936
11577277185
11577285547
11577293360
11577299951
11577305078
11577311365
11577318506
11577323572
11577330896
11577337427
11577344080
11577350916
11577356653
11577363916
11577368616
11577376550
11577382654
11577390710
11577397424
11577403894
11577410669
11577417017
11577423425
11577430444
11577437463
11577442224
11577449060
11577457422
11577461938
11577469079
11577474939
11577480676
11577488794
11577493860
11577502404
11577508691
11577514184
11577520349
11577526269
11577532129
11577542810
11577552270
11577560632
11577568017
11577578515
11577586572
11577592797
11577603845
11577611596
11577617944
11577625085
11577630334
11577638329
11577644494
11577651452
11577657555
11577663781
11577671410
11577676598
11577682641
11577688988
11577696496
11577702538
11577709374
11577714928
11577722497
11577728600
11577734093
11577740746
11577748681
11577754052
11577761864
11577767052
11577774804
11577781884
11577788292
11577796410
11577802025
11577808556
11577815331
11577821251
11577827599
11577833763
11577840294
11577846337
11577852684
11577860192
11577865197
11577872765
11577878075
11577885582
11577890099
11577897789
11577903221
11577910973
11577917626
11577922997
11577929833
11577935692
11577943993
11577948082
11577956871
11577962914
11577969566
11577975365
11577982384
11577990074
11577995811
11578003929
11578009605
11578017296
11578023216
11578029198
11578037254
11578044761
11578051536
11578058372
11578064232
11578071617
11578077415
11578083336
11578090049
11578099388
11578107139
11578113487
11578119835
11578126243
11578134117
11578142906
11578149253
11578155723
11578163169
11578169517
11578178184
11578184837
11578193016
11578199790
11578206687
11578214744
11578223289
11578231407
11578237815
11578251121
11578258323
11578265403
11578273154
11578280357
11578287070
11578293723
11578300254
11578307822
11578314292
11578320640
11578327354
11578334678
11578342978
11578349509
11578355430
11578362937
11578369101
11578374900
11578383567
11578389365
11578398276
11578405417
11578412009
11578418052
11578425254
11578433127
11578440451
11578446677
11578454001
11578462485
11578467917
11578475791
11578482993
11578489646
11578497031
11578505881
11578513083
11578519309
11578528708
11578535117
11578542319
11578548850
11578556723
11578565512
11578574057
11578582724
11578590781
11578597739
11578605551
11578612509
11578619589
11578626730
11578636435
11578642294
11578650351
11578656576
11578665365
11578672201
11578677633
11578687399
11578692770
11578702292
11578708151
11578717001
11578724325
11578729635
11578738180
11578745382
11578750875
11578761434
11578768820
11578773641
11578781271
11578787557
11578794332
11578802633
11578809042
11578819051
11578828146
11578835531
11578842062
11578848287
11578854635
11578863302
11578869894
11578877889
11578884603
11578893331
11578899984
11578906332
11578913473
11578919881
11578928060
11578937154
11578946004
11578958150
11578968038
11578974691
11578982625
11578990682
11578998494
11579006734
11579019368
11579025960
11579033528
11579040181
11579047689
11579055074
11579063375
11579071614
11579079793
11579086751
11579094441
11579101583
11579108541
11579117146
11579124288
11579131123
11579138204
11579143758
11579151509
11579158528
11579167683
11579176411
11579182637
11579190205
11579198628
11579205159
11579210164
11579218281
11579225239
11579233052
11579241963
11579248433
11579255879
11579262471
11579268879
11579275227
11579284016
11579291157
11579298542
11579304951
11579313435
11579320332
11579326252
11579338276
11579349751
11579356587
11579366474
11579373554
11579381733
11579385761
11579396626
11579403584
11579412373
11579420124
11579427693
11579433369
11579440388
11579448811
11579455952
11579463947
11579470722
11579478779
11579485187
11579491962
11579498371
11579505817
11579512287
11579522968
11579530109
11579537189
11579540912
11579550861
11579558063
11579564960
11579572345
11579581318
11579589191
11579596332
11579603840
11579608539
11579616779
11579623859
11579631671
11579639240
11579645587
11579654315
11579662372
11579669574
11579678852
11579690936
11579700702
11579711444
11579722553
11579732562
11579744037
11579751727
11579757648
11579764056
11579771991
11579778583
11579783893
11579791400
11579800555
11579806781
11579816180
11579822772
11579832171
11579838763
11579845416
11579855792
11579861651
11579870196
11579878741
11579884845
11579894488
11579901568
11579909991
11579917071
11579924884
11579933306
11579940814
11579949847
11579958209
11579967730
11579974627
11579982012
11579989703
11579998065
11580004962
11580015521
11580022723
11580028948
11580037920
11580046771
11580054400
11580061968
11580071123
11580078387
11580085833
11580092913
11580099688
11580109698
11580115862
11580126116
11580134051
11580141253
11580148699
11580156023
11580163347
11580171038
11580177446
11580186297
11580194048
11580201860
11580209795
11580217180
11580226152
11580232744
11580240618
11580249346
11580257891
11580266985
11580275225
11580281755
11580289812
11580296465
11580304155
11580313493
11580320757
11580327776
11580335832
11580343156
11580350359
11580358659
11580367754
11580376176
11580383440
11580392412
11580402666
11580409074
11580419206
11580429399
11580438005
11580446123
11580455400
11580462785
11580470964
11580478227
11580485734
11580493608
11580501054
11580509050
11580516069
11580524614
11580532182
11580540116
11580548234
11580556230
11580563676
11580570695
11580577775
11580585954
11580593339
11580599809
11580609818
11580616898
11580629899
11580637589
11580644181
11580651017
11580658830
11580665482
11580675065
11580681718
11580689896
11580696976
11580704972
11580713212
11580718827
11580727982
11580733109
11580743607
11580748795
11580756058
11580764237
11580774308
11580781388
11580788651
11580795731
11580804154
11580812943
11580821305
11580828141
11580835404
11580842118
11580849564
11580856217
11580863846
11580871781
11580881912
11580888626
11580896073
11580902481
11580909744
11580916275
11580922684
11580930985
11580938248
11580945450
11580954117
11580961380
11580969315
11580976578
11580984634
11580992691
11580999954
11581008072
11581015152
11581023147
11581030411
11581038406
11581045120
11581052322
11581062271
11581070877
11581078872
11581085830
11581094741
11581101638
11581109573
11581116226
11581125686
11581133560
11581140945
11581148025
11581156265
11581163406
11581171096
11581178176
11581186965
11581195815
11581209304
11581217422
11581227126
11581235854
11581239700
11581248916
11581256301
11581264968
11581271621
11581279800
11581286513
11581293838
11581300490
11581307448
11581316726
11581323623
11581332595
11581339126
11581345656
11581353408
11581360122
11581366713
11581373916
11581381484
11581390517
11581396621
11581404006
11581410659
11581418105
11581426528
11581431838
11581440505
11581447829
11581454970
11581462233
11581468825
11581476088
11581482314
11581488906
11581498671
11581505873
11581512587
11581520155
11581527480
11581534316
11581541518
11581549879
11581557265
11581566542
11581574416
11581581923
11581591994
11581599440
11581606886
11581614149
11581622206
11581630385
11581638563
11581646742
11581652968
11581661390
11581669325
11581677748
11581682692
11581690016
11581700148
11581708265
11581715467
11581722975
11581729261
11581739454
11581746290
11581754286
11581763380
11581771314
11581779249
11581785536
11581794386
11581802503
11581810133
11581815138
11581822523
11581831190
11581838453
11581847486
11581854871
11581863233
11581870618
11581878675
11581886121
11581892530
11581902540
11581910291
11581918104
11581925550
11581931348
11581939405
11581947217
11581954664
11581962903
11581972242
11581985364
11581993787
11582002149
11582013684
11582023999
11582033643
11582043164
11582050183
11582059766
11582067395
11582077222
11582085462
11582093030
11582100232
11582107068
11582114270
11582121594
11582128796
11582135815
11582144788
11582151196
11582158032
11582167248
11582174084
11582181714
11582187939
11582197095
11582204724
11582210950
11582217297
11582226086
11582232617
11582239209
11582246716
11582253369
11582262585
11582269543
11582276501
11582283276
11582290478
11582297863
11582305249
11582312451
11582320385
11582327587
11582334667
11582342358
11582349438
11582357311
11582363720
11582370739
11582379528
11582386547
11582393932
11582401257
11582408642
11582416393
11582424572
11582432140
11582440441
11582447582
11582456554
11582465160
11582473156
11582480541
11582485729
11582495556
11582502575
11582510692
11582518688
11582526256
11582536693
11582548717
11582556530
11582563488
11582570446
11582579723
11582587780
11582591991
11582600536
11582607250
11582615123
11582621776
11582628612
11582637706
11582643932
11582653758
11582660594
11582668041
11582673961
11582681713
11582689403
11582694957
11582703563
11582711314
11582720165
11582725597
11582734264
11582738658
11582751353
11582765453
11582775035
11582785289
11582794200
11582801524
11582811595
11582819652
11582827464
11582837291
11582843883
11582851390
11582858165
11582865123
11582872264
11582879100
11582886363
11582894603
11582902049
11582909983
11582917369
11582924205
11582931773
11582939097
11582946360
11582953684
11582960948
11582967661
11582975047
11582981455
11582988841
11582995738
11583002024
11583008616
11583017100
11583023692
11583032420
11583041331
11583047739
11583054148
11583062632
11583069407
11583077097
11583083750
11583092295
11583099192
11583106699
11583113291
11583119578
11583129160
11583136423
11583144358
11583152353
11583160227
11583166880
11583174814
11583182200
11583190256
11583197824
11583206247
11583213510
11583220957
11583228525
11583234812
11583242807
11583252695
11583260080
11583266062
11583276132
11583283457
11583291757
11583298715
11583306589
11583313974
11583319162
11583329416
11583337534
11583346506
11583354379
11583360483
11583368234
11583375558
11583383310
11583390878
11583398202
11583405954
11583413888
11583421213
11583428964
11583436227
11583444040
11583452829
11583462838
11583482492
11583490304
11583497811
11583506784
11583515329
11583525399
11583533334
11583541390
11583548898
11583558053
11583567636
11583574227
11583584786
11583594491
11583602548
11583609994
11583618539
11583627389
11583633797
11583640572
11583648019
11583654549
11583662301
11583669015
11583676278
11583683663
11583706978
11583714669
11583721444
11583728829
11583736519
11583741768
11583749581
11583756905
11583764901
11583772774
11583779061
11583785408
11583792427
11583798958
11583807686
11583814278
11583820809
11583827706
11583835091
11583843819
11583850655
11583858162
11583864937
11583870674
11583880013
11583889717
11583896431
11583902718
11583910042
11583916512
11583925972
11583932869
11583940865
11583947700
11583956428
11583965279
11583973335
11583980842
11583985725
11583993111
11584002388
11584010017
11584019172
11584024421
11584034614
11584042061
11584049019
11584056892
11584063789
11584071907
11584078315
11584086189
11584094734
11584102668
11584109932
11584117073
11584125312
11584132270
11584139533
11584148567
11584155891
11584162910
11584171150
11584177986
11584185920
11584195564
11584201545
11584209480
11584219611
11584227119
11584235053
11584241767
11584249335
11584256049
11584263679
11584273627
11584281867
11584289374
11584297492
11584303718
11584311957
11584319282
11584328132
11584336921
11584346381
11584358527
11584368232
11584376166
11584383002
11584391059
11584397345
11584407721
11584414923
11584422126
11584428900
11584436103
11584443244
11584449774
11584457282
11584464057
11584470709
11584478522
11584485236
11584493048
11584501837
11584508124
11584514899
11584523566
11584530341
11584539069
11584545782
11584553717
11584560675
11584567206
11584575018
11584582403
11584590582
11584597723
11584604254
11584610968
11584617865
11584624151
11584631415
11584638556
11584646612
11584655157
11584662420
11584669378
11584675787
11584682379
11584689886
11584696661
11584703314
11584711126
11584718634
11584727728
11584734197
11584741400
11584748236
11584755682
11584763555
11584771490
11584778936
11584786260
11584793035
11584800604
11584808172
11584815679
11584822332
11584830328
11584837652
11584843999
11584857366
11584861761
11584871404
11584876043
11584884832
11584893255
11584900823
11584908269
11584914861
11584920904
11584930120
11584937017
11584942571
11584951543
11584959722
11584966924
11584974187
11584980657
11584988042
11584994573
11585001043
11585007939
11585016545
11585023992
11585031865
11585038457
11585045293
11585052678
11585059514
11585066899
11585074590
11585082219
11585092778
11585099492
11585109074
11585120671
11585128545
11585137028
11585145329
11585156255
11585166386
11585173588
11585182011
11585187932
11585197087
11585203740
11585211430
11585218632
11585225834
11585234318
11585241704
11585247258
11585255253
11585263005
11585270390
11585278019
11585285466
11585293278
11585300480
11585306706
11585313298
11585319889
11585328373
11585337345
11585343937
11585350712
11585357487
11585366337
11585372868
11585379398
11585387333
11585394169
11585400639
11585409733
11585416019
11585423649
11585430973
11585439030
11585446964
11585455204
11585462162
11585470402
11585478153
11585486332
11585493290
11585500248
11585507572
11585517032
11585524479
11585532596
11585539798
11585546329
11585554508
11585563114
11585571537
11585578617
11585586673
11585595584
11585600528
11585610538
11585615482
11585626102
11585633609
11585641117
11585648746
11585656864
11585664493
11585672611
11585680362
11585688297
11585695926
11585704105
11585711368
11585719424
11585723941
11585732791
11585742252
11585749454
11585756839
11585765750
11585773135
11585781680
11585789676
11585796451
11585806766
11585812442
11585820743
11585827945
11585836184
11585843264
11585851504
11585860293
11585868594
11585873355
11585882144
11585889468
11585896731
11585905581
11585916506
11585925234
11585937686
11585945315
11585954409
11585961001
11585969180
11585978030
11585986025
11585992434
11585999575
11586006838
11586014285
11586022097
11586029482
11586035220
11586041872
11586050417
11586056765
11586065432
11586071902
11586078676
11586085146
11586092348
11586098940
11586108095
11586114199
11586121645
11586128481
11586135683
11586143801
11586151186
11586158083
11586165957
11586173830
11586181154
11586188112
11586195558
11586204164
11586209230
11586219545
11586225038
11586232363
11586242616
11586249880
11586257997
11586265444
11586272463
11586280397
11586287904
11586296205
11586303224
11586311159
11586318788
11586326784
11586334352
11586341615
11586348939
11586358156
11586365541
11586373659
11586381044
11586386903
11586395021
11586404359
11586410463
11586419313
11586427247
11586433717
11586441835
11586449769
11586456727
11586464906
11586471925
11586479310
11586488710
11586498719
11586506776
11586512940
11586520692
11586530091
11586537843
11586545411
11586553529
11586560548
11586567567
11586574403
11586582093
11586591126
11586598267
11586605653
11586614198
11586621278
11586629212
11586638245
11586645814
11586652344
11586659058
11586669007
11586677918
11586684998
11586693665
11586703248
11586712220
11586720154
11586725647
11586736573
11586748597
11586754883
11586763062
11586770874
11586778931
11586786560
11586794007
11586802307
11586809693
11586816223
11586823487
11586831116
11586835755
11586842529
11586850281
11586856812
11586866455
11586873169
11586880371
11586887146
11586895935
11586902588
11586908691
11586916138
11586925537
11586932007
11586940735
11586947510
11586953308
11586960510
11586969116
11586976318
11586982422
11586989929
11586998291
11587005554
11587012512
11587020019
11587026916
11587035034
11587043152
11587051574
11587055664
11587064575
11587071960
11587082031
11587089294
11587097045
11587104309
11587110656
11587118896
11587127929
11587135803
11587141784
11587149780
11587158325
11587166198
11587173095
11587180236
11587187438
11587194824
11587205016
11587210693
11587218566
11587228027
11587234008
11587241759
11587250610
11587259521
11587264464
11587273559
11587280639
11587288207
11587296325
11587303649
11587312377
11587319762
11587328795
11587336059
11587341796
11587351928
11587359496
11587365416
11587374938
11587385131
11587391356
11587399413
11587408141
11587415526
11587421508
11587429015
11587436522
11587444823
11587451415
11587462157
11587469054
11587476927
11587483641
11587492308
11587500426
11587510008
11587522215
11587530211
11587538512
11587545225
11587554869
11587560545
11587569273
11587577391
11587586607
11587593443
11587599241
11587606810
11587615233
11587623350
11587632017
11587640013
11587645933
11587653135
11587660887
11587668272
11587676573
11587682249
11587692259
11587701475
11587707823
11587715574
11587723020
11587730345
11587736509
11587743772
11587751341
11587758970
11587766660
11587773863
11587780637
11587787229
11587793821
11587801450
11587808164
11587815549
11587824094
11587830625
11587837278
11587846250
11587853086
11587859373
11587866697
11587872983
11587882261
11587888425
11587895749
11587903074
11587910337
11587917478
11587924863
11587932554
11587940610
11587948301
11587955503
11587962400
11587969724
11587976010
11587984067
11587991391
11587998593
11588005735
11588013791
11588021237
11588028440
11588038571
11588045224
11588053342
11588059750
11588068051
11588076840
11588082883
11588092343
11588097348
11588107663
11588112851
11588122678
11588129758
11588138364
11588145627
11588152890
11588160824
11588167905
11588175778
11588185910
11588193905
11588200741
11588207638
11588216916
11588224545
11588232113
11588237118
11588247311
11588255307
11588262814
11588269833
11588277523
11588285214
11588295834
11588303952
11588312008
11588321102
11588328121
11588341427
11588349301
11588357174
11588365353
11588371456
11588378841
11588385799
11588392574
11588399410
11588406002
11588412716
11588420162
11588426815
11588433773
11588440975
11588448238
11588457760
11588464535
11588471310
11588478451
11588483455
11588490658
11588499935
11588506466
11588513424
11588519161
11588525997
11588532283
11588538936
11588545101
11588554256
11588560543
11588567379
11588574764
11588581539
11588585079
11588594905
11588601863
11588610103
11588616512
11588622981
11588629695
11588636470
11588645686
11588650386
11588659602
11588666377
11588675227
11588682918
11588690303
11588697200
11588704585
11588710506
11588717708
11588726070
11588731074
11588737605
11588745662
11588752498
11588759090
11588766597
11588773433
11588780818
11588789180
11588796504
11588803157
11588810603
11588814509
11588824153
11588831965
11588839290
11588846064
11588852961
11588859736
11588865596
11588873042
11588879756
11588887141
11588894892
11588902217
11588909663
11588918330
11588925593
11588933100
11588939936
11588947199
11588953791
11588960261
11588966914
11588974665
11588981928
11588991755
11589000361
11589008173
11589016047
11589024226
11589032221
11589041682
11589049799
11589058039
11589069025
11589077692
11589087519
11589092707
11589103571
11589114924
11589119806
11589129084
11589135737
11589143183
11589150263
11589157770
11589165705
11589173212
11589179010
11589186212
11589194452
11589201593
11589208429
11589215875
11589223566
11589234918
11589243829
11589250482
11589257074
11589264765
11589272089
11589279474
11589286737
11589294183
11589301386
11589308710
11589315301
11589322687
11589329645
11589337152
11589343866
11589351800
11589359735
11589367181
11589372980
11589379388
11589388299
11589394708
11589401300
11589409234
11589415765
11589423028
11589430108
11589437616
11589444207
11589451348
11589460687
11589467767
11589474420
11589482904
11589490411
11589496636
11589506646
11589512994
11589521173
11589530328
11589538995
11589547357
11589554925
11589561822
11589570916
11589577203
11589585076
11589592645
11589600701
11589608269
11589616387
11589623223
11589631341
11589639214
11589647393
11589654351
11589661431
11589668694
11589676995
11589684441
11589692010
11589701897
11589707268
11589717461
11589725335
11589733452
11589740899
11589746880
11589756340
11589762383
11589769768
11589776665
11589786614
11589794426
11589802239
11589809319
11589816765
11589824883
11589834343
11589842400
11589851372
11589859978
11589868889
11589877617
11589883537
11589893181
11589901543
11589908195
11589915520
11589924248
11589932487
11589939323
11589946770
11589954887
11589962211
11589968620
11589979851
11589988273
11589995903
11590002434
11590009941
11590017082
11590024345
11590031303
11590038627
11590045036
11590052604
11590059806
11590066398
11590075065
11590082328
11590088615
11590095268
11590101860
11590109855
11590118461
11590125053
11590131645
11590139396
11590145927
11590154960
11590161613
11590168571
11590176444
11590184989
11590193290
11590200431
11590208427
11590216483
11590222404
11590230582
11590239371
11590246268
11590253226
11590260795
11590269523
11590276908
11590284110
11590294608
11590301688
11590309623
11590316520
11590324576
11590331839
11590339713
11590347770
11590355887
11590363700
11590369254
11590376578
11590386161
11590393668
11590400992
11590409232
11590416190
11590424307
11590431815
11590439993
11590447318
11590455435
11590462332
11590469595
11590476859
11590486380
11590494498
11590502615
11590509512
11590517203
11590526846
11590533682
11590541067
11590548086
11590555594
11590563894
11590571158
11590578360
11590587454
11590594778
11590602835
11590611075
11590619314
11590627188
11590638479
11590650381
11590658499
11590666677
11590672232
11590682913
11590690420
11590698049
11590705679
11590712454
11590721670
11590728140
11590735525
11590742056
11590749258
11590757864
11590765310
11590771475
11590778982
11590785879
11590793081
11590799795
11590807180
11590815359
11590823354
11590830190
11590837453
11590844411
11590850942
11590857534
11590865041
11590871755
11590881765
11590888723
11590898305
11590903432
11590914968
11590925039
11590931569
11590936574
11590946523
11590953481
11590962148
11590969472
11590978261
11590989186
11590997548
11591004018
11591011098
11591020802
11591027822
11591035268
11591041860
11591051869
11591059560
11591066823
11591075063
11591083241
11591090077
11591098012
11591104604
11591112599
11591120045
11591127125
11591134572
11591143422
11591150746
11591158192
11591166188
11591172841
11591183095
11591190480
11591198536
11591206044
11591214406
11591221363
11591229542
11591236073
11591243824
11591252003
11591259632
11591267262
11591275868
11591282948
11591290760
11591299610
11591307667
11591315602
11591321339
11591330006
11591338307
11591347462
11591355335
11591362476
11591370228
11591377674
11591385487
11591394764
11591401966
11591410755
11591418446
11591426868
11591435230
11591442676
11591451160
11591459522
11591470325
11591479664
11591486133
11591495228
11591502674
11591511158
11591517872
11591524891
11591534473
11591539478
11591548755
11591555103
11591562305
11591569324
11591576587
11591583606
11591590930
11591597766
11591605274
11591613208
11591620532
11591627490
11591634693
11591643359
11591651416
11591655139
11591664294
11591672961
11591680347
11591686755
11591693164
11591699939
11591707812
11591715381
11591724780
11591732104
11591739734
11591747790
11591755725
11591763782
11591770556
11591778796
11591787890
11591794055
11591801318
11591809375
11591819262
11591828662
11591833789
11591844714
11591852099
11591858813
11591867053
11591874011
11591882312
11591890612
11591898852
11591905810
11591913928
11591920886
11591929064
11591936938
11591943896
11591952807
11591960070
11591967516
11591975878
11591983080
11591990099
11591998217
11592007311
11592015246
11592021899
11592029894
11592037035
11592045031
11592053087
11592061205
11592067675
11592074755
11592084337
11592091478
11592098864
11592109179
11592116503
11592122789
11592132982
11592140673
11592148119
11592155199
11592163988
11592172167
11592180590
11592188036
11592195421
11592202501
11592207079
11592214037
11592222337
11592232713
11592243822
11592252611
11592262376
11592272020
11592280809
11592289659
11592298265
11592307054
11592318773
11592325426
11592332689
11592339403
11592346055
11592353746
11592360521
11592368944
11592377611
11592384080
11592392869
11592399400
11592405992
11592412278
11592421739
11592428209
11592435594
11592443528
11592451036
11592457383
11592464646
11592471543
11592478868
11592487107
11592494370
11592502122
11592507676
11592515489
11592523667
11592530991
11592538255
11592547837
11592555589
11592564622
11592572434
11592580003
11592588303
11592597825
11592604661
11592611497
11592619736
11592626633
11592635300
11592642075
11592649277
11592656113
11592662888
11592670273
11592676743
11592686020
11592691758
11592699326
11592706528
11592713913
11592721299
11592728806
11592737290
11592745407
11592753342
11592761521
11592768296
11592776352
11592783676
11592791001
11592798203
11592807602
11592814987
11592823288
11592830734
11592837753
11592845810
11592852890
11592860947
11592868027
11592876083
11592888168
11592896225
11592904404
11592912460
11592918808
11592925949
11592934128
11592941147
11592950119
11592957260
11592966903
11592974106
11592982589
11592990402
11592998764
11593009750
11593017135
11593024215
11593031601
11593039230
11593050705
11593057785
11593066207
11593074996
11593085189
11593092636
11593100021
11593107162
11593115096
11593124679
11593131454
11593142806
11593149215
11593157272
11593164047
11593173873
11593180587
11593187667
11593194442
11593202865
11593209457
11593216354
11593223678
11593230086
11593239364
11593246322
11593253646
11593260604
11593268172
11593274520
11593281783
11593289107
11593296553
11593304183
11593312545
11593321883
11593329757
11593336531
11593344771
11593350936
11593357344
11593367659
11593372176
11593381514
11593388472
11593396041
11593402693
11593409407
11593417037
11593423873
11593432112
11593438765
11593446578
11593453780
11593460921
11593468428
11593474959
11593484175
11593490950
11593498335
11593505171
11593513289
11593521406
11593528670
11593535872
11593543440
11593550581
11593558699
11593566145
11593575544
11593581953
11593588789
11593595015
11593601057
11593607283
11593614058
11593620283
11593630598
11593636213
11593642256
11593648359
11593655806
11593662458
11593669233
11593676618
11593684980
11593692976
11593701216
11593708662
11593715498
11593722822
11593729353
11593736555
11593742536
11593750654
11593758955
11593766340
11593773664
11593778669
11593785444
11593794294
11593801008
11593810834
11593823286
11593833295
11593841840
11593849225
11593858686
11593866315
11593875654
11593884504
11593891645
11593901105
11593905927
11593912641
11593921003
11593929975
11593937665
11593944074
11593952924
11593959699
11593966046
11593972699
11593979413
11593988568
11593993939
11594003522
11594009931
11594017377
11594025067
11594032269
11594039594
11594046979
11594053387
11594060651
11594068341
11594075665
11594081525
11594089032
11594096905
11594104169
11594110272
11594116986
11594126507
11594131024
11594140057
11594146527
11594153912
11594163250
11594170819
11594176861
11594186810
11594192608
11594200787
11594208172
11594216351
11594223736
11594231915
11594238690
11594246624
11594253826
11594261639
11594268902
11594279583
11594286846
11594294415
11594301617
11594309490
11594317547
11594325054
11594333538
11594341961
11594349896
11594356487
11594364544
11594368755
11594381573
11594387737
11594395977
11594404644
11594412578
11594419597
11594427227
11594433880
11594442547
11594449871
11594457622
11594466289
11594474163
11594480449
11594488140
11594496929
11594505169
11594513530
11594519146
11594527385
11594535320
11594544048
11594549480
11594557720
11594569683
11594576335
11594583843
11594594219
11594605998
11594612102
11594625408
11594633891
11594647258
11594655803
11594664348
11594674541
11594683147
11594690288
11594698222
11594705669
11594713420
11594720195
11594727458
11594735087
11594742412
11594748332
11594755839
11594763591
11594771037
11594777324
11594783671
11594793315
11594800517
11594807475
11594814494
11594823649
11594828593
11594838908
11594846171
11594853617
11594860575
11594868693
11594876811
11594884989
11594892008
11594900065
11594908976
11594914835
11594922465
11594929728
11594937113
11594945841
11594953165
11594961649
11594969096
11594977946
11594985392
11594994547
11595002055
11595009501
11595017618
11595024088
11595032267
11595039591
11595047587
11595054850
11595060099
11595067301
11595079203
11595086527
11595093485
11595101908
11595109171
11595116434
11595123270
11595131510
11595138346
11595148722
11595156778
11595162882
11595170450
11595178629
11595186014
11595194071
11595201578
11595210001
11595218179
11595225137
11595234720
11595242838
11595249979
11595256937
11595264505
11595272501
11595279825
11595288187
11595297464
11595305337
11595311990
11595318765
11595326333
11595333963
11595342630
11595349466
11595358072
11595364908
11595374002
11595381814
11595389383
11595394998
11595406106
11595413919
11595421670
11595430886
11595438821
11595446389
11595455300
11595463967
11595472390
11595479898
11595487710
11595496255
11595501870
11595509744
11595516946
11595523293
11595532632
11595538552
11595546059
11595553017
11595560403
11595567666
11595574075
11595583047
11595590615
11595598305
11595605508
11595612405
11595619179
11595626137
11595632729
11595642800
11595648476
11595658425
11595665505
11595673806
11595681679
11595687661
11595696816
11595705056
11595710854
11595718483
11595725624
11595733925
11595743386
11595750344
11595757607
11595765908
11595773293
11595782814
11595790199
11595796730
11595804726
11595811928
11595819740
11595827492
11595835487
11595842812
11595850014
11595859474
11595866493
11595873634
11595879982
11595890175
11595896583
11595904762
11595911232
11595919411
11595927894
11595935951
11595943519
11595951576
11595958961
11595964149
11595973610
11595980690
11595987770
11595995948
11596003456
11596010902
11596018959
11596025917
11596036171
11596043190
11596051124
11596058143
11596065956
11596072669
11596080604
11596087806
11596094825
11596104347
11596112098
11596119544
11596129310
11596136634
11596144447
11596152015
11596161292
11596169227
11596177833
11596184547
11596193214
11596201331
11596207435
11596218482
11596231055
11596240394
11596249732
11596262671
11596270118
11596278663
11596287391
11596295325
11596303321
11596310706
11596317542
11596324866
11596333777
11596340369
11596347205
11596354529
11596360816
11596370215
11596377356
11596384741
11596390906
11596398352
11596405249
11596412451
11596419226
11596426733
11596433936
11596441321
11596447791
11596454260
11596460791
11596471045
11596477881
11596487158
11596493994
11596501257
11596507788
11596514197
11596521155
11596529944
11596537451
11596545813
11596553076
11596560583
11596568701
11596576330
11596584387
11596591894
11596599890
11596606970
11596619970
11596627478
11596635534
11596642919
11596649084
11596657568
11596665869
11596672705
11596681066
11596687963
11596695165
11596702429
11596711828
11596719152
11596725256
11596733312
11596743261
11596751501
11596758581
11596766637
11596774572
11596779455
11596789587
11596794591
11596805028
11596812047
11596820959
11596828039
11596835485
11596843603
11596850988
11596857946
11596866002
11596874059
11596882299
11596890477
11596896520
11596905126
11596913366
11596921178
11596926061
11596936132
11596943273
11596950597
11596958776
11596965978
11596974889
11596982457
11596989537
11596997472
11597004125
11597012792
11597026158
11597031041
11597042516
11597050877
11597057835
11597066808
11597074254
11597083653
11597091588
11597099950
11597107945
11597115574
11597120885
11597128392
11597137181
11597144566
11597151280
11597158665
11597162571
11597171605
11597178379
11597186619
11597193211
11597203099
11597209813
11597216954
11597223545
11597230992
11597237644
11597245091
11597251499
11597259678
11597266392
11597274449
11597284092
11597292210
11597300511
11597305821
11597315769
11597322849
11597330113
11597337803
11597347507
11597354710
11597361973
11597367954
11597378269
11597384922
11597394993
11597404331
11597411777
11597417759
11597425876
11597433872
11597442112
11597449863
11597457981
11597465793
11597474338
11597481968
11597490024
11597497409
11597504673
11597512058
11597519321
11597527561
11597537326
11597544834
11597554233
11597561557
11597567600
11597575717
11597583286
11597592868
11597601901
11597610324
11597617770
11597623935
11597632480
11597640414
11597649448
11597657931
11597665927
11597670932
11597680637
11597687839
11597695041
11597703219
11597710544
11597718112
11597728305
11597735507
11597742953
11597750033
11597757785
11597766757
11597773898
11597782382
11597789645
11597798983
11597803866
11597811373
11597820773
11597828707
11597839877
11597847628
11597856600
11597866671
11597874423
11597883578
11597891512
11597899630
11597908480
11597916232
11597924899
11597932711
11597940951
11597947909
11597956087
11597962496
11597969759
11597977145
11597986117
11597995638
11598002657
11598010103
11598017000
11598025179
11598033175
11598041475
11598048494
11598058931
11598065950
11598074190
11598081575
11598089815
11598097322
11598102266
11598112215
11598120760
11598129244
11598136446
11598143648
11598152315
11598159639
11598166780
11598176851
11598182832
11598193025
11598199617
11598207796
11598214693
11598222688
11598230867
11598238985
11598245821
11598253389
11598263338
11598268465
11598277925
11598285127
11598292451
11598299592
11598309602
11598316316
11598324190
11598331209
11598339204
11598347749
11598355684
11598363008
11598370942
11598377290
11598384797
11598394807
11598402314
11598410798
11598418061
11598425386
11598432649
11598440644
11598447419
11598456269
11598467134
11598477143
11598485566
11598495698
11598507295
11598516328
11598524445
11598531953
11598539033
11598546479
11598552827
11598559479
11598567231
11598574128
11598584016
11598591706
11598599213
11598607148
11598614838
11598621613
11598629181
11598636139
11598644745
11598652436
11598657319
11598668915
11598677155
11598681794
11598691193
11598700776
11598711518
11598718476
11598727997
11598733795
11598741791
11598747711
11598753998
11598762787
11598769074
11598775055
11598781342
11598789887
11598796356
11598802094
11598810761
11598816742
11598825348
11598831085
11598837738
11598845306
11598852020
11598858856
11598866302
11598875152
11598881805
11598889191
11598897308
11598904205
11598911468
11598918609
11598925812
11598932220
11598940460
11598947235
11598954498
11598961517
11598968963
11598976776
11598984039
11598991668
11598999542
11599007293
11599014556
11599020904
11599027496
11599036224
11599042572
11599049285
11599055816
11599065765
11599072235
11599078948
11599087432
11599094085
11599100555
11599107940
11599116546
11599123565
11599130340
11599137603
11599145049
11599152435
11599161101
11599169707
11599177398
11599183135
11599191131
11599199248
11599206939
11599214995
11599224151
11599229155
11599236480
11599246612
11599255217
11599260100
11599270171
11599277556
11599284758
11599291655
11599300322
11599307830
11599316497
11599321379
11599331145
11599338469
11599347563
11599354460
11599361724
11599372222
11599380766
11599385649
11599394866
11599402129
11599410918
11599418852
11599427153
11599435637
11599444853
11599453703
11599461577
11599469328
11599477995
11599484953
11599493620
11599503691
11599512236
11599519194
11599527250
11599534636
11599542570
11599549650
11599557219
11599564055
11599571074
11599581144
11599588224
11599596586
11599603666
11599610685
11599618193
11599625029
11599632353
11599640348
11599647672
11599655119
11599662870
11599670194
11599677274
11599684843
11599691190
11599699491
11599706937
11599713957
11599723478
11599728361
11599738187
11599745451
11599752775
11599761503
11599768827
11599777982
11599785306
11599792875
11599800992
11599807279
11599815519
11599823087
11599831937
11599839444
11599847440
11599854886
11599862149
11599869657
11599876615
11599886258
11599893277
11599900663
11599909757
11599917203
11599924161
11599932096
11599938504
11599946744
11599955777
11599964810
11599971707
11599979886
11599988370
11599993558
11600003018
11600010037
11600017300
11600026578
11600034634
11600041714
11600049039
11600058011
11600065335
11600072903
11600079922
11600088284
11600097745
11600104642
11600111538
11600118069
11600127835
11600134427
11600139493
11600151150
11600158658
11600165738
11600174344
11600181546
11600188992
11600196072
11600203518
11600209927
11600221035
11600234036
11600240200
11600249478
11600258328
11600266812
11600271389
11600281155
11600290920
11600302395
11600309963
11600317593
11600325161
11600332424
11600338833
11600346279
11600354397
11600361660
11600368191
11600375576
11600383816
11600388454
11600397121
11600404140
11600413173
11600420620
11600426540
11600432888
11600439663
11600449123
11600455837
11600463100
11600469936
11600477993
11600485317
11600493251
11600501369
11600509426
11600518154
11600526393
11600534328
11600541957
11600547511
11600555812
11600563136
11600569423
11600575771
11600582546
11600590297
11600597377
11600606410
11600616847
11600624538
11600633693
11600640773
11600651149
11600659511
11600667018
11600674098
11600687587
11600695704
11600702540
11600709743
11600717494
11600724940
11600734584
11600741847
11600749110
11600755641
11600765834
11600773646
11600780970
11600788295
11600796534
11600803370
11600811488
11600820033
11600828211
11600835108
11600843226
11600849757
11600857997
11600868006
11600875208
11600883021
11600889918
11600896754
11600905543
11600912623
11600919703
11600928736
11600935633
11600942408
11600950281
11600957239
11600964381
11600973841
11600981104
11600990626
11600998255
11601005762
11601014002
11601018335
11601027979
11601036219
11601047388
11601059290
11601067530
11601074671
11601082605
11601091761
11601096643
11601105493
11601112574
11601122583
11601130030
11601136377
11601143823
11601150354
11601156763
11601165796
11601173059
11601180750
11601188135
11601194299
11601200830
11601209497
11601215784
11601222437
11601230493
11601237146
11601245996
11601252588
11601258508
11601267663
11601273340
11601282617
11601288415
11601296167
11601304956
11601312280
11601318200
11601325464
11601332483
11601340356
11601349633
11601357690
11601364648
11601372949
11601381494
11601386316
11601395898
11601402978
11601410302
11601419641
11601427148
11601433557
11601441491
11601450952
11601457116
11601464562
11601472497
11601481225
11601489221
11601496240
11601504235
11601511803
11601518822
11601526696
11601533410
11601541589
11601551781
11601559167
11601566125
11601576256
11601582299
11601590417
11601598046
11601605980
11601613244
11601621239
11601630272
11601636376
11601644799
11601652916
11601659508
11601666710
11601673851
11601684471
11601691735
11601698571
11601706505
11601713646
11601721642
11601730797
11601736656
11601747460
11601755760
11601762779
11601770775
11601778221
11601786461
11601794029
11601802330
11601809898
11601818199
11601829185
11601839928
11601848473
11601857323
11601865501
11601873741
11601881798
11601891563
11601899559
11601908714
11601916588
11601924583
11601932274
11601940452
11601946800
11601957115
11601961326
11601970787
11601978355
11601985313
11601995567
11602002586
11602010826
11602017295
11602025840
11602033897
11602041892
11602048850
11602057090
11602064658
11602071678
11602079551
11602087425
11602095115
11602104758
11602112083
11602118736
11602126914
11602134666
11602142783
11602149924
11602158897
11602166160
11602174216
11602181907
11602189902
11602197654
11602204856
11602212241
11602220847
11602228049
11602236289
11602243552
11602250937
11602258933
11602266074
11602274192
11602281455
11602289695
11602297202
11602304221
11602312522
11602319541
11602326926
11602333823
11602342063
11602352866
11602360373
11602367941
11602376303
11602385092
11602393271
11602400412
11602408530
11602414999
11602423117
11602431784
11602440573
11602447531
11602454733
11602462363
11602469565
11602476889
11602484518
11602494833
11602501303
11602509298
11602516562
11602524679
11602533224
11602539145
11602548849
11602556845
11602563742
11602571859
11602579367
11602586630
11602593832
11602600790
11602609030
11602616659
11602625143
11602633077
11602641134
11602648763
11602657003
11602665182
11602673971
11602684469
11602694540
11602703146
11602711874
11602721639
11602729574
11602736471
11602745687
11602753622
11602761983
11602770345
11602776327
11602784871
11602792989
11602801656
11602806722
11602816549
11602824727
11602833333
11602840657
11602847982
11602856466
11602863790
11602872518
11602879903
11602887471
11602895345
11602903646
11602912068
11602919026
11602927144
11602934041
11602942403
11602951985
11602960103
11602967305
11602975362
11602982137
11602989461
11602997517
11603004475
11603011800
11603021992
11603029256
11603035542
11603043660
11603050313
11603060506
11603066853
11603074971
11603082173
11603091328
11603100361
11603105366
11603114094
11603121602
11603131611
11603139668
11603146687
11603153950
11603161152
11603169514
11603176838
11603183979
11603191914
11603199543
11603207600
11603215107
11603223530
11603230976
11603239033
11603246113
11603253010
11603262959
11603270283
11603277729
11603284687
11603292866
11603301350
11603309406
11603316975
11603325153
11603331684
11603339863
11603346882
11603357441
11603363850
11603372028
11603379047
11603386677
11603393390
11603400165
11603408039
11603417682
11603425495
11603433674
11603440693
11603449665
11603456745
11603463886
11603471088
11603480548
11603487873
11603495746
11603504230
11603512470
11603521198
11603529987
11603538593
11603548847
11603557880
11603570392
11603578021
11603586688
11603593280
11603600848
11603608905
11603619647
11603627521
11603633807
11603642047
11603649127
11603657062
11603667132
11603673480
11603681232
11603691852
11603699725
11603705951
11603715045
11603723163
11603730670
11603737811
11603745196
11603752703
11603762164
11603769366
11603776812
11603782550
11603792803
11603800616
11603808306
11603816851
11603825518
11603832415
11603839800
11603846148
11603853594
11603860430
11603867999
11603875079
11603882464
11603889361
11603896197
11603902361
11603908404
11603914507
11603923235
11603929400
11603938860
11603944536
11603953570
11603959795
11603969012
11603976336
11603984087
11603991106
11603998614
11604006304
11604013689
11604020586
11604028582
11604036150
11604043230
11604050737
11604058367
11604065630
11604075945
11604083513
11604091143
11604098589
11604105059
11604113176
11604121477
11604129534
11604136492
11604144731
11604152055
11604159807
11604168352
11604174211
11604183855
11604194658
11604200090
11604208269
11604216997
11604225847
11604232683
11604240861
11604247941
11604259050
11604265947
11604274003
11604280961
11604288652
11604297441
11604306230
11604314836
11604328813
11604336137
11604345720
11604353715
11604361467
11604369889
11604378129
11604385697
11604395890
11604404130
11604411454
11604418107
11604426164
11604433366
11604441422
11604450639
11604458634
11604466508
11604475053
11604481950
11604490067
11604497086
11604504288
11604511613
11604519852
11604529496
11604536515
11604543900
11604551407
11604559647
11604567093
11604575394
11604582474
11604593216
11604599808
11604608048
11604615494
11604623612
11604631058
11604639237
11604646134
11604653397
11604660599
11604668961
11604676285
11604683792
11604691788
11604700638
11604706558
11604716202
11604724625
11604731949
11604740250
11604747513
11604755692
11604763016
11604770950
11604775223
11604786087
11604793533
11604801651
11604809158
11604815994
11604824173
11604831497
11604839676
11604848221
11604856338
11604863968
11604871902
11604879532
11604887832
11604894119
11604901077
11604908645
11604916946
11604926407
11604933670
11604940872
11604950027
11604957229
11604963333
11604973403
11604981155
11604989761
11604996353
11605004348
11605012161
11605020339
11605028884
11605033828
11605043472
11605052139
11605059951
11605063552
11605070571
11605074477
11605080398
11605086196
11605091140
11605097060
11605104018
11605113662
11605121535
11605128188
11605135024
11605142165
11605149856
11605157790
11605163222
11605168715
11605174392
11605178359
11605182631
11605189223
11605193252
11605197280
11605201430
11605206374
11605210524
11605215896
11605220595
11605227065
11605235244
11605239516
11605245009
11605249038
11605253066
11605257582
11605261916
11605268569
11605274245
11605278701
11605284438
11605288893
11605293593
11605298354
11605303054
11605311293
11605315810
11605320876
11605326125
11605331252
11605335951
11605340956
11605346144
11605353102
11605358412
11605366835
11605375441
11605383681
11605391554
11605400282
11605409254
11605417738
11605424513
11605433058
11605442885
11605451552
11605458998
11605464186
11605468336
11605474867
11605481520
11605487379
11605492933
11605497938
11605502455
11605508497
11605512587
11605518934
11605523146
11605528883
11605535170
11605539747
11605544325
11605549452
11605555677
11605561476
11605566847
11605572218
11605577162
11605582289
11605587843
11605591566
11605597242
11605602125
11605608717
11605614088
11605618727
11605623609
11605629408
11605633985
11605640211
11605645155
11605650648
11605655836
11605661634
11605666456
11605672010
11605679639
11605685377
11605690504
11605697523
11605702650
11605708875
11605714002
11605720045
11605725233
11605730176
11605737440
11605742078
11605747755
11605751966
11605756238
11605761609
11605765760
11605773084
11605777540
11605783704
11605786939
11605792737
11605798963
11605803479
11605806836
11605813123
11605817823
11605824231
11605829358
11605834607
11605839307
11605845594
11605850293
11605854871
11605860181
11605866895
11605872510
11605876721
11605881787
11605886975
11605892163
11605897046
11605901990
11605907056
11605912549
11605917493
11605922986
11605928052
11605933301
11605939404
11605946423
11605952222
11605957471
11605963208
11605967419
11605973584
11605977918
11605983716
11605989575
11605995190
11606000623
11606005566
11606010510
11606015393
11606021619
11606026807
11606033276
11606038403
11606044079
11606050305
11606055310
11606058667
11606064038
11606070080
11606076184
11606081982
11606087170
11606093823
11606099011
11606103344
11606108166
11606113476
11606119397
11606125927
11606131482
11606137097
11606142590
11606147168
11606152233
11606157910
11606163342
11606169689
11606174755
11606179882
11606187634
11606192822
11606198315
11606203442
11606209240
11606215527
11606222973
11606228893
11606236706
11606242870
11606249523
11606255749
11606264233
11606271923
11606278881
11606284863
11606289135
11606293530
11606299572
11606304882
11606311352
11606316235
11606322155
11606327099
11606332043
11606336681
11606342296
11606350048
11606355541
11606362560
11606367870
11606371898
11606377392
11606383678
11606387951
11606393566
11606400463
11606406994
11606411083
11606417370
11606422863
11606428234
11606434093
11606436962
11606443370
11606448803
11606455089
11606460216
11606466075
11606472911
11606477916
11606482921
11606488414
11606494152
11606500011
11606505809
11606511791
11606515941
11606521556
11606527233
11606532359
11606538280
11606543651
11606547130
11606552196
11606558605
11606563609
11606569713
11606574718
11606580211
11606586803
11606592479
11606597972
11606605052
11606609508
11606613841
11606619395
11606625438
11606632030
11606637584
11606644054
11606648143
11606653941
11606659129
11606663280
11606672069
11606677318
11606682872
11606689158
11606694774
11606699229
11606704478
11606710521
11606715831
11606722178
11606728221
11606732920
11606737559
11606742137
11606747874
11606753184
11606759104
11606763987
11606772227
11606775828
11606782725
11606789256
11606794932
11606802317
11606810740
11606816111
11606822215
11606828684
11606833872
11606839915
11606847544
11606853770
11606859080
11606864756
11606870676
11606874888
11606880930
11606886973
11606892283
11606898020
11606903147
11606908579
11606914378
11606919749
11606922678
11606928538
11606935068
11606940195
11606945200
11606951304
11606956492
11606961374
11606966990
11606972605
11606978098
11606982676
11606990366
11606997019
11607001169
11607006785
11607012156
11607017405
11607022226
11607028208
11607033762
11607039011
11607045420
11607050669
11607057688
11607063242
11607069284
11607075266
11607081125
11607086496
11607094614
11607099253
11607108164
11607112680
11607119150
11607125803
11607132211
11607138803
11607145517
11607151560
11607157724
11607162302
11607165353
11607173471
11607179147
11607185983
11607193491
11607197275
11607202829
11607208505
11607214548
11607221078
11607227060
11607232248
11607237863
11607243722
11607247873
11607253610
11607259103
11607264718
11607268197
11607275216
11607280282
11607285531
11607291452
11607296762
11607303537
11607309274
11607316049
11607323251
11607331002
11607337533
11607344308
11607349923
11607357003
11607361337
11607369943
11607374581
11607381356
11607389718
11607396554
11607404244
11607412240
11607421029
11607426095
11607434091
11607444650
11607451791
11607464242
11607473763
11607481637
11607488534
11607497079
11607504830
11607512337
11607518563
11607527352
11607534737
11607539498
11607546761
11607553231
11607560982
11607568429
11607573922
11607581917
11607587227
11607594307
11607602852
11607608834
11607613839
11607620186
11607626595
11607632576
11607636544
11607644234
11607648568
11607654244
11607660225
11607666390
11607671150
11607676338
11607681282
11607687081
11607692574
11607702767
11607707527
11607713936
11607721626
11607728401
11607735237
11607742256
11607747505
11607752632
11607758186
11607765450
11607769844
11607775764
11607782173
11607788582
11607794929
11607800484
11607805794
11607811348
11607815803
11607821602
11607824959
11607833320
11607841011
11607846443
11607850471
11607856087
11607862129
11607868110
11607874153
11607880378
11607886299
11607891609
11607895698
11607902534
11607906196
11607911567
11607918159
11607922615
11607930610
11607935859
11607941352
11607946968
11607952522
11607959114
11607963081
11607968635
11607974983
11607980598
11607985725
11607991218
11607996894
11608002815
11608007514
11608013008
11608018806
11608024970
11608029731
11608034553
11608040839
11608045661
11608050788
11608055427
11608062751
11608067817
11608077155
11608081489
11608089729
11608094978
11608102119
11608108832
11608114020
11608122260
11608127814
11608133124
11608137641
11608146003
11608148871
11608154487
11608161078
11608168586
11608173957
11608178779
11608183661
11608189277
11608194465
11608199225
11608206183
11608210822
11608216498
11608221747
11608227423
11608233710
11608239142
11608243415
11608248969
11608253974
11608262580
11608266974
11608272589
11608278815
11608284369
11608289740
11608294806
11608300055
11608306220
11608311286
11608317816
11608321356
11608326422
11608333502
11608337836
11608343207
11608348517
11608355231
11608360907
11608366278
11608370734
11608376288
11608381842
11608387274
11608392706
11608398566
11608404608
11608407904
11608412604
11608419562
11608426092
11608431402
11608436774
11608443487
11608448675
11608454840
11608460882
11608464544
11608470160
11608475958
11608482061
11608489447
11608495977
11608501715
11608506353
11608513067
11608517645
11608523443
11608528753
11608534368
11608542730
11608548346
11608553595
11608561041
11608565679
11608571722
11608576544
11608582342
11608588018
11608594488
11608602117
11608606573
11608612615
11608617193
11608620977
11608628240
11608633672
11608640142
11608645757
11608653021
11608658575
11608664556
11608671636
11608677129
11608684087
11608691106
11608697942
11608705450
11608710760
11608717840
11608724187
11608728521
11608733159
11608738042
11608743230
11608750188
11608755132
11608760747
11608765752
11608770452
11608775396
11608781072
11608786992
11608792547
11608797735
11608802739
11608807866
11608813115
11608818364
11608822271
11608830510
11608835027
11608840215
11608846074
11608850103
11608855901
11608861455
11608866094
11608872563
11608877873
11608884648
11608888127
11608895818
11608900823
11608904363
11608911626
11608916387
11608922734
11608929082
11608934941
11608940190
11608945866
11608950566
11608956242
11608961736
11608967717
11608973820
11608977177
11608983708
11608988713
11608993779
11608999455
11609004338
11609011296
11609016789
11609021916
11609027531
11609033696
11609039189
11609044438
11609049870
11609055241
11609060856
11609065861
11609072941
11609078373
11609083378
11609087773
11609093022
11609097599
11609104802
11609110539
11609116093
11609122502
11609126835
11609133915
11609138676
11609144352
11609152165
11609159672
11609167424
11609172856
11609180424
11609184818
11609194584
11609200260
11609206181
11609219242
11609225834
11609232609
11609240666
11609246281
11609253544
11609260868
11609266178
11609272892
11609284672
11609293095
11609305485
11609310612
11609319218
11609326237
11609334904
11609339969
11609349308
11609358768
11609365421
11609373600
11609381656
11609390567
11609398502
11609408512
11609413517
11609425174
11609431156
11609440799
11609447818
11609456729
11609462772
11609471866
11609479190
11609489322
11609497074
11609507144
11609515140
11609520816
11609528568
11609538028
11609544009
11609550174
11609557376
11609564883
11609570743
11609583621
11609589114
11609597659
11609605228
11609610660
11609617801
11609625430
11609631717
11609640445
11609646548
11609654666
11609661624
11609668643
11609676455
11609685855
11609693118
11609698855
11609706302
11609715518
11609724002
11609729312
11609737551
11609744143
11609753237
11609757327
11609765200
11609773318
11609780398
11609788699
11609796450
11609801455
11609810122
11609814700
11609821963
11609830386
11609836245
11609843569
11609853518
11609862673
11609867739
11609875063
11609880984
11609889040
11609897280
11609903567
11609911257
11609916750
11609924074
11609931216
11609939211
11609946963
11609955874
11609963076
11609972170
11609980288
11609986452
11609995119
11610002993
11610012331
11610018740
11610028322
11610033815
11610042055
11610051760
11610060305
11610069094
11610077516
11610082033
11610090883
11610098696
11610104067
11610110414
11610121706
11610129579
11610134157
11610144350
11610149599
11610160036
11610168459
11610174684
11610184572
11610192934
11610198793
11610208009
11610214723
11610225282
11610233644
11610242067
11610248414
11610257936
11610265016
11610269655
11610276613
11610282655
11610291871
11610297853
11610304139
11610308717
11610315187
11610320375
11610325868
11610331056
11610338990
11610343934
11610349671
11610355104
11610360597
11610365480
11610370423
11610375367
11610381166
11610386537
11610392701
11610398072
11610403687
11610409730
11610414491
11610420106
11610425599
11610431825
11610437196
11610442872
11610447633
11610453431
11610458741
11610463685
11610467225
11610473511
11610479554
11610486085
11610491334
11610497681
11610503663
11610508485
11610514161
11610519166
11610525330
11610532899
11610538331
11610543702
11610550965
11610555726
11610561158
11610566163
11610574341
11610579590
11610585267
11610590455
11610595887
11610600953
11610605896
11610610962
11610615174
11610622437
11610626770
11610633972
11610638550
11610644165
11610650025
11610655579
11610661194
11610666809
11610673584
11610678589
11610682495
11610687927
11610692505
11610699036
11610703980
11610710266
11610715698
11610722778
11610727844
11610731445
11610737854
11610742615
11610747742
11610755310
11610760620
11610765930
11610771301
11610776672
11610782898
11610788635
11610792602
11610801514
11610809692
11610815857
11610822265
11610828613
11610834534
11610839966
11610850281
11610855285
11610860656
11610865844
11610871460
11610877136
11610882507
11610888366
11610895263
11610900146
11610905273
11610912048
11610917724
11610923217
11610928711
11610933227
11610939758
11610946167
11610950195
11610955688
11610961181
11610966979
11610972656
11610975524
11610985046
11610988830
11610993286
11610999511
11611004516
11611009826
11611015624
11611021606
11611027709
11611033202
11611038574
11611043517
11611049438
11611055114
11611060668
11611066039
11611074523
11611078796
11611086913
11611091918
11611098205
11611103759
11611108764
11611114989
11611120971
11611127135
11611132751
11611138793
11611144652
11611150817
11611156554
11611160277
11611166564
11611172851
11611178222
11611183654
11611188964
11611195739
11611201110
11611206237
11611211608
11611216246
11611223143
11611229735
11611234130
11611243651
11611250304
11611257750
11611265563
11611271056
11611277281
11611283507
11611286803
11611293334
11611298338
11611303099
11611309142
11611314330
11611321043
11611325560
11611333922
11611339903
11611344298
11611351683
11611354857
11611361693
11611367735
11611373350
11611379942
11611384886
11611390074
11611396239
11611401854
11611408140
11611415282
11611421141
11611430968
11611436705
11611443358
11611448424
11611453245
11611459898
11611465208
11611470579
11611475645
11611480101
11611484800
11611489805
11611496031
11611501036
11611508970
11611514463
11611520262
11611525389
11611530088
11611537046
11611541807
11611547361
11611551329
11611560179
11611565489
11611571043
11611575010
11611580503
11611586485
11611591978
11611597166
11611603758
11611608701
11611613950
11611620542
11611626524
11611633176
11611640012
11611647215
11611652525
11611662229
11611667600
11611672727
11611678220
11611682615
11611689512
11611694944
11611700620
11611705625
11611711912
11611716306
11611722227
11611727659
11611732541
11611738096
11611744748
11611751035
11611759519
11611764158
11611769956
11611776609
11611782102
11611787900
11611792966
11611798093
11611804380
11611810300
11611817319
11611824765
11611831174
11611834531
11611842832
11611849179
11611853879
11611861569
11611868405
11611874631
11611880185
11611886655
11611892209
11611901120
11611906125
11611912839
11611920468
11611929929
11611938779
11611944821
11611949765
11611957455
11611962888
11611968259
11611973019
11611978513
11611984616
11611990170
11611994870
11612002194
11612009884
11612018979
11612024228
11612029538
11612034909
11612039425
11612046689
11612052975
11612057309
11612061459
11612067624
11612072079
11612076779
11612082882
11612088253
11612092770
11612097897
11612102719
11612107846
11612113827
11612117733
11612124020
11612129391
11612134518
11612139523
11612143795
11612148983
11612153683
11612158139
11612162777
11612169369
11612176144
11612182247
11612185055
11612191952
11612196713
11612202877
11612209103
11612216488
11612221798
11612227291
11612232113
11612238766
11612244137
11612248592
11612255367
11612259945
11612268063
11612272823
11612277401
11612282345
11612287777
11612293148
11612303768
11612309200
11612317379
11612322811
11612328670
11612333431
11612339473
11612345455
11612350094
11612355648
11612363277
11612367794
11612374447
11612380001
11612385372
11612390255
11612395198
11612400081
11612406368
11612411800
11612416622
11612422542
11612428096
11612433834
11612440425
11612445980
11612452815
11612458492
11612464351
11612470149
11612474849
11612480708
11612486263
11612492488
11612498226
11612505428
11612511043
11612514644
11612519649
11612525874
11612532527
11612538448
11612542903
11612549129
11612554500
11612559505
11612565181
11612572505
11612579402
11612584346
11612591548
11612595759
11612604671
11612612788
11612619319
11612625728
11612632136
11612637385
11612642573
11612648494
11612654048
11612659480
11612664912
11612670649
11612673762
11612679622
11612684382
11612691035
11612697139
11612701899
11612708369
11612713374
11612718379
11612722834
11612729670
11612734065
11612739802
11612747309
11612751948
11612758479
11612763423
11612768061
11612773676
11612778437
11612785578
11612790522
11612796137
11612800349
11612806147
11612811335
11612817072
11612820002
11612828791
11612834956
11612841303
11612844294
11612850520
11612855463
11612861262
11612866267
11612871882
11612877741
11612883601
11612889521
11612896845
11612902338
11612909601
11612914179
11612923517
11612928339
11612935236
11612940363
11612945246
11612952753
11612957453
11612963617
11612968378
11612975946
11612981623
11612987604
11612990717
11612998224
11613004389
11613009455
11613015070
11613019831
11613027826
11613032892
11613039545
11613044306
