11467949523
11467955200
11467960265
11467966430
11467970886
11467976440
11467981689
11467987365
11467993285
11467998351
11468004760
11468010863
11468017699
11468022887
11468029479
11468034728
11468043212
11468049926
11468056029
11468061645
11468067992
11468073791
11468080199
11468086486
11468093078
11468099853
11468105651
11468111083
11468117125
11468124205
11468129638
11468140502
11468147704
11468158080
11468164305
11468173827
11468182372
11468187926
11468197447
11468201903
11468211669
11468217833
11468227049
11468234435
11468239928
11468246398
11468252379
11468259398
11468265624
11468272032
11468277586
11468282042
11468289793
11468292967
11468301695
11468307677
11468312743
11468318785
11468325255
11468331175
11468337035
11468343199
11468349180
11468355162
11468360716
11468366270
11468371824
11468378172
11468383055
11468390806
11468395445
11468402647
11468407042
11468413817
11468418211
11468424986
11468431517
11468438353
11468444395
11468449644
11468454527
11468462156
11468467344
11468473875
11468480284
11468486326
11468491880
11468499266
11468505186
11468511228
11468518308
11468526182
11468532102
11468537840
11468543760
11468549925
11468555784
11468561765
11468568174
11468575559
11468580198
11468586546
11468592771
11468598386
11468602842
11468609068
11468616514
11468623533
11468628965
11468635435
11468640867
11468645872
11468650632
11468657834
11468664060
11468670896
11468676755
11468682554
11468688962
11468695676
11468703367
11468714109
11468721006
11468728391
11468733701
11468741819
11468747312
11468756101
11468763791
11468770932
11468776731
11468783567
11468790219
11468796323
11468802121
11468807004
11468815549
11468821286
11468827451
11468832211
11468839841
11468845578
11468852353
11468858762
11468865720
11468869443
11468877499
11468883969
11468890134
11468895383
11468901913
11468909116
11468915768
11468922177
11468928220
11468934323
11468939999
11468948849
11468956418
11468962277
11468969235
11468976010
11468982785
11468990292
11468996579
11469006527
11469011654
11469020810
11469027523
11469035092
11469040768
11469048153
11469054379
11469061276
11469069699
11469075741
11469083187
11469089535
11469096371
11469103939
11469111935
11469118283
11469124264
11469132076
11469141476
11469147823
11469157467
11469163021
11469172115
11469176693
11469186825
11469192501
11469203182
11469209957
11469216427
11469226437
11469230160
11469239986
11469244076
11469255062
11469263790
11469271114
11469279415
11469287044
11469293880
11469300533
11469309749
11469316829
11469327633
11469334957
11469345150
11469355587
11469364193
11469371944
11469381099
11469388546
11469399410
11469408138
11469415340
11469421504
11469429500
11469436641
11469444820
11469451289
11469460017
11469467952
11469475948
11469483882
11469490657
11469499934
11469506709
11469516109
11469522334
11469529414
11469537532
11469546382
11469552852
11469561580
11469567622
11469576472
11469584712
11469592769
11469598994
11469607661
11469613887
11469622737
11469629145
11469637019
11469646357
11469652095
11469661433
11469668452
11469675532
11469682002
11469692073
11469698176
11469706111
11469711848
11469720881
11469726985
11469734919
11469742365
11469748469
11469755915
11469763178
11469770625
11469776179
11469783503
11469791315
11469797602
11469806025
11469813349
11469821650
11469828730
11469835688
11469844111
11469850336
11469859247
11469865961
11469876093
11469882197
11469890619
11469898798
11469904902
11469913141
11469921015
11469927240
11469936884
11469945002
11469950678
11469959955
11469964655
11469974604
11469982233
11469990229
11469997370
11470005915
11470011957
11470021662
11470028559
11470037042
11470043390
11470051874
11470060236
11470067133
11470075494
11470082452
11470090936
11470097467
11470104852
11470113092
11470121393
11470129327
11470139276
11470152826
11470158990
11470168451
11470176996
11470183709
11470192132
11470201104
11470206903
11470215570
11470221307
11470229425
11470236932
11470244317
11470250848
11470261712
11470267633
11470275506
11470283197
11470290032
11470295953
11470304071
11470311090
11470320611
11470327142
11470333184
11470341058
11470344598
11470352593
11470357781
11470366021
11470371880
11470381097
11470386895
11470394891
11470400079
11470408501
11470414239
11470422662
11470430962
11470437920
11470443413
11470453789
11470461053
11470470574
11470478142
11470485405
11470492363
11470502190
11470509819
11470517632
11470525200
11470534356
11470541985
11470552910
11470557244
11470567192
11470573418
11470581414
11470588005
11470596672
11470605095
11470610344
11470619621
11470625603
11470634941
11470642876
11470649162
11470657829
11470665215
11470671989
11470680840
11470688591
11470696709
11470702873
11470711540
11470717766
11470724480
11470733696
11470739555
11470748833
11470753837
11470763908
11470771354
11470778557
11470784538
11470793388
11470799736
11470808281
11470817436
11470825615
11470831962
11470840507
11470846855
11470855949
11470862236
11470870231
11470877433
11470884696
11470891960
11470898490
11470908134
11470917594
11470924613
11470934196
11470941581
11470951042
11470961478
11470971549
11470979911
11470985404
11470996207
11471003165
11471010612
11471016959
11471027213
11471034293
11471041862
11471048148
11471056449
11471064689
11471071708
11471080069
11471088004
11471094230
11471101432
11471110770
11471116202
11471125419
11471129752
11471140555
11471147818
11471157950
11471166068
11471174430
11471183402
11471191825
11471199942
11471207266
11471213614
11471223075
11471229605
11471237357
11471245657
11471251883
11471260123
11471267508
11471274771
11471279715
11471292838
11471297781
11471306753
11471313834
11471322623
11471328848
11471336905
11471345389
11471353934
11471360342
11471368338
11471376822
11471383841
11471394156
11471400564
11471408865
11471417715
11471424002
11471431509
11471438894
11471445730
11471455252
11471462149
11471470022
11471476553
11471485159
11471491323
11471500051
11471506399
11471515493
11471521658
11471530386
11471537710
11471546072
11471553274
11471561941
11471569326
11471576345
11471584097
11471590322
11471598379
11471606802
11471614797
11471622976
11471628103
11471637380
11471644277
11471651540
11471659170
11471666311
11471673574
11471682058
11471688222
11471698232
11471704702
11471712819
11471721059
11471728688
11471738515
11471748281
11471756581
11471766896
11471773854
11471782643
11471789479
11471799550
11471806508
11471815602
11471824025
11471831471
11471837758
11471842641
11471851979
11471858998
11471867421
11471873769
11471883473
11471892689
11471900014
11471906300
11471914784
11471923085
11471927540
11471936818
11471946950
11471952931
11471962819
11471968434
11471975148
11471982838
11471989247
11471997242
11472007191
11472013356
11472020985
11472026844
11472034047
11472040882
11472047291
11472054859
11472060902
11472069691
11472075794
11472084034
11472089833
11472098438
11472106861
11472114430
11472120716
11472128529
11472134998
11472142933
11472150562
11472156910
11472164539
11472169117
11472177784
11472187000
11472192982
11472200306
11472207020
11472213489
11472222095
11472225941
11472234302
11472242969
11472249866
11472258716
11472264210
11472271839
11472278431
11472286060
11472293384
11472299061
11472308582
11472317249
11472322803
11472329639
11472335865
11472344471
11472350879
11472358814
11472365833
11472373706
11472379871
11472387622
11472395862
11472402088
11472409656
11472415759
11472423755
11472433215
11472439502
11472447376
11472453174
11472458667
11472467273
11472474231
11472480701
11472488208
11472495105
11472502551
11472513293
11472518848
11472530017
11472535327
11472547656
11472559680
11472565478
11472574695
11472581164
11472589587
11472597461
11472603503
11472611499
11472620044
11472627307
11472633593
11472642871
11472647998
11472656359
11472662524
11472671618
11472677966
11472687060
11472693469
11472701892
11472710070
11472716784
11472725207
11472731677
11472741381
11472748095
11472757311
11472762438
11472772631
11472776842
11472786181
11472795336
11472801989
11472809008
11472820666
11472830248
11472839648
11472847826
11472855089
11472861681
11472870775
11472877123
11472886828
11472893175
11472902575
11472909044
11472917894
11472924181
11472932848
11472939135
11472948351
11472955736
11472963610
11472971117
11472977953
11472986437
11472992662
11473000780
11473009203
11473015978
11473024523
11473031358
11473039720
11473045458
11473054796
11473059679
11473069383
11473076707
11473086107
11473090257
11473099412
11473108629
11473114915
11473123399
11473130296
11473138658
11473148179
11473154405
11473162523
11473171190
11473179490
11473187913
11473195848
11473204881
11473213487
11473219957
11473227342
11473233628
11473242662
11473249131
11473253709
11473262193
11473270494
11473277635
11473284226
11473294541
11473303636
11473311265
11473319932
11473328233
11473338059
11473345628
11473356126
11473365220
11473372849
11473383469
11473391038
11473400193
11473407517
11473417100
11473424363
11473431748
11473439438
11473446580
11473453538
11473462327
11473469651
11473477036
11473483262
11473491257
11473499558
11473502427
11473514878
11473522324
11473529465
11473536484
11473546311
11473555466
11473562851
11473569626
11473578293
11473584580
11473592026
11473600693
11473606430
11473614182
11473620896
11473628464
11473634934
11473642075
11473650803
11473658066
11473662399
11473673996
11473681931
11473689133
11473697189
11473704330
11473710800
11473719589
11473726181
11473733505
11473741928
11473748825
11473757370
11473762680
11473771957
11473777145
11473787460
11473792099
11473804245
11473808334
11473818344
11473824691
11473833969
11473840255
11473849166
11473857711
11473864852
11473873092
11473878402
11473887741
11473894454
11473903732
11473911239
11473918441
11473922775
11473932723
11473939193
11473949691
11473956161
11473963607
11473972030
11473978378
11473986800
11473993148
11474002486
11474010177
11474017257
11474025374
11474032638
11474039779
11474047042
11474053328
11474063949
11474070296
11474078963
11474085250
11474091109
11474100570
11474108992
11474115157
11474123641
11474130904
11474135115
11474146163
11474153304
11474164473
11474171614
11474179427
11474188887
11474199507
11474206648
11474216231
11474222212
11474231612
11474236128
11474244734
11474251631
11474260786
11474267928
11474274580
11474281477
11474289351
11474295637
11474304426
11474310103
11474319441
11474326948
11474332930
11474340376
11474348189
11474353926
11474359724
11474368147
11474376814
11474384260
11474390242
11474398909
11474404524
11474413801
11474417891
11474428266
11474436018
11474443525
11474453169
11474459944
11474467512
11474474348
11474480146
11474486860
11474495283
11474502851
11474511762
11474517011
11474525617
11474532270
11474538801
11474544721
11474553754
11474560896
11474568830
11474575178
11474583112
11474590803
11474598188
11474603864
11474609724
11474618329
11474626752
11474634992
11474640668
11474649213
11474654645
11474661481
11474667341
11474675519
11474681684
11474691938
11474698957
11474706830
11474713300
11474722028
11474727826
11474738324
11474746076
11474755719
11474758588
11474769574
11474775556
11474784467
11474789105
11474799542
11474807294
11474814374
11474819074
11474829938
11474835492
11474844281
11474850812
11474859845
11474868756
11474876813
11474883343
11474891400
11474898541
11474905499
11474910016
11474920331
11474929486
11474937726
11474945843
11474955487
11474963604
11474973370
11474986615
11474995343
11475006695
11475013592
11475020794
11475027142
11475036724
11475043255
11475050213
11475059490
11475067242
11475073651
11475082257
11475090557
11475097576
11475105023
11475109295
11475120770
11475127911
11475136211
11475142620
11475151104
11475157452
11475166363
11475172710
11475179241
11475188641
11475194317
11475204204
11475211162
11475218487
11475225445
11475234051
11475240520
11475249187
11475255596
11475264812
11475273052
11475280803
11475287090
11475293132
11475302532
11475307537
11475317730
11475325725
11475332988
11475339397
11475349407
11475356487
11475362651
11475371501
11475377788
11475386333
11475395061
11475403240
11475410076
11475418559
11475424053
11475433269
11475441081
11475448528
11475456767
11475463969
11475470073
11475479106
11475485515
11475493877
11475500285
11475509379
11475515727
11475525004
11475531291
11475540019
11475546306
11475553508
11475562846
11475570598
11475577861
11475584208
11475595317
11475602336
11475609721
11475616252
11475625224
11475631510
11475639689
11475648173
11475654521
11475662882
11475668498
11475677653
11475685221
11475692607
11475699626
11475707377
11475713725
11475722514
11475731608
11475737528
11475747599
11475754984
11475764201
11475771281
11475780741
11475788615
11475801798
11475810587
11475818156
11475825419
11475831583
11475840738
11475847269
11475854838
11475862345
11475871256
11475877665
11475885721
11475894266
11475900736
11475908426
11475916483
11475922281
11475930643
11475937113
11475945780
11475952249
11475959818
11475966593
11475973429
11475981973
11475988443
11475995767
11476001627
11476011759
11476018106
11476025308
11476033609
11476041666
11476047891
11476056558
11476064981
11476070474
11476079813
11476084939
11476095132
11476099832
11476111062
11476119180
11476126504
11476133645
11476140725
11476149698
11476157632
11476164285
11476171731
11476181375
11476186868
11476196878
11476205301
11476210916
11476221048
11476227456
11476240274
11476248696
11476256509
11476266213
11476274514
11476280557
11476289773
11476296365
11476305520
11476310586
11476319985
11476327004
11476336282
11476344033
11476351357
11476357644
11476366311
11476372720
11476382424
11476388650
11476396767
11476402932
11476407815
11476419533
11476425881
11476435219
11476439248
11476448647
11476455056
11476465004
11476471352
11476479653
11476488198
11476496010
11476502358
11476510964
11476519020
11476529457
11476536171
11476543556
11476553383
11476561562
11476568703
11476578957
11476585304
11476596047
11476601967
11476613014
11476620461
11476631813
11476637367
11476646828
11476653908
11476661293
11476669472
11476676735
11476684669
11476693092
11476699318
11476709389
11476715858
11476723305
11476730995
11476738319
11476746193
11476752846
11476760658
11476767128
11476774879
11476780800
11476787635
11476794716
11476803199
11476807045
11476816566
11476823585
11476832191
11476838600
11476845863
11476854286
11476860938
11476866981
11476874610
11476882179
11476889503
11476897132
11476904762
11476910499
11476917762
11476925636
11476935951
11476942481
11476951026
11476959510
11476967445
11476973121
11476981361
11476989112
11476997962
11477006202
11477012916
11477018653
11477026710
11477034339
11477041663
11477047400
11477056006
11477063636
11477069678
11477077430
11477085120
11477090979
11477098243
11477105078
11477112952
11477120154
11477127234
11477136145
11477142371
11477151953
11477158118
11477165686
11477173987
11477181494
11477189856
11477196509
11477204810
11477211646
11477219092
11477227698
11477234900
11477244055
11477251196
11477258276
11477265356
11477271765
11477280920
11477289282
11477295996
11477304724
11477313086
11477320898
11477325476
11477336035
11477345129
11477351538
11477360510
11477368628
11477380468
11477387243
11477394690
11477400427
11477409033
11477417211
11477424658
11477432592
11477440283
11477447973
11477453771
11477461401
11477467260
11477475927
11477483434
11477489233
11477496618
11477505163
11477509618
11477519262
11477525915
11477532751
11477538305
11477546239
11477554906
11477563573
11477570104
11477576635
11477582494
11477590612
11477598302
11477605321
11477613012
11477619543
11477627111
11477632909
11477640600
11477646032
11477654577
11477662511
11477670018
11477678136
11477684179
11477690831
11477699742
11477707311
11477714818
11477722020
11477729772
11477736425
11477747899
11477754796
11477762731
11477768956
11477777196
11477785497
11477792088
11477800511
11477807774
11477816991
11477823277
11477830418
11477837498
11477847142
11477851414
11477860509
11477867284
11477879552
11477886693
11477893529
11477902745
11477909825
11477916295
11477924412
11477932835
11477940342
11477946690
11477955357
11477963719
11477971165
11477978611
11477986180
11477993382
11478000035
11478009312
11478015538
11478024937
11478031224
11478039891
11478048191
11478054905
11478063328
11478072483
11478078892
11478087742
11478094212
11478099094
11478109531
11478117283
11478124668
11478132847
11478143650
11478154087
11478163120
11478169712
11478179722
11478185703
11478194858
11478202854
11478211948
11478217747
11478226291
11478230930
11478240391
11478247226
11478255649
11478260593
11478269748
11478276523
11478285068
11478289524
11478298313
11478305027
11478313388
11478321079
11478327610
11478333469
11478342075
11478347812
11478355380
11478363071
11478369357
11478377231
11478384982
11478392551
11478399753
11478407504
11478413730
11478421481
11478428928
11478435886
11478444614
11478452792
11478458347
11478467624
11478475192
11478482394
11478489596
11478496921
11478506076
11478514377
11478520602
11478529635
11478535922
11478544467
11478550937
11478558993
11478567294
11478573642
11478582858
11478587924
11478597018
11478604281
11478612521
11478618930
11478627902
11478637179
11478645541
11478652072
11478659457
11478668063
11478676425
11478682833
11478688693
11478697970
11478707552
11478713900
11478721163
11478730380
11478737948
11478745333
11478752230
11478760775
11478767733
11478776705
11478783175
11478791170
11478799593
11478806246
11478814425
11478822725
11478828951
11478838717
11478847139
11478854464
11478860567
11478866854
11478875887
11478882235
11478891146
11478900545
11478906588
11478914339
11478923799
11478931551
11478938875
11478947176
11478955110
11478966219
11478977815
11478984590
11478993562
11479001192
11479009737
11479016390
11479024812
11479030428
11479038972
11479045320
11479053743
11479059419
11479067964
11479072053
11479082246
11479089876
11479096712
11479103181
11479111726
11479115449
11479126191
11479132600
11479139741
11479145662
11479153840
11479159761
11479168550
11479174470
11479182100
11479188203
11479196199
11479203828
11479211946
11479218232
11479226289
11479234590
11479241609
11479249726
11479254975
11479264436
11479269685
11479280427
11479287446
11479294892
11479301911
11479310639
11479316865
11479324799
11479333833
11479340485
11479349824
11479357209
11479363496
11479368561
11479379914
11479384858
11479394562
11479402192
11479409394
11479415742
11479424531
11479431611
11479440033
11479448578
11479454804
11479463349
11479471344
11479479889
11479485443
11479494782
11479499787
11479510041
11479514496
11479523529
11479529877
11479539276
11479547760
11479555329
11479561615
11479570709
11479576996
11479585907
11479592194
11479600861
11479610016
11479615936
11479625336
11479631012
11479640167
11479644562
11479653900
11479660187
11479670807
11479677154
11479685577
11479694000
11479700714
11479709259
11479714081
11479723663
11479730926
11479741241
11479746551
11479757171
11479764679
11479772918
11479779632
11479788971
11479795379
11479809112
11479817352
11479823211
11479831207
11479838531
11479846649
11479853362
11479861114
11479868194
11479875213
11479884063
11479891143
11479899810
11479906097
11479914764
11479921294
11479929534
11479937286
11479943572
11479951202
11479959319
11479965118
11479972442
11479980254
11479988433
11479994170
11480002593
11480008330
11480014739
11480023772
11480028899
11480039336
11480046416
11480053618
11480060088
11480069609
11480076262
11480084868
11480091277
11480100005
11480108611
11480116790
11480123015
11480127898
11480139495
11480144621
11480153899
11480160918
11480168852
11480175383
11480185698
11480191924
11480200102
11480206389
11480215483
11480222136
11480227385
11480238371
11480247343
11480254423
11480258452
11480271330
11480278837
11480286162
11480292631
11480301542
11480308012
11480318022
11480338286
11480348051
11480356108
11480362455
11480372526
11480380705
11480386747
11480394010
11480402189
11480409391
11480415861
11480425138
11480431608
11480440946
11480447355
11480455107
11480463407
11480471342
11480477751
11480484403
11480493681
11480501676
11480510038
11480518156
11480524503
11480532804
11480540861
11480547575
11480556486
11480566312
11480577115
11480582120
11480594083
11480602872
11480609220
11480615934
11480624479
11480631620
11480638212
11480644071
11480652555
11480661527
11480668302
11480676480
11480682584
11480689603
11480696622
11480704312
11480710904
11480718473
11480723905
11480732389
11480738492
11480747220
11480752225
11480761624
11480769132
11480775845
11480782254
11480790799
11480797818
11480804471
11480810635
11480819608
11480825955
11480835477
11480841824
11480849087
11480857632
11480864957
11480873440
11480879849
11480888211
11480894742
11480904202
11480909146
11480918362
11480925564
11480934231
11480941494
11480951077
11480957974
11480964444
11480972805
11480980313
11480988736
11480996243
11481002468
11481012478
11481018826
11481023709
11481035305
11481040371
11481049893
11481058376
11481065823
11481073574
11481083218
11481087307
11481096462
11481105434
11481113247
11481119534
11481127346
11481135952
11481143032
11481151333
11481157619
11481165859
11481174160
11481181545
11481188503
11481196438
11481203151
11481214931
11481222011
11481229946
11481236660
11481245083
11481253627
11481261013
11481269313
11481278041
11481286281
11481293850
11481300258
11481308620
11481314968
11481322292
11481331630
11481336940
11481352321
11481357448
11481368312
11481376064
11481384364
11481389797
11481401759
11481410304
11481422023
11481430141
11481438502
11481441310
11481452785
11481461513
11481467860
11481476039
11481485499
11481490443
11481501246
11481506373
11481516688
11481524196
11481531520
11481538051
11481545436
11481553675
11481560817
11481569300
11481576564
11481584925
11481592128
11481598475
11481607020
11481614039
11481622401
11481629725
11481636683
11481645289
11481651820
11481660792
11481667262
11481676112
11481682520
11481691615
11481697962
11481705897
11481714381
11481719447
11481729151
11481736842
11481745997
11481755274
11481762110
11481766871
11481777979
11481782130
11481791468
11481800867
11481807215
11481815577
11481823816
11481830164
11481839014
11481845362
11481853663
11481862024
11481866968
11481876184
11481883753
11481891138
11481898340
11481906824
11481912989
11481921594
11481930994
11481938928
11481945764
11481953272
11481961572
11481968652
11481977197
11481984216
11481992456
11481999475
11482006555
11482014124
11482021448
11482028772
11482037622
11482045434
11482051050
11482059595
11482068933
11482077295
11482085657
11482093896
11482100549
11482109826
11482118676
11482125696
11482136804
11482147058
11482157312
11482168786
11482177514
11482185388
11482194726
11482202844
11482211450
11482219445
11482226464
11482234033
11482242883
11482252343
11482258935
11482266992
11482273217
11482280480
11482287316
11482294579
11482301232
11482308801
11482315636
11482324364
11482331933
11482338830
11482345483
11482351098
11482359887
11482364525
11482373986
11482382836
11482388207
11482395836
11482402184
11482408898
11482417443
11482424279
11482431054
11482438256
11482446557
11482452721
11482460961
11482467430
11482474511
11482480309
11482489525
11482495812
11482503685
11482511376
11482517052
11482524620
11482533226
11482539513
11482545372
11482553795
11482561119
11482568688
11482576988
11482582665
11482589806
11482598473
11482602928
11482612450
11482616905
11482627281
11482634178
11482640892
11482646690
11482654564
11482660972
11482669456
11482677940
11482685509
11482694053
11482701561
11482707847
11482712974
11482724632
11482729454
11482738853
11482747093
11482754478
11482761497
11482771385
11482778282
11482784996
11482791648
11482799034
11482805625
11482815269
11482821678
11482830589
11482836753
11482845847
11482854331
11482861167
11482869529
11482878074
11482884483
11482893028
11482899192
11482906577
11482914085
11482920310
11482929649
11482935935
11482946555
11482956931
11482967307
11482975974
11482983848
11482988486
11483000205
11483008262
11483018577
11483027060
11483035178
11483039328
11483048911
11483055198
11483064048
11483072409
11483081626
11483088034
11483095908
11483104270
11483111594
11483120017
11483126853
11483133994
11483142478
11483149863
11483157126
11483166342
11483174338
11483181845
11483189047
11483196799
11483203085
11483211996
11483220297
11483227011
11483235495
11483242636
11483248984
11483257895
11483265219
11483274313
11483281393
11483288351
11483298605
11483303183
11483312460
11483318686
11483328207
11483335226
11483345663
11483352499
11483360922
11483366659
11483372457
11483381063
11483385641
11483394796
11483399130
11483411459
11483418966
11483427877
11483434835
11483444113
11483450765
11483459982
11483465963
11483475179
11483480062
11483490865
11483495931
11483506673
11483512655
11483521505
11483530111
11483536642
11483544393
11483553915
11483561178
11483568502
11483574850
11483583944
11483590780
11483600973
11483607381
11483615499
11483624288
11483631978
11483638021
11483644613
11483654256
11483662801
11483669027
11483677755
11483684102
11483693196
11483701558
11483709310
11483715596
11483725789
11483731954
11483741048
11483747395
11483755147
11483763570
11483770345
11483779500
11483785970
11483795369
11483802632
11483816609
11483823811
11483834431
11483839802
11483850056
11483859212
11483868550
11483875752
11483883137
11483889363
11483897419
11483905842
11483912434
11483920857
11483927754
11483936116
11483942219
11483951435
11483958454
11483965718
11483973408
11483980854
11483987324
11483997212
11484003620
11484011433
11484019917
11484027668
11484036091
11484042622
11484051228
11484058003
11484066303
11484073505
11484080952
11484085163
11484095905
11484102924
11484111652
11484118122
11484127277
11484133686
11484142292
11484150654
11484157245
11484165851
11484172321
11484180744
11484189716
11484198139
11484204242
11484213581
11484219318
11484228656
11484236286
11484243793
11484251484
11484260151
11484266254
11484276020
11484282306
11484292316
11484299030
11484307819
11484314166
11484324237
11484332416
11484339008
11484346698
11484354633
11484361774
11484368915
11484377338
11484383746
11484392352
11484401569
11484408405
11484416766
11484423175
11484431598
11484438861
11484445270
11484450397
11484461810
11484465899
11484476031
11484482379
11484491778
11484498065
11484505938
11484514422
11484524493
11484530841
11484539264
11484545489
11484554156
11484562579
11484570086
11484576251
11484583758
11484598651
11484606219
11484612811
11484622454
11484629534
11484638445
11484647479
11484658831
11484665240
11484677569
11484682146
11484691729
11484700823
11484708819
11484715166
11484723223
11484731524
11484740252
11484746660
11484752520
11484761858
11484766985
11484776812
11484785784
11484793108
11484800005
11484808062
11484814226
11484822954
11484831316
11484838396
11484846758
11484855486
11484863970
11484871843
11484880388
11484887163
11484895525
11484902910
11484910295
11484919573
11484925981
11484934587
11484942034
11484949053
11484957781
11484964678
11484971330
11484979814
11484987505
11484993791
11485002885
11485009355
11485017290
11485025651
11485030839
11485040178
11485048112
11485055559
11485061906
11485071733
11485078020
11485087236
11485093522
11485102067
11485110307
11485118913
11485125077
11485132463
11485140825
11485146806
11485156144
11485161760
11485171098
11485179765
11485186784
11485195085
11485204301
11485208512
11485218034
11485224442
11485233903
11485240678
11485251054
11485257279
11485265885
11485274369
11485280717
11485289079
11485295670
11485302995
11485310136
11485319535
11485323746
11485333756
11485340043
11485350052
11485356339
11485364884
11485371415
11485380387
11485388749
11485396500
11485402970
11485412430
11485419571
11485428482
11485436295
11485446488
11485458573
11485466812
11485476761
11485483719
11485493424
11485500931
11485507401
11485518753
11485525467
11485534866
11485541214
11485549820
11485556046
11485564652
11485571976
11485579605
11485588821
11485596146
11485603287
11485609817
11485618240
11485624527
11485632706
11485641312
11485649002
11485657425
11485663345
11485672928
11485677810
11485687759
11485694900
11485702163
11485708572
11485718216
11485724685
11485734085
11485740310
11485748977
11485755386
11485761978
11485771377
11485779068
11485786270
11485795303
11485802566
11485807083
11485816970
11485823440
11485832351
11485842300
11485849258
11485855666
11485865615
11485872146
11485879165
11485887710
11485893691
11485903030
11485909011
11485918349
11485926162
11485933547
11485940627
11485947829
11485954116
11485963698
11485970046
11485978713
11485987136
11485994338
11486002944
11486011062
11486017409
11486025588
11486031874
11486039443
11486048781
11486052932
11486061843
11486070998
11486077712
11486086257
11486094130
11486102797
11486111403
11486119948
11486127089
11486135634
11486142653
11486148940
11486156691
11486164015
11486172316
11486181471
11486185622
11486195021
11486201430
11486211317
11486217726
11486226454
11486232985
11486245985
11486250258
11486263136
11486267653
11486278151
11486285231
11486295424
11486303053
11486316176
11486325087
11486334364
11486341749
11486350355
11486355909
11486365126
11486370191
11486379347
11486386488
11486394239
11486403517
11486410719
11486417127
11486426161
11486432508
11486442579
11486448927
11486456556
11486463819
11486472791
11486479078
11486486829
11486494337
11486501844
11486509962
11486516187
11486526868
11486533338
11486540601
11486548902
11486555433
11486563795
11486569532
11486578809
11486583692
11486594251
11486602369
11486609754
11486616834
11486625257
11486631787
11486641309
11486647779
11486656690
11486663037
11486672559
11486678784
11486687818
11486694165
11486703443
11486709668
11486716870
11486726148
11486733899
11486741345
11486747754
11486756299
11486762586
11486773145
11486779431
11486788281
11486794507
11486802624
11486811169
11486816235
11486825635
11486833264
11486840588
11486850354
11486857678
11486864697
11486872815
11486879773
11486889294
11486896191
11486904126
11486912976
11486919690
11486928357
11486935009
11486941723
11486949353
11486956189
11486965039
11486971997
11486979199
11486986889
11486992565
11487001660
11487007458
11487013928
11487022045
11487030956
11487037182
11487045849
11487053539
11487063122
11487070202
11487079418
11487092297
11487100475
11487110363
11487120434
11487128490
11487138378
11487146129
11487152111
11487162853
11487169506
11487178844
11487183666
11487194103
11487198375
11487209606
11487214122
11487225292
11487232311
11487239391
11487245678
11487254222
11487262523
11487270092
11487278820
11487286327
11487295177
11487303356
11487311107
11487315929
11487327525
11487335643
11487344310
11487351207
11487361217
11487367748
11487376964
11487383372
11487391856
11487400340
11487406566
11487415111
11487423839
11487430369
11487438548
11487445994
11487450755
11487461314
11487467662
11487474864
11487480845
11487490794
11487497081
11487506541
11487513072
11487521861
11487528331
11487536876
11487543406
11487548350
11487560557
11487566966
11487574412
11487578562
11487590647
11487594859
11487605113
11487611399
11487621226
11487627451
11487635325
11487643748
11487651377
11487659922
11487667368
11487673533
11487680796
11487690073
11487694224
11487704661
11487711863
11487720103
11487726511
11487733469
11487742075
11487753184
11487759531
11487768442
11487774790
11487780893
11487790415
11487795237
11487805246
11487814585
11487821726
11487829477
11487836924
11487843149
11487850656
11487859201
11487867319
11487873667
11487882334
11487890879
11487900766
11487907541
11487916147
11487925852
11487933176
11487942636
11487953439
11487960031
11487968942
11487977792
11487984933
11487993356
11487996225
11488006601
11488016122
11488023569
11488031015
11488038278
11488044687
11488055429
11488062692
11488070505
11488076852
11488084176
11488092782
11488099252
11488107919
11488114267
11488123544
11488128671
11488139108
11488143380
11488153512
11488159860
11488170114
11488179269
11488187020
11488194222
11488200997
11488207345
11488218514
11488224984
11488234139
11488240304
11488247018
11488256356
11488263192
11488270577
11488279671
11488289010
11488295663
11488302926
11488310067
11488319405
11488326546
11488333687
11488357308
11488366280
11488372506
11488381539
11488387764
11488397103
11488403389
11488407662
11488419747
11488427437
11488434761
11488441231
11488449715
11488456246
11488463448
11488471932
11488480599
11488487007
11488494271
11488503548
11488508370
11488518501
11488526863
11488534065
11488541023
11488551094
11488555244
11488566780
11488573067
11488580513
11488588936
11488595772
11488604256
11488613167
11488619514
11488628059
11488634285
11488642525
11488649849
11488657661
11488664802
11488671577
11488681587
11488688789
11488696113
11488702522
11488712104
11488719307
11488728645
11488735664
11488743232
11488751411
11488761604
11488772041
11488781013
11488787971
11488797737
11488806892
11488817390
11488823676
11488833198
11488839729
11488848640
11488855048
11488863532
11488869941
11488878669
11488887031
11488892829
11488902045
11488909736
11488916877
11488924384
11488931586
11488937873
11488948188
11488954658
11488963080
11488969367
11488977240
11488986030
11488992377
11489002753
11489012091
11489021430
11489032050
11489037726
11489048468
11489052863
11489063849
11489068183
11489078986
11489085517
11489095160
11489102851
11489110175
11489116705
11489125678
11489135138
11489143012
11489149420
11489158392
11489164923
11489172858
11489179266
11489187933
11489196295
11489201849
11489211127
11489219122
11489226629
11489234503
11489242010
11489248297
11489256842
11489263128
11489272406
11489280890
11489287237
11489295660
11489303900
11489310247
11489318914
11489326178
11489334600
11489341925
11489349737
11489357672
11489364080
11489372442
11489378668
11489388006
11489396673
11489405950
11489412237
11489421392
11489428045
11489434332
11489444097
11489450872
11489460333
11489465643
11489477361
11489482244
11489492681
11489497015
11489506658
11489512884
11489521795
11489531072
11489538885
11489545843
11489554571
11489564031
11489571355
11489580877
11489588079
11489595769
11489604802
11489616338
11489624639
11489631658
11489640813
11489649175
11489656133
11489664617
11489672856
11489679021
11489686223
11489695561
11489703191
11489710393
11489717595
11489725408
11489731938
11489741277
11489749822
11489757451
11489765935
11489771794
11489780156
11489786320
11489795659
11489806889
11489813115
11489821965
11489830571
11489836125
11489845463
11489852543
11489860051
11489866520
11489875187
11489884343
11489891789
11489898259
11489905583
11489914006
11489920720
11489929081
11489937626
11489946110
11489952824
11489962345
11489970585
11489976933
11489985722
11489993229
11490000553
11490007877
11490014103
11490023625
11490030216
11490039249
11490047794
11490054142
11490062870
11490069218
11490077763
11490083622
11490093204
11490101261
11490107731
11490115238
11490123051
11490132450
11490140018
11490146549
11490155948
11490162296
11490171634
11490178043
11490184452
11490193790
11490200748
11490208011
11490216617
11490223880
11490231082
11490238956
11490245426
11490254520
11490263858
11490272281
11490278629
11490286197
11490294803
11490302432
11490308963
11490316226
11490324039
11490333865
11490341312
11490345462
11490355655
11490362064
11490371829
11490378970
11490389041
11490396060
11490405276
11490414187
11490425723
11490434512
11490442447
11490449466
11490458865
11490465762
11490475650
11490484012
11490491763
11490500613
11490507693
11490516177
11490521182
11490530825
11490539065
11490546328
11490553286
11490561465
11490567996
11490575991
11490584658
11490591494
11490600100
11490606936
11490615420
11490621157
11490630801
11490635806
11490646120
11490654360
11490662173
11490669375
11490678652
11490682803
11490694704
11490701845
11490709170
11490715517
11490724734
11490733156
11490740786
11490747317
11490753481
11490762758
11490771425
11490777895
11490784975
11490794497
11490799135
11490810854
11490817812
11490824648
11490831301
11490840761
11490849184
11490855532
11490863893
11490871218
11490879640
11490885744
11490895204
11490902223
11490909548
11490916872
11490924806
11490934206
11490943788
11490948000
11490957277
11490966432
11490973146
11490981630
11490989809
11490996339
11491006410
11491014650
11491019716
11491028810
11491035524
11491044557
11491052858
11491061403
11491068116
11491076356
11491084901
11491091127
11491098939
11491107362
11491115541
11491121644
11491130799
11491139100
11491145753
11491154542
11491160401
11491168885
11491174806
11491184022
11491194093
11491200868
11491212647
11491220277
11491229554
11491236451
11491241090
11491254334
11491258973
11491274842
11491281739
11491291077
11491298951
11491305360
11491310364
11491321534
11491330872
11491338135
11491342286
11491354004
11491361512
11491369080
11491375367
11491384034
11491390686
11491400879
11491407166
11491414429
11491422974
11491428772
11491437989
11491446167
11491452698
11491459900
11491471863
11491478028
11491487610
11491492554
11491502258
11491509338
11491517883
11491524292
11491533264
11491539734
11491548279
11491556763
11491563354
11491571777
11491577637
11491587158
11491593017
11491602539
11491610779
11491618042
11491625610
11491632995
11491639526
11491648315
11491657654
11491663574
11491672119
11491679626
11491688232
11491694214
11491702758
11491708007
11491718933
11491723815
11491734252
11491742004
11491749267
11491756469
11491764465
11491770751
11491779540
11491788207
11491797485
11491803771
11491811279
11491819824
11491825805
11491835326
11491841186
11491850585
11491859801
11491867004
11491875182
11491882690
11491889892
11491897826
11491904235
11491912963
11491921508
11491928771
11491937072
11491944335
11491952636
11491957885
11491967223
11491971373
11491981322
11491987914
11491999572
11492006652
11492015074
11492021544
11492029723
11492036376
11492045165
11492057189
11492066405
11492073363
11492081908
11492091795
11492099242
11492108214
11492113402
11492123473
11492128844
11492139403
11492148070
11492155455
11492163023
11492170287
11492176756
11492184264
11492192808
11492201353
11492207823
11492215452
11492223936
11492229246
11492237791
11492246458
11492252867
11492260985
11492268553
11492274778
11492283567
11492292662
11492300169
11492306395
11492315367
11492323912
11492330259
11492338499
11492346556
11492353025
11492360472
11492369871
11492374754
11492384702
11492388975
11492400266
11492407224
11492415342
11492421629
11492430296
11492436704
11492444944
11492453184
11492462339
11492468809
11492476865
11492485288
11492490781
11492499998
11492509092
11492516965
11492523435
11492534177
11492541318
11492549314
11492556089
11492565122
11492573362
11492581052
11492587339
11492597837
11492606137
11492614072
11492620481
11492629087
11492635556
11492644040
11492650327
11492657773
11492667172
11492674802
11492682248
11492689328
11492697385
11492703610
11492711728
11492720456
11492728696
11492735104
11492743893
11492750241
11492758481
11492767087
11492772153
11492782345
11492789487
11492798764
11492806393
11492813779
11492821042
11492829037
11492835385
11492843686
11492852292
11492859616
11492868039
11492876339
11492883664
11492889218
11492901608
11492907711
11492918759
11492928158
11492940243
11492948605
11492955990
11492965634
11492974056
11492980526
11492987911
11492996151
11493005673
11493009884
11493019466
11493025753
11493036495
11493043636
11493051571
11493058102
11493066402
11493074764
11493081234
11493089779
11493097896
11493104122
11493113033
11493119625
11493127071
11493136532
11493144588
11493152034
11493159664
11493167171
11493173641
11493181942
11493190548
11493199031
11493205379
11493213436
11493221920
11493228023
11493236385
11493244686
11493251094
11493258724
11493271785
11493279231
11493288753
11493295467
11493303951
11493310237
11493317561
11493325557
11493335323
11493342769
11493350276
11493357417
11493364986
11493374019
11493381648
11493391475
11493398921
11493405147
11493414546
11493420833
11493429194
11493437495
11493445064
11493453669
11493462031
11493468318
11493477351
11493483760
11493491084
11493500422
11493504939
11493515620
11493523188
11493531001
11493537471
11493545954
11493554560
11493560603
11493569148
11493574580
11493584040
11493593134
11493599604
11493606867
11493616145
11493623347
11493630854
11493637324
11493645869
11493654169
11493661860
11493668513
11493677546
11493683832
11493691889
11493700434
11493705805
11493715693
11493724116
11493734919
11493744013
11493753107
11493760920
11493767878
11493777643
11493784723
11493794550
11493803156
11493808100
11493817621
11493825861
11493833307
11493840753
11493848688
11493854975
11493863764
11493872309
11493879511
11493887811
11493895441
11493901972
11493910211
11493918512
11493924371
11493934015
11493941827
11493949396
11493955682
11493965387
11493971979
11493979730
11493988153
11493995782
11494004571
11494010797
11494018365
11494024408
11494032159
11494038019
11494046502
11494051751
11494062310
11494069879
11494076593
11494083062
11494090448
11494096368
11494103997
11494111932
11494122003
11494128350
11494136468
11494142205
11494150262
11494156121
11494160699
11494170526
11494178643
11494187737
11494193780
11494203362
11494212640
11494218987
11494228204
11494236504
11494245293
11494253838
11494260979
11494268975
11494276360
11494284722
11494289666
11494298638
11494308037
11494314934
11494322808
11494331170
11494336052
11494345696
11494352776
11494359917
11494368523
11494377983
11494386040
11494393425
11494397515
11494407524
11494413811
11494423210
11494429741
11494439507
11494447930
11494455559
11494461968
11494470757
11494477043
11494484612
11494492058
11494498467
11494510063
11494514214
11494524101
11494534599
11494542717
11494549797
11494559441
11494566399
11494578606
11494585930
11494596123
11494603630
11494611870
11494618339
11494626823
11494633110
11494642997
11494649345
11494658867
11494665336
11494673942
11494680473
11494687980
11494695427
11494702690
11494712699
11494721000
11494728324
11494734855
11494743278
11494749687
11494758171
11494766837
11494773368
11494781730
11494789665
11494796195
11494804618
11494811088
11494818656
11494826469
11494837455
11494844962
11494851859
11494860221
11494866752
11494875358
11494883842
11494891044
11494897452
11494905997
11494914420
11494920035
11494929313
11494936881
11494944388
11494951468
11494959037
11494968192
11494974356
11494982901
11494991874
11494998282
11495006400
11495015006
11495020926
11495029288
11495038809
11495045096
11495052664
11495060111
11495067191
11495075858
11495082510
11495091605
11495098074
11495106680
11495114432
11495122733
11495129202
11495135733
11495145132
11495150931
11495160452
11495165579
11495174979
11495182059
11495189871
11495196402
11495206045
11495212515
11495221609
11495230093
11495237234
11495245657
11495248404
11495260061
11495265127
11495275503
11495282766
11495290091
11495296682
11495309133
11495316275
11495323843
11495330191
11495339468
11495345877
11495354788
11495364004
11495371511
11495380483
11495387685
11495395681
11495404104
11495414175
11495419607
11495428762
11495435903
11495447561
11495454519
11495463796
11495470815
11495478445
11495484731
11495494436
11495500722
11495509145
11495518300
11495526418
11495532888
11495537771
11495548391
11495556203
11495563588
11495570607
11495580495
11495588613
11495595937
11495603139
11495611074
11495617360
11495626210
11495632680
11495641408
11495647511
11495655995
11495664357
11495670217
11495677602
11495684621
11495692738
11495702992
11495710255
11495717397
11495725819
11495732228
11495741017
11495747426
11495757008
11495763356
11495772755
11495778920
11495783925
11495794972
11495800099
11495810536
11495814747
11495824147
11495835194
11495842396
11495846791
11495858143
11495865590
11495873463
11495879872
11495888600
11495895069
11495903553
11495912281
11495917836
11495927235
11495932240
11495941761
11495948841
11495956288
11495962635
11495973744
11495980030
11495988331
11495994679
11496003407
11496009632
11496018360
11496024647
11496032825
11496042164
11496047352
11496057300
11496064991
11496072254
11496078724
11496087269
11496093677
11496102894
11496111377
11496115955
11496126026
11496133960
11496141468
11496146351
11496156971
11496164112
11496173450
11496177600
11496187915
11496194568
11496204273
11496213306
11496220325
11496229663
11496232654
11496245838
11496253040
11496262866
11496270313
11496277759
11496284656
11496293567
11496300769
11496310046
11496318835
11496325671
11496332263
11496339526
11496345203
11496353442
11496361987
11496368518
11496376269
11496383227
11496391528
11496397998
11496406543
11496413135
11496422656
11496430774
11496437304
11496445361
11496452807
11496457263
11496467456
11496473681
11496484484
11496491076
11496498645
11496506884
11496515002
11496521533
11496528613
11496538256
11496543566
11496553210
11496563220
11496568591
11496571703
11496579150
11496583910
11496589282
11496593676
11496600451
11496604968
11496612292
11496617175
11496622912
11496627245
11496632861
11496639452
11496645006
11496649950
11496656542
11496662524
11496668261
11496674059
11496680041
11496686815
11496693590
11496697924
11496704149
11496709826
11496717089
11496721727
11496727282
11496733080
11496737963
11496743822
11496750109
11496756334
11496761034
11496766832
11496771715
11496777636
11496782762
11496787828
11496791429
11496798021
11496804186
11496809496
11496814562
11496819689
11496824510
11496829882
11496834459
11496842089
11496846788
11496853563
11496858568
11496866136
11496870897
11496875902
11496882799
11496890917
11496899400
11496904222
11496910936
11496916734
11496922594
11496927965
11496934679
11496942125
11496947862
11496951952
11496956468
11496962816
11496965440
11496972887
11496975816
11496983751
11496986619
11496992845
11496997239
11497004136
11497008287
11497013780
11497017747
11497025743
11497029039
11497036241
11497041063
11497045762
11497049791
11497056382
11497061265
11497067308
11497072129
11497078843
11497083177
11497089036
11497094773
11497099839
11497104173
11497108018
11497115892
11497119981
11497127305
11497132554
11497137620
11497142869
11497148362
11497152879
11497161729
11497164964
11497171555
11497176377
11497184739
11497190049
11497197434
11497204148
11497210252
11497215256
11497219834
11497226731
11497231919
11497236130
11497242844
11497247361
11497255418
11497261521
11497266099
11497271775
11497277817
11497283433
11497287644
11497293320
11497299424
11497306138
11497310837
11497317795
11497323777
11497329636
11497334153
11497340500
11497346665
11497352890
11497358933
11497363511
11497369614
11497375779
11497380967
11497387802
11497393662
11497398300
11497404648
11497409592
11497412644
11497419174
11497423569
11497429672
11497434128
11497440964
11497445114
11497452744
11497457565
11497464523
11497469162
11497475632
11497480637
11497487778
11497493881
11497499924
11497505417
11497513657
11497518051
11497524582
11497531418
11497536484
11497541061
11497546982
11497552780
11497558273
11497562668
11497567489
11497573898
11497578781
11497585190
11497591659
11497596054
11497601303
11497606308
11497610946
11497616623
11497621261
11497628402
11497633102
11497639511
11497644027
11497649582
11497655441
11497660141
11497664596
11497672714
11497679000
11497683517
11497689987
11497694686
11497701278
11497706405
11497711471
11497714584
11497721908
11497727401
11497734176
11497738693
11497744796
11497749252
11497755294
11497761459
11497767623
11497772201
11497778365
11497783492
11497790023
11497794479
11497800399
11497806075
11497811141
11497817550
11497822433
11497828780
11497834029
11497839034
11497841964
11497850692
11497853866
11497860641
11497865340
11497872787
11497877730
11497885299
11497889815
11497895736
11497900191
11497908675
11497913558
11497918746
11497924910
11497930770
11497935164
11497941085
11497945601
11497951705
11497956832
11497960067
11497969222
11497974227
11497981734
11497986800
11497994857
11498002059
11498007735
11498013961
11498021041
11498026839
11498033309
11498036604
11498044783
11498051314
11498059248
11498068953
11498075484
11498079146
11498087447
11498092879
11498098738
11498103865
11498111983
11498116927
11498122725
11498127303
11498134871
11498139754
11498144697
11498149946
11498156599
11498162092
11498166365
11498172102
11498177595
11498183333
11498186629
11498193098
11498200117
11498206404
11498208174
11498216414
11498221480
11498226545
11498231794
11498236921
11498239790
11498248823
11498252302
11498259260
11498263411
11498270124
11498274641
11498280256
11498286909
11498292524
11498298689
11498303572
11498307783
11498314314
11498319502
11498323164
11498331587
11498336164
11498345381
11498349714
11498355879
11498361067
11498368086
11498374189
11498380048
11498384931
11498393049
11498397138
11498401594
11498408674
11498413496
11498419111
11498422407
11498430036
11498434980
11498444196
11498449323
11498454999
11498459821
11498466596
11498472883
11498478254
11498482343
11498488386
11498494733
11498499677
11498504926
11498511213
11498516889
11498520002
11498527326
11498532087
11498540204
11498543378
11498549787
11498554670
11498561628
11498566205
11498571698
11498577863
11498585187
11498589460
11498595441
11498599652
11498603070
11498611127
11498614606
11498620954
11498626447
11498632977
11498637128
11498646649
11498651959
11498658063
11498665082
11498671063
11498674725
11498684491
11498692792
11498698224
11498703778
11498712933
11498718549
11498723126
11498729840
11498735272
11498741376
11498745709
11498752057
11498756329
11498761273
11498767560
11498774945
11498780926
11498785748
11498792218
11498797650
11498804913
11498810711
11498816998
11498823163
11498827252
11498833294
11498839825
11498847210
11498851910
11498858563
11498863263
11498867230
11498876019
11498880352
11498886456
11498892071
11498899090
11498902691
11498909283
11498915142
11498922039
11498927899
11498932476
11498939007
11498943401
11498949688
11498953838
11498960613
11498965740
11498972942
11498976849
11498983501
11498989605
11498998150
11499002544
11499010845
11499018414
11499026104
11499033123
11499043499
11499050884
11499053448
11499066326
11499073711
11499079326
11499088360
11499094829
11499104351
11499112957
11499121135
11499128582
11499135967
11499142437
11499147136
11499157085
11499164165
11499172893
11499179912
11499187175
11499195049
11499199443
11499207927
11499214336
11499222759
11499228130
11499235820
11499245281
11499252361
11499260661
11499267619
11499273235
11499280620
11499287090
11499295512
11499301921
11499312907
11499318645
11499322917
11499333476
11499340800
11499348064
11499355144
11499360881
11499370646
11499379313
11499389323
11499400371
11499407084
11499415324
11499423381
11499430522
11499439860
11499448466
11499455424
11499463298
11499471293
11499476786
11499483622
11499488993
11499493327
11499499369
11499505961
11499510844
11499515910
11499522013
11499527018
11499532084
11499537699
11499542338
11499548075
11499554118
11499560404
11499564982
11499570414
11499576334
11499581461
11499585734
11499591410
11499597208
11499604655
11499609599
11499612955
11499621012
11499625223
11499630411
11499635233
11499640848
11499645304
11499652567
11499657694
11499663920
11499668619
11499674845
11499679300
11499685282
11499691141
11499698160
11499702738
11499708536
11499714701
11499719706
11499725565
11499731180
11499735575
11499742044
11499749063
11499755838
11499760538
11499768290
11499774454
11499780985
11499787455
11499792765
11499803507
11499809061
11499815286
11499821024
11499828531
11499834329
11499840067
11499845133
11499851785
11499858621
11499863748
11499870157
11499875833
11499880472
11499886819
11499892435
11499895670
11499904581
11499908426
11499915018
11499921487
11499926797
11499933145
11499936807
11499943765
11499950723
11499955972
11499962015
11499967447
11499970621
11499978067
11499982889
11499989602
11499994302
11500001809
11500007119
11500012063
11500019754
11500024392
11500032876
11500038125
11500044717
11500051919
11500059487
11500065896
11500073587
11500080667
11500085916
11500091897
11500095437
11500103005
11500107766
11500113259
11500117898
11500124429
11500129434
11500134683
11500141580
11500147439
11500153359
11500157571
11500163613
11500168618
11500171365
11500178140
11500182839
11500190652
11500194131
11500200722
11500206033
11500211953
11500217690
11500223305
11500228188
11500234170
11500241128
11500243020
11500251626
11500256264
11500261330
11500266884
11500271950
11500277566
11500283974
11500287758
11500294167
11500299599
11500305825
11500310036
11500316262
11500320595
11500326638
11500331520
11500336953
11500343422
11500348793
11500354531
11500359413
11500365395
11500370705
11500377785
11500381508
11500387917
11500391762
11500400917
11500406655
11500415138
11500417885
11500427468
11500432778
11500441261
11500446449
11500453285
11500458840
11500463539
11500473671
11500478188
11500485146
11500491188
11500497353
11500503822
11500509499
11500514381
11500520363
11500527992
11500529884
11500538429
11500542152
11500548927
11500554176
11500560219
11500565162
11500572548
11500578407
11500584938
11500589760
11500595070
11500601112
11500606849
11500612220
11500618080
11500625770
11500632911
11500636757
11500645240
11500653297
11500658668
11500662025
11500671241
11500677162
11500683265
11500688453
11500693397
11500698341
11500703041
11500709815
11500715309
11500720069
11500725868
11500730506
11500735938
11500741859
11500746253
11500752113
11500757362
11500764015
11500769508
11500774635
11500777992
11500785377
11500788551
11500794959
11500799293
11500807471
11500811683
11500817359
11500823096
11500827796
11500833716
11500839393
11500843787
11500850135
11500854896
11500860755
11500865943
11500869117
11500876502
11500881263
11500886329
11500893714
11500899573
11500905921
11500910926
11500915320
11500921424
11500925879
11500930335
11500936866
11500941443
11500947974
11500951331
11500957556
11500962500
11500968055
11500974341
11500979590
11500984229
11500990515
11500995154
11501001929
11501006873
11501012976
11501017188
11501023474
11501027991
11501031165
11501039465
11501043189
11501050818
11501054175
11501061255
11501065283
11501071753
11501078894
11501084265
11501088538
11501094519
11501098914
11501105139
11501110815
11501115942
11501120947
11501128210
11501132605
11501137793
11501144446
11501149267
11501156897
11501162512
11501170569
11501172583
11501182959
11501187781
11501194922
11501199377
11501208410
11501212683
11501221106
11501224829
11501236303
11501240026
11501250219
11501256018
11501263342
11501269934
11501274084
11501280737
11501285498
11501291601
11501297155
11501302831
11501307165
11501312536
11501318212
11501325109
11501331152
11501335790
11501341589
11501346105
11501351721
11501357336
11501361730
11501367407
11501374303
11501380712
11501384985
11501390905
11501396032
11501400732
11501405553
11501409826
11501418066
11501423070
11501427892
11501432836
11501439367
11501443944
11501450353
11501455175
11501462011
11501467443
11501473363
11501479955
11501483556
11501490636
11501495885
11501501073
11501505590
11501511937
11501516576
11501522924
11501527868
11501534032
11501538305
11501544103
11501549901
11501556249
11501562169
11501567784
11501572179
11501576696
11501583409
11501588231
11501593358
11501596349
11501606359
11501613378
11501619115
11501622777
11501630589
11501636144
11501641087
11501644200
11501654515
11501660619
11501666844
11501672032
11501677525
11501680638
11501687901
11501692052
11501700291
11501705296
11501710545
11501715245
11501720860
11501727208
11501733250
11501738377
11501743077
11501751744
11501756016
11501763096
11501767735
11501774144
11501777501
11501783299
11501788060
11501795933
11501802708
11501810215
11501816502
11501825718
11501830235
11501835545
11501842320
11501848973
11501854466
11501860508
11501865269
11501871006
11501876133
11501881748
11501888401
11501892430
11501898045
11501903660
11501909031
11501914951
11501920078
11501924290
11501931858
11501940037
11501945286
11501948460
11501956944
11501962071
11501969273
11501974400
11501980991
11501988071
11501992893
11501998386
11502003452
11502007847
11502013706
11502017857
11502024998
11502031650
11502036960
11502042026
11502046848
11502052707
11502058018
11502063877
11502071201
11502076084
11502080845
11502087375
11502091709
11502096897
11502102024
11502108310
11502113742
11502118625
11502123996
11502130405
11502133335
11502139865
11502146213
11502151279
11502155613
11502162143
11502166782
11502172946
11502179355
11502183811
11502189975
11502195102
11502200412
11502206394
11502213718
11502217807
11502225681
11502228977
11502235935
11502242160
11502247775
11502252353
11502259738
11502264560
11502270297
11502276584
11502278903
11502286716
11502290195
11502297702
11502302158
11502309909
11502317294
11502323642
11502328097
11502334811
11502338718
11502345309
11502350925
11502357944
11502364779
11502370395
11502374728
11502383517
11502387301
11502395419
11502400912
11502411288
11502417025
11502422946
11502428134
11502435031
11502440219
11502446444
11502450595
11502455477
11502462496
11502466769
11502473300
11502477389
11502483981
11502487460
11502494418
11502497286
11502505526
11502510287
11502516451
11502521395
11502528109
11502532321
11502538302
11502542574
11502549105
11502555453
11502560214
11502566073
11502570651
11502576571
11502582003
11502586214
11502592440
11502597628
11502603487
11502608736
11502612032
11502619356
11502623507
11502629427
11502635409
11502641878
11502646761
11502652376
11502658663
11502663180
11502669527
11502673678
11502680880
11502684359
11502694002
11502697664
11502704805
11502710543
11502715120
11502719454
11502725801
11502730135
11502738680
11502743685
11502750399
11502755037
11502761568
11502766024
11502771944
11502776399
11502782869
11502788790
11502792818
11502799776
11502803072
11502809541
11502814241
11502821138
11502824434
11502833894
11502837129
11502845430
11502851473
11502856477
11502861421
11502867525
11502872591
11502877534
11502882295
11502888887
11502893648
11502899751
11502906526
11502912752
11502918123
11502923128
11502933504
11502938692
11502947603
11502951997
11502961213
11502968294
11502975068
11502983003
11502987764
11502998384
11503008760
11503016450
11503026765
11503030366
11503040315
11503048738
11503056733
11503063508
11503077241
11503085908
11503094819
11503101350
11503109040
11503113923
11503120698
11503128022
11503134370
11503143342
11503149201
11503156464
11503161408
11503167939
11503173127
11503178620
11503184052
11503188508
11503196809
11503202241
11503208100
11503213105
11503218537
11503222809
11503228303
11503235139
11503240876
11503248871
11503254181
11503260834
11503266450
11503272248
11503277375
11503281647
11503287934
11503294098
11503298432
11503303681
11503309235
11503314057
11503319672
11503324494
11503329560
11503336090
11503340851
11503347809
11503352875
11503359711
11503364350
11503370148
11503376313
11503382294
11503387909
11503391571
11503398163
11503402985
11503408295
11503413849
11503420929
11503424286
11503432709
11503438934
11503444428
11503449127
11503455780
11503460541
11503465668
11503471893
11503478912
11503484955
11503490875
11503498199
11503503082
11503507660
11503511261
11503518768
11503525726
11503533295
11503537384
11503543915
11503547455
11503554352
11503559418
11503563873
11503568084
11503575348
11503579620
11503585907
11503590057
11503595916
11503601349
11503606475
11503610504
11503616729
11503621002
11503627533
11503632537
11503641082
11503648407
11503653656
11503662872
11503669647
11503674591
11503682281
11503686431
11503692474
11503698333
11503702667
11503707549
11503714019
11503717071
11503724273
11503729278
11503735565
11503742828
11503747222
11503751678
11503757415
11503762054
11503768157
11503774505
11503778594
11503785918
11503790496
11503796844
11503801116
11503806975
11503811797
11503817107
11503822051
11503830474
11503835357
11503840484
11503844573
11503851043
11503855742
11503861602
11503867827
11503872832
11503880156
11503886504
11503892485
11503898162
11503903899
11503909026
11503916716
11503922637
11503927764
11503934478
11503938994
11503943999
11503948943
11503955046
11503961272
11503968413
11503973479
11503979949
11503986418
11503992095
11503996428
11504003813
11504010527
11504018401
11504023222
11504032195
11504036467
11504044157
11504052092
11504060027
11504069975
11504075163
11504082121
11504088469
11504094633
11504100615
11504105742
11504115080
11504122526
11504129118
11504136259
