18170170708
18170176506
18170181328
18170185600
18170190971
18170195671
18170200737
18170206169
18170210930
18170215874
18170220879
18170225822
18170230156
18170235527
18170239983
18170245171
18170250542
18170255058
18170259941
18170265068
18170269646
18170274834
18170281364
18170287163
18170293388
18170298820
18170305412
18170311271
18170319145
18170326591
18170333061
18170337761
18170344291
18170350639
18170357597
18170363640
18170369072
18170377250
18170384636
18170392021
18170399345
18170406974
18170414787
18170422294
18170428337
18170437431
18170443901
18170454704
18170462272
18170470207
18170476859
18170483756
18170491386
18170501395
18170508231
18170516288
18170523063
18170531181
18170537467
18170544913
18170552543
18170558707
18170566825
18170574576
18170581718
18170588431
18170596976
18170604789
18170611808
18170620170
18170627311
18170636344
18170644767
18170652518
18170661673
18170667960
18170677909
18170685111
18170692008
18170700309
18170708182
18170716544
18170723136
18170732047
18170739249
18170746207
18170753348
18170761771
18170769217
18170776663
18170785208
18170790885
18170798697
18170807425
18170815299
18170823111
18170829581
18170837820
18170844412
18170853690
18170859244
18170869376
18170876517
18170883108
18170890433
18170897330
18170906363
18170912527
18170919302
18170928702
18170937063
18170944876
18170951040
18170958487
18170967398
18170974783
18170983694
18170991507
18171001516
18171010305
18171018179
18171025320
18171034536
18171042471
18171049795
18171059133
18171064993
18171072622
18171081777
18171089285
18171100027
18171108144
18171115286
18171122121
18171131582
18171138357
18171148489
18171156911
18171162405
18171170583
18171179250
18171187124
18171194143
18171200551
18171209524
18171217214
18171223745
18171231313
18171238759
18171248708
18171256276
18171264821
18171271962
18171280263
18171289601
18171295827
18171304860
18171312123
18171320668
18171326528
18171335134
18171344594
18171350820
18171360768
18171369191
18171377370
18171384633
18171392201
18171401173
18171408254
18171414296
18171423207
18171430592
18171439015
18171446278
18171453419
18171459462
18171467335
18171477772
18171484608
18171491566
18171500050
18171508534
18171517140
18171525502
18171533253
18171540761
18171551503
18171558094
18171565419
18171572682
18171580677
18171588917
18171596730
18171605091
18171614186
18171621022
18171630421
18171637745
18171644337
18171653919
18171663136
18171671803
18171679554
18171687733
18171694935
18171701832
18171709827
18171719105
18171725697
18171735279
18171744312
18171753284
18171761280
18171768970
18171779102
18171787342
18171793873
18171800831
18171809070
18171818409
18171827381
18171834400
18171841236
18171850940
18171856495
18171865284
18171874561
18171880420
18171891162
18171898181
18171907642
18171914051
18171921131
18171929126
18171936450
18171945728
18171953906
18171961475
18171969348
18171977527
18171984119
18171992969
18172002979
18172009692
18172017871
18172027209
18172035083
18172042773
18172050525
18172056689
18172066150
18172073901
18172082446
18172089892
18172097827
18172104968
18172114978
18172123462
18172132312
18172139453
18172145984
18172154040
18172162402
18172172778
18172182299
18172189379
18172196215
18172203662
18172210986
18172219531
18172226977
18172234545
18172240893
18172249133
18172257189
18172264941
18172271288
18172279162
18172288256
18172296374
18172303210
18172310961
18172319262
18172326586
18172334338
18172342333
18172350207
18172356921
18172362658
18172371813
18172380236
18172387316
18172399523
18172405871
18172415453
18172422106
18172430285
18172437914
18172448473
18172456591
18172464952
18172471483
18172480822
18172487047
18172496752
18172501146
18172511278
18172519091
18172526415
18172534960
18172542467
18172551195
18172558275
18172566210
18172572984
18172580003
18172588426
18172594286
18172602647
18172608873
18172617235
18172627733
18172634019
18172640062
18172646593
18172654039
18172659532
18172667039
18172672838
18172680955
18172687425
18172693529
18172700853
18172707261
18172713121
18172721177
18172727525
18172735826
18172741868
18172746751
18172753892
18172760484
18172766465
18172772020
18172779588
18172784898
18172792894
18172798753
18172806504
18172811875
18172819383
18172825547
18172833421
18172840928
18172846299
18172853868
18172859055
18172868028
18172873582
18172882493
18172890611
18172897569
18172902879
18172910630
18172918137
18172924851
18172930527
18172940171
18172947922
18172952927
18172960862
18172968125
18172973679
18172980576
18172988694
18172997727
18173003586
18173011643
18173017075
18173025193
18173030686
18173037705
18173046494
18173056748
18173063095
18173072617
18173078843
18173085434
18173094590
18173102463
18173111740
18173119248
18173126450
18173132736
18173139023
18173144699
18173151047
18173156601
18173163254
18173172226
18173179367
18173186142
18173192307
18173199265
18173206894
18173213730
18173217392
18173228683
18173236496
18173242844
18173249252
18173256088
18173264206
18173271530
18173278305
18173286117
18173293381
18173300339
18173308456
18173315780
18173322189
18173328964
18173335312
18173345382
18173351791
18173358627
18173364669
18173371505
18173379135
18173386398
18173392257
18173402145
18173410568
18173417953
18173423873
18173430831
18173438278
18173445175
18173450607
18173461776
18173468368
18173476425
18173482284
18173489120
18173498214
18173505843
18173512801
18173518600
18173528243
18173533675
18173541793
18173549789
18173557540
18173564193
18173572433
18173580306
18173589156
18173595443
18173603316
18173609237
18173617293
18173624007
18173631209
18173640303
18173647139
18173656112
18173663253
18173670150
18173676375
18173686385
18173691756
18173701155
18173708541
18173717635
18173725875
18173734603
18173744185
18173752181
18173761214
18173768843
18173776106
18173784163
18173793501
18173799544
18173809431
18173815596
18173822310
18173833968
18173841475
18173851607
18173858198
18173865828
18173873274
18173880964
18173887556
18173894941
18173902693
18173912886
18173920759
18173927595
18173931318
18173939497
18173946394
18173951521
18173957197
18173964521
18173970930
18173977278
18173982710
18173987776
18173993696
18174000044
18174007063
18174011885
18174019087
18174025740
18174031599
18174036054
18174044050
18174049421
18174056745
18174062361
18174067854
18174073042
18174079206
18174085371
18174092451
18174099348
18174106062
18174112531
18174116987
18174124067
18174128461
18174135175
18174141462
18174147199
18174153669
18174159040
18174164838
18174171308
18174175825
18174182111
18174188154
18174194257
18174199323
18174205060
18174210431
18174216352
18174221479
18174227704
18174233320
18174239850
18174244672
18174250715
18174256269
18174261213
18174267072
18174273969
18174278363
18174285260
18174289411
18174297223
18174302045
18174308820
18174314618
18174321393
18174327008
18174333112
18174340863
18174347577
18174353925
18174361310
18174368878
18174375104
18174381085
18174388348
18174396710
18174401776
18174411176
18174417401
18174425580
18174430951
18174438397
18174444134
18174451337
18174459210
18174465436
18174472516
18174475445
18174485028
18174491070
18174496930
18174503949
18174509625
18174516278
18174521100
18174526776
18174533184
18174539349
18174546124
18174553509
18174558392
18174566082
18174571026
18174578533
18174584027
18174589764
18174596600
18174604107
18174610516
18174616253
18174623455
18174629070
18174635540
18174642620
18174649578
18174656536
18174661053
18174667645
18174672649
18174679241
18174686321
18174691265
18174699627
18174704571
18174713543
18174719158
18174724956
18174730450
18174737591
18174740826
18174751507
18174757549
18174764751
18174768963
18174776043
18174782146
18174787456
18174795025
18174802288
18174807659
18174815227
18174821087
18174825603
18174833843
18174838909
18174847820
18174854534
18174860271
18174865337
18174872661
18174878093
18174883831
18174890972
18174896465
18174904216
18174909587
18174915203
18174921977
18174927043
18174933696
18174941692
18174948467
18174954326
18174960979
18174966716
18174971294
18174978618
18174983073
18174992534
18174998332
18175005962
18175011394
18175017497
18175025676
18175033427
18175040935
18175046977
18175053203
18175060588
18175068706
18175073833
18175080363
18175088054
18175094645
18175101420
18175107341
18175113810
18175119914
18175126384
18175134013
18175141215
18175146830
18175152507
18175160319
18175166606
18175172709
18175179606
18175185405
18175191996
18175197734
18175203654
18175210856
18175217570
18175222514
18175230021
18175235087
18175242777
18175247965
18175255656
18175262675
18175268717
18175273600
18175279643
18175287150
18175293742
18175299723
18175306193
18175314005
18175320658
18175327616
18175335429
18175343180
18175351237
18175358073
18175365214
18175371195
18175379313
18175385538
18175394205
18175400370
18175407755
18175416361
18175420816
18175429117
18175435892
18175443033
18175451700
18175458414
18175465006
18175472147
18175480326
18175486856
18175492411
18175499796
18175507120
18175514810
18175522135
18175529703
18175536966
18175543985
18175550394
18175556925
18175562479
18175569071
18175575845
18175582071
18175587686
18175593729
18175599710
18175606058
18175612955
18175618448
18175624063
18175631509
18175637735
18175643289
18175649332
18175654703
18175660440
18175667642
18175673196
18175680520
18175686746
18175695413
18175702493
18175707986
18175715860
18175721780
18175728494
18175734109
18175741861
18175748697
18175755044
18175760598
18175766641
18175774087
18175780069
18175784890
18175791543
18175796792
18175801492
18175807107
18175813272
18175817910
18175824502
18175830667
18175835427
18175841958
18175848672
18175854226
18175860024
18175865090
18175870889
18175876199
18175882485
18175887917
18175894387
18175899514
18175905862
18175911965
18175918313
18175924844
18175930398
18175937295
18175943947
18175950478
18175956032
18175962685
18175968911
18175974404
18175981301
18175987649
18175992653
18175998757
18176004982
18176009194
18176016274
18176022561
18176028237
18176034707
18176041970
18176046791
18176053444
18176059059
18176064003
18176070473
18176077004
18176084328
18176088784
18176096291
18176102089
18176107704
18176114113
18176119667
18176125954
18176131996
18176137673
18176144936
18176150551
18176158119
18176164345
18176171242
18176178261
18176183083
18176190285
18176196693
18176202370
18176208595
18176214271
18176218727
18176227760
18176234474
18176240944
18176248451
18176254921
18176260780
18176268410
18176273842
18176284706
18176290382
18176296608
18176303322
18176310768
18176317970
18176322914
18176332679
18176338417
18176344276
18176351051
18176356849
18176362953
18176368751
18176376258
18176383705
18176389564
18176394813
18176400306
18176407691
18176413429
18176423805
18176430946
18176438819
18176445228
18176451087
18176457618
18176463966
18176471778
18176478492
18176484168
18176491126
18176498450
18176503699
18176511146
18176517005
18176525733
18176531837
18176538184
18176545875
18176550635
18176558570
18176564979
18176571998
18176576941
18176584266
18176591834
18176598670
18176605506
18176611426
18176618934
18176625647
18176632117
18176638892
18176647132
18176654151
18176660010
18176665930
18176671912
18176681006
18176688086
18176694312
18176701758
18176708045
18176713599
18176721228
18176729041
18176734839
18176743018
18176748145
18176754920
18176760291
18176769385
18176775977
18176784094
18176789343
18176797156
18176802954
18176811011
18176817175
18176825720
18176831946
18176838843
18176845984
18176851416
18176859045
18176865637
18176873694
18176882666
18176888159
18176897680
18176904944
18176911474
18176917944
18176926733
18176934118
18176941870
18176949438
18176954870
18176962072
18176969397
18176976660
18176985754
18176991552
18176998144
18177005712
18177012304
18177018774
18177024938
18177032568
18177039037
18177045629
18177052099
18177058386
18177065038
18177070776
18177080114
18177089697
18177097936
18177106176
18177111730
18177119909
18177127904
18177134740
18177140172
18177149816
18177156225
18177162939
18177170812
18177176488
18177181676
18177188939
18177194799
18177202123
18177206517
18177213414
18177219030
18177225499
18177232579
18177237035
18177246007
18177251866
18177258947
18177264135
18177269506
18177275792
18177282872
18177288732
18177295384
18177300389
18177307042
18177314305
18177319737
18177325170
18177331883
18177340123
18177344335
18177351170
18177356053
18177362889
18177368687
18177375218
18177383153
18177388646
18177393712
18177399937
18177405247
18177412205
18177418614
18177426854
18177432286
18177439061
18177443455
18177449986
18177454625
18177466405
18177479832
18177489110
18177499058
18177507786
18177515965
18177524815
18177533726
18177542759
18177551304
18177558567
18177570469
18177576512
18177583226
18177591221
18177597203
18177603184
18177609348
18177614964
18177622105
18177629002
18177635533
18177642124
18177647434
18177654759
18177661350
18177668125
18177675510
18177681431
18177689854
18177694920
18177702549
18177709141
18177715122
18177721470
18177728001
18177734470
18177741306
18177750706
18177756504
18177763218
18177770603
18177776279
18177783542
18177790378
18177799534
18177805454
18177812168
18177819858
18177826877
18177832309
18177842197
18177848178
18177853794
18177863010
18177868686
18177876804
18177885227
18177892490
18177898532
18177907321
18177912815
18177921115
18177927585
18177934116
18177941440
18177947788
18177954440
18177962741
18177969089
18177975131
18177982028
18177989291
18177996555
18178002719
18178008823
18178016818
18178022433
18178029330
18178036349
18178044711
18178050448
18178060336
18178067294
18178077182
18178084445
18178091281
18178099337
18178104281
18178113498
18178121615
18178131625
18178137606
18178143039
18178150180
18178156832
18178163607
18178171115
18178176669
18178184603
18178191134
18178197665
18178202792
18178208346
18178216769
18178222079
18178227572
18178234469
18178239535
18178245272
18178254305
18178259798
18178270174
18178276095
18178284029
18178290316
18178297823
18178305147
18178312044
18178319430
18178326205
18178332247
18178340609
18178346956
18178353731
18178363436
18178371554
18178378451
18178386080
18178393160
18178403170
18178410250
18178418184
18178426180
18178431978
18178438326
18178446688
18178453035
18178458284
18178466280
18178473787
18178480379
18178486482
18178496187
18178509249
18178519991
18178526155
18178534456
18178541292
18178548067
18178554231
18178564485
18178572664
18178579500
18178586885
18178592439
18178598115
18178607149
18178612276
18178623262
18178630708
18178636690
18178643770
18178652070
18178657625
18178666292
18178675020
18178682649
18178688875
18178696443
18178704255
18178711335
18178721162
18178727082
18178735688
18178744844
18178753877
18178762422
18178768403
18178775422
18178782258
18178789216
18178795198
18178800752
18178807099
18178814057
18178822175
18178827912
18178833894
18178839265
18178845246
18178852204
18178859040
18178867402
18178872407
18178879365
18178885346
18178891999
18178898896
18178904938
18178912080
18178919343
18178925080
18178930756
18178935944
18178940278
18178947419
18178953461
18178958161
18178964448
18178969636
18178976655
18178982453
18178987946
18178993683
18179000275
18179005707
18179012055
18179016449
18179022370
18179028595
18179034333
18179040314
18179046051
18179051667
18179057221
18179062653
18179069123
18179075592
18179081391
18179086945
18179092743
18179098541
18179104828
18179110993
18179116120
18179122345
18179128082
18179133148
18179138641
18179144623
18179150787
18179158722
18179165192
18179170807
18179176178
18179182770
18179188629
18179194427
18179201202
18179206695
18179211944
18179217621
18179225128
18179230865
18179237396
18179242889
18179251129
18179259796
18179265838
18179272369
18179279144
18179289215
18179296295
18179304474
18179311126
18179318756
18179325653
18179332550
18179338287
18179343658
18179351593
18179357025
18179363616
18179370513
18179377593
18179384368
18179389495
18179395477
18179402130
18179408599
18179414886
18179422210
18179427825
18179436126
18179443328
18179449065
18179455230
18179461578
18179468536
18179475921
18179483550
18179490569
18179496184
18179502593
18179507720
18179514922
18179522124
18179527984
18179534453
18179540313
18179547271
18179553252
18179560515
18179567046
18179573821
18179579802
18179587127
18179593840
18179599089
18179605437
18179611663
18179619414
18179624846
18179631560
18179636626
18179643035
18179651641
18179656768
18179664153
18179669097
18179674895
18179681059
18179689116
18179695586
18179701079
18179707427
18179713164
18179721892
18179727568
18179734343
18179739958
18179747710
18179755095
18179762297
18179769865
18179775908
18179782133
18179789519
18179796294
18179804350
18179811491
18179820586
18179827971
18179839018
18179851103
18179861174
18179871489
18179878935
18179885283
18179892668
18179900419
18179906401
18179912809
18179920195
18179927885
18179935453
18179944059
18179950224
18179956877
18179962797
18179967314
18179975736
18179981169
18179989042
18179994901
18180002592
18180008207
18180015104
18180020963
18180030058
18180036161
18180042020
18180047636
18180054899
18180062162
18180069608
18180076444
18180086881
18180093473
18180103055
18180110502
18180119230
18180125333
18180132230
18180141813
18180147977
18180156461
18180164701
18180172513
18180179410
18180189359
18180197599
18180204740
18180211820
18180219632
18180227079
18180234464
18180242337
18180249723
18180256253
18180264432
18180272855
18180280179
18180287198
18180294583
18180302030
18180308804
18180313992
18180322476
18180327420
18180334866
18180340726
18180346707
18180352261
18180358426
18180365628
18180372525
18180378445
18180386319
18180391751
18180399625
18180404446
18180411832
18180418057
18180424893
18180431546
18180436246
18180444363
18180449002
18180455777
18180460599
18180470669
18180477749
18180484341
18180490200
18180498135
18180504116
18180510342
18180518093
18180525723
18180531643
18180537258
18180543484
18180550198
18180556301
18180562710
18180568081
18180572415
18180580044
18180585842
18180591580
18180598049
18180603481
18180608791
18180615811
18180621609
18180628140
18180633755
18180638638
18180644558
18180650967
18180657497
18180661831
18180669704
18180675442
18180680935
18180687099
18180692959
18180699001
18180705776
18180711819
18180716823
18180723049
18180729702
18180734951
18180741298
18180746364
18180753505
18180760952
18180765835
18180772976
18180779201
18180784877
18180790554
18180797878
18180804531
18180809719
18180816188
18180822658
18180827846
18180834804
18180841518
18180848110
18180853725
18180860378
18180866176
18180872158
18180877895
18180884548
18180891628
18180897365
18180904323
18180911525
18180918544
18180924342
18180930751
18180938747
18180945216
18180952296
18180958888
18180965297
18180971461
18180978236
18180986049
18180991420
18180997340
18181003505
18181010951
18181018336
18181023952
18181032313
18181039149
18181045497
18181052882
18181059962
18181066249
18181074672
18181081386
18181088038
18181094630
18181102504
18181108180
18181117213
18181123622
18181131129
18181139735
18181146571
18181153102
18181160304
18181168116
18181171412
18181181422
18181187098
18181194972
18181202235
18181209498
18181214625
18181222071
18181228785
18181236292
18181243006
18181249903
18181257594
18181262843
18181270716
18181276820
18181284998
18181293177
18181298853
18181304713
18181311976
18181319788
18181325037
18181332728
18181337610
18181347559
18181352991
18181361109
18181368311
18181374476
18181380518
18181388208
18181393580
18181401758
18181408777
18181416101
18181421961
18181427698
18181437036
18181442102
18181450281
18181455652
18181464868
18181471643
18181480738
18181487146
18181493860
18181499841
18181506799
18181514917
18181520532
18181529016
18181536340
18181543481
18181550195
18181556787
18181563623
18181569116
18181577051
18181584985
18181591760
18181598352
18181605432
18181611291
18181619775
18181625696
18181634118
18181640405
18181650232
18181656885
18181665124
18181674157
18181683007
18181688806
18181695764
18181704980
18181713464
18181721032
18181726709
18181737146
18181746484
18181753259
18181759790
18181769982
18181776574
18181792199
18181799706
18181813561
18181822167
18181830407
18181838220
18181845483
18181851952
18181858727
18181865624
18181874108
18181879662
18181886498
18181894128
18181900902
18181907616
18181914513
18181922448
18181929589
18181935937
18181943200
18181951928
18181959313
18181966576
18181974389
18181978478
18181989037
18181997094
18182004479
18182010949
18182018029
18182022850
18182030846
18182037682
18182043968
18182049950
18182055992
18182062523
18182068382
18182073387
18182080712
18182087059
18182094444
18182100060
18182105309
18182110802
18182118065
18182124779
18182131920
18182139061
18182143639
18182149498
18182156212
18182161400
18182168114
18182173607
18182181358
18182189720
18182196190
18182202049
18182208824
18182214805
18182221397
18182228538
18182234581
18182239403
18182246422
18182251793
18182258507
18182264427
18182269554
18182276268
18182282371
18182289146
18182294029
18182300804
18182306114
18182312767
18182317833
18182324546
18182331504
18182337486
18182343040
18182348472
18182355979
18182363304
18182369224
18182374046
18182380271
18182389305
18182395713
18182403343
18182411949
18182419456
18182425926
18182431724
18182439841
18182444602
18182453635
18182458762
18182465354
18182471824
18182475913
18182483726
18182488914
18182495627
18182502708
18182506858
18182513938
18182519126
18182526023
18182532615
18182537742
18182544028
18182551108
18182556540
18182561423
18182569663
18182577231
18182587119
18182595969
18182604087
18182610984
18182617759
18182624289
18182632834
18182640586
18182648581
18182656272
18182664206
18182669516
18182677878
18182687399
18182693747
18182699973
18182708640
18182716025
18182724020
18182730002
18182737387
18182743979
18182751608
18182757223
18182766135
18182772726
18182778586
18182785361
18182791830
18182798849
18182804526
18182810812
18182816366
18182822958
18182830221
18182837668
18182844259
18182852011
18182857687
18182865622
18182873129
18182878683
18182886679
18182894979
18182901388
18182909628
18182915792
18182922079
18182929647
18182935018
18182946371
18182952597
18182961141
18182968649
18182974386
18182984152
18182995016
18183002035
18183009603
18183017538
18183023458
18183031393
18183039510
18183048483
18183054769
18183062521
18183071432
18183078084
18183084249
18183091085
18183099996
18183108114
18183114461
18183121480
18183127645
18183134298
18183141683
18183147970
18183153951
18183158712
18183166951
18183172872
18183178853
18183187032
18183192647
18183198995
18183205953
18183212545
18183217611
18183225240
18183232137
18183238668
18183244100
18183250386
18183257405
18183263631
18183269490
18183275838
18183282796
18183289632
18183296224
18183303304
18183309163
18183316426
18183321309
18183328999
18183335896
18183342427
18183348470
18183353108
18183361653
18183367024
18183373555
18183381734
18183388631
18183395466
18183402302
18183408772
18183415791
18183421773
18183428670
18183436360
18183441914
18183449299
18183456379
18183463337
18183470540
18183478413
18183486165
18183493000
18183504414
18183512165
18183519307
18183527607
18183533650
18183542012
18183550740
18183559040
18183566914
18183574299
18183582112
18183594868
18183602680
18183615681
18183626484
18183638935
18183648762
18183659748
18183667377
18183673725
18183682209
18183689350
18183697407
18183703754
18183710346
18183718952
18183725849
18183732685
18183740864
18183748554
18183757160
18183765033
18183771625
18183778034
18183784198
18183791401
18183797809
18183803730
18183817096
18183824970
18183831562
18183838153
18183846576
18183854755
18183860004
18183868060
18183874469
18183882587
18183888873
18183895282
18183904193
18183911334
18183919025
18183925739
18183931842
18183940692
18183946796
18183953998
18183962360
18183970355
18183977191
18183984698
18183992999
18184000079
18184007953
18184015399
18184021869
18184029071
18184035602
18184042682
18184050128
18184057696
18184063739
18184071002
18184079730
18184088641
18184096515
18184103839
18184109698
18184118121
18184125140
18184133807
18184143084
18184149981
18184158953
18184164874
18184173846
18184181902
18184188860
18184195879
18184202593
18184211688
18184220416
18184228289
18184235064
18184242022
18184250018
18184257952
18184265337
18184274126
18184281817
18184288286
18184298784
18184304461
18184314226
18184320635
18184328081
18184336260
18184348101
18184357622
18184363115
18184373430
18184384966
18184392229
18184399370
18184408892
18184414568
18184421343
18184428301
18184434221
18184441667
18184449602
18184454302
18184462053
18184467241
18184474565
18184480425
18184486467
18184492510
18184500688
18184506365
18184514055
18184519365
18184526262
18184532793
18184539934
18184546648
18184551225
18184558183
18184564348
18184571794
18184578020
18184583818
18184590288
18184596208
18184601762
18184609209
18184615739
18184621293
18184628129
18184635515
18184645830
18184651384
18184659990
18184664933
18184672502
18184677934
18184685380
18184693132
18184698075
18184706254
18184710954
18184718827
18184724992
18184731095
18184738664
18184744645
18184750138
18184757463
18184764543
18184772050
18184781510
18184787797
18184795609
18184800492
18184808183
18184814042
18184820206
18184827531
18184832963
18184838273
18184845536
18184852006
18184856889
18184861954
18184868485
18184874528
18184880997
18184886979
18184891190
18184899125
18184902054
18184910721
18184915421
18184921891
18184927811
18184934769
18184940079
18184946244
18184951981
18184958878
18184964493
18184971146
18184979264
18184986466
18184992875
18184999955
18185005265
18185011917
18185019120
18185025772
18185032913
18185038346
18185044815
18185052078
18185057877
18185064835
18185070023
18185077408
18185084061
18185090958
18185095963
18185102615
18185109818
18185116653
18185122513
18185129593
18185136246
18185141617
18185148575
18185155716
18185160660
18185169632
18185174820
18185183548
18185190445
18185196792
18185203628
18185209793
18185216629
18185224746
18185230667
18185237869
18185243789
18185250992
18185256729
18185264236
18185272171
18185279068
18185285537
18185293106
18185299636
18185307327
18185313552
18185320693
18185328628
18185335281
18185341262
18185348709
18185356033
18185361526
18185368789
18185376907
18185381973
18185390579
18185396621
18185404495
18185410171
18185418227
18185426406
18185433730
18185439407
18185446670
18185452285
18185459487
18185467055
18185472915
18185480666
18185487685
18185493178
18185499343
18185508010
18185513808
18185520766
18185528457
18185534377
18185541152
18185547316
18185554519
18185560073
18185567031
18185574111
18185581435
18185588332
18185595351
18185604201
18185609938
18185618972
18185627211
18185634841
18185641188
18185648635
18185655654
18185662612
18185670485
18185676833
18185683791
18185690566
18185698439
18185703505
18185711195
18185718214
18185723952
18185731825
18185739394
18185745314
18185752638
18185759230
18185765700
18185772047
18185779249
18185787977
18185793715
18185802260
18185808302
18185815199
18185823683
18185830763
18185837416
18185845045
18185853041
18185860426
18185868300
18185875746
18185884047
18185891310
18185898695
18185906324
18185914381
18185922010
18185930921
18185937818
18185944410
18185954481
18185961500
18185969862
18185977003
18185987257
18185995069
18186003553
18186014112
18186025037
18186032789
18186041944
18186050306
18186058485
18186065626
18186074293
18186080762
18186088880
18186098463
18186104871
18186114271
18186122266
18186130140
18186136121
18186144239
18186151746
18186160413
18186169690
18186178418
18186187207
18186194226
18186201978
18186210523
18186220716
18186226697
18186235852
18186241040
18186251172
18186259656
18186267713
18186275403
18186282544
18186289136
18186299085
18186305371
18186312939
18186319165
18186327466
18186333813
18186340955
18186346814
18186355237
18186362561
18186370618
18186377209
18186383191
18186389844
18186397473
18186405896
18186414990
18186420910
18186427075
18186433117
18186440564
18186446240
18186453869
18186459485
18186466687
18186473523
18186478161
18186485119
18186492016
18186499462
18186505688
18186510449
18186519360
18186525036
18186532604
18186537670
18186544628
18186550854
18186557446
18186562145
18186568310
18186575451
18186581432
18186586926
18186592785
18186599499
18186606091
18186612316
18186617748
18186624096
18186630932
18186636974
18186642406
18186648388
18186655163
18186661327
18186666332
18186672436
18186678600
18186685131
18186691418
18186696850
18186703197
18186710094
18186714794
18186721447
18186726269
18186733288
18186738842
18186746227
18186751415
18186757641
18186764476
18186770397
18186776744
18186785961
18186791759
18186802135
18186808849
18186818187
18186825695
18186833202
18186839794
18186846630
18186852672
18186858531
18186865123
18186871227
18186877574
18186884349
18186890331
18186897350
18186902782
18186910167
18186918040
18186925731
18186932933
18186939403
18186948070
18186955638
18186962352
18186969188
18186977428
18186985789
18186992930
18187000255
18187008738
18187015330
18187021556
18187030284
18187035716
18187043589
18187048900
18187056773
18187063975
18187069957
18187077464
18187083384
18187090953
18187098155
18187104624
18187111155
18187117442
18187123973
18187131724
18187137339
18187145884
18187151499
18187159556
18187164805
18187172740
18187178843
18187186533
18187192515
18187200022
18187206065
18187213450
18187220164
18187227122
18187233286
18187240549
18187246958
18187253489
18187261362
18187266794
18187274790
18187280527
18187288584
18187295542
18187301157
18187307749
18187314951
18187320933
18187328440
18187335764
18187343760
18187350657
18187357187
18187363474
18187370798
18187377634
18187384653
18187390879
18187397959
18187404489
18187412424
18187419992
18187426462
18187432138
18187438181
18187445566
18187454294
18187461130
18187467478
18187474130
18187480295
18187486826
18187494760
18187500864
18187508981
18187516306
18187523019
18187531076
18187537851
18187546213
18187552988
18187562448
18187570932
18187578805
18187584543
18187593088
18187599313
18187606393
18187616159
18187624704
18187634469
18187642404
18187648874
18187657785
18187664010
18187674508
18187680673
18187689645
18187697580
18187705087
18187713510
18187720956
18187729562
18187737313
18187745980
18187754525
18187762521
18187770028
18187776132
18187783761
18187792123
18187799813
18187809701
18187817086
18187825082
18187832467
18187839303
18187848397
18187854745
18187862069
18187868661
18187878060
18187884591
18187894295
18187901070
18187909615
18187918465
18187926644
18187934945
18187943001
18187950264
18187958565
18187967659
18187975716
18187982857
18187991158
18187997994
18188007576
18188013680
18188022896
18188030220
18188037239
18188044014
18188050667
18188057564
18188063484
18188069832
18188077156
18188082283
18188089851
18188095528
18188102364
18188108101
18188115181
18188121101
18188128303
18188135261
18188141975
18188147713
18188154060
18188162056
18188168831
18188173958
18188180733
18188187691
18188192451
18188198921
18188205940
18188212776
18188218391
18188223945
18188231819
18188238166
18188245186
18188253486
18188258613
18188265632
18188270393
18188277229
18188284004
18188289619
18188295173
18188300605
18188308052
18188314643
18188321968
18188328071
18188335395
18188343330
18188349372
18188355842
18188362068
18188369209
18188374641
18188380988
18188386604
18188393012
18188400092
18188406013
18188411628
18188417182
18188423957
18188429511
18188436408
18188441657
18188448188
18188455512
18188461433
18188466804
18188474311
18188480720
18188486274
18188493354
18188499091
18188505988
18188511603
18188518256
18188525580
18188531867
18188537909
18188544318
18188551642
18188557135
18188564215
18188570014
18188576728
18188583747
18188588263
18188594428
18188601691
18188610236
18188617621
18188623603
18188630927
18188638373
18188644721
18188649542
18188658209
18188663153
18188671393
18188676459
18188685919
18188691351
18188699225
18188704657
18188712531
18188718146
18188725592
18188730963
18188737921
18188746039
18188752692
18188758795
18188764838
18188774176
18188780462
18188785956
18188792914
18188800177
18188807013
18188813910
18188822210
18188827704
18188835455
18188841436
18188848578
18188854437
18188861212
18188869024
18188875860
18188883367
18188888616
18188897161
18188903082
18188911444
18188919195
18188927496
18188934881
18188942144
18188949163
18188956732
18188963812
18188970709
18188979192
18188984869
18188992925
18188999883
18189007696
18189012457
18189019659
18189026311
18189033758
18189042364
18189047369
18189055913
18189062810
18189069280
18189076543
18189082769
18189089239
18189095403
18189102971
18189110418
18189116582
18189124334
18189130498
18189137761
18189145391
18189150457
18189159856
18189166509
18189172979
18189180425
18189194158
18189201665
18189209722
18189216802
18189223455
18189230107
18189238408
18189245488
18189254094
18189261418
18189269109
18189276494
18189282781
18189292485
18189298894
18189308171
18189314580
18189324528
18189331303
18189338933
18189347722
18189354802
18189360966
18189370671
18189378117
18189385686
18189393376
18189400883
18189407963
18189417241
18189423771
18189433293
18189439579
18189447026
18189455204
18189463383
18189470829
18189479008
18189486576
18189496830
18189503361
18189511662
18189520939
18189529179
18189536564
18189544865
18189551762
18189562321
18189568852
18189577396
18189587101
18189595585
18189602116
18189610477
18189621281
18189629520
18189637028
18189645878
18189653141
18189662296
18189672367
18189681583
18189691837
18189700138
18189706730
18189716739
18189722965
18189732242
18189738102
18189745487
18189753971
18189760440
18189767643
18189775333
18189781681
18189787723
18189794681
18189802799
18189809146
18189817203
18189823978
18189829837
18189836246
18189843692
18189849796
18189855838
18189863529
18189869083
18189875064
18189881900
18189889285
18189897525
18189904361
18189909000
18189916507
18189923221
18189929141
18189934573
18189940494
18189947391
18189953311
18189958926
18189965213
18189972293
18189978213
18189984439
18189990359
18189996097
18190002017
18190008914
18190016910
18190023074
18190029666
18190034549
18190040957
18190047244
18190054751
18190063235
18190069461
18190079592
18190087283
18190094485
18190102603
18190110720
18190119815
18190127078
18190139468
18190147708
18190156374
18190163760
18190171877
18190181460
18190189272
18190197329
18190206423
18190214602
18190223330
18190231386
18190241274
18190250979
18190260256
18190269594
18190278261
18190287844
18190296084
18190305849
18190315004
18190323305
18190333681
18190343813
18190353212
18190363283
18190378420
18190387758
18190402468
18190413698
18190423830
18190436586
18190449892
18190460329
18190467348
18190480287
18190489015
18190498354
18190507936
18190519228
18190529054
18190537050
18190548463
18190558961
18190567689
18190578798
18190589113
18190599550
18190606752
18190618776
18190627321
18190636537
18190645570
18190657533
18190667298
18190675721
18190685060
18190695924
18190703370
18190713868
18190725953
18190735291
18190746583
18190754884
18190765199
18190773744
18190786622
18190798096
18190806458
18190817139
18190825501
18190837220
18190848633
18190856446
18190867615
18190877747
18190885743
18190895264
18190907959
18190916932
18190926758
18190936768
18190945130
18190954651
18190964661
18190974305
18190984314
18190995789
18191007141
18191016480
18191023255
18191033142
18191042175
18191052429
18191063233
18191072693
18191083008
18191090820
18191100708
18191111267
18191120911
18191131531
18191141296
18191151550
18191161316
18191169250
18191179687
18191191162
18191202209
18191211609
18191225341
18191237304
18191249755
18191258911
18191270263
18191279296
18191290283
18191302673
18191311828
18191323181
18191334289
18191344848
18191355956
18191365844
18191374328
18191384216
18191393005
18191404235
18191414184
18191421935
18191432250
18191441650
18191453673
18191462218
18191471251
18191482299
18191491027
18191500976
18191509826
18191520018
18191531310
18191541198
18191550292
18191562072
18191569579
18191579283
18191589598
18191601073
18191607298
18191616271
18191622191
18191630675
18191637267
18191643431
18191650206
18191657652
18191664244
18191669066
18191679503
18191685973
18191691283
18191699217
18191704954
18191711851
18191719176
18191726073
18191732298
18191739256
18191744749
18191752684
18191762144
18191769713
18191778074
18191786619
18191794493
18191803221
18191811461
18191817869
18191826353
18191834349
18191841490
18191847654
18191854979
18191864317
18191869749
18191877928
18191882933
18191890623
18191896116
18191902098
18191907957
18191915403
18191922422
18191929014
18191935423
18191941404
18191947386
18191952512
18191960874
18191965818
18191980161
18191989500
18191997129
18192003477
18192011777
18192020017
18192026426
18192032835
18192038084
18192044614
18192052000
18192058591
18192064084
18192069211
18192076230
18192082639
18192087644
18192093625
18192099973
18192106565
18192113096
18192118528
18192123960
18192129453
18192136106
18192141294
18192147153
18192153989
18192159604
18192165464
18192170591
18192176450
18192182187
18192189084
18192195005
18192200864
18192206174
18192213437
18192218442
18192223874
18192229917
18192236569
18192242490
18192247617
18192253598
18192258725
18192264829
18192271237
18192276303
18192283933
18192290036
18192296506
18192302548
18192307126
18192315610
18192321652
18192327267
18192334164
18192339169
18192346005
18192350827
18192357236
18192363522
18192370114
18192374814
18192381405
18192387570
18192394345
18192399350
18192405941
18192410885
18192418087
18192423581
18192430233
18192435482
18192442196
18192447689
18192454342
18192461727
18192469174
18192474972
18192479611
18192486325
18192493099
18192498898
18192503536
18192512997
18192520016
18192528073
18192534115
18192545223
18192552731
18192563778
18192569759
18192578548
18192585262
18192592953
18192600155
18192605282
18192615414
18192621822
18192628292
18192634273
18192642086
18192648250
18192654598
18192660579
18192668758
18192675899
18192682125
18192689388
18192695492
18192703060
18192709041
18192717220
18192722652
18192730220
18192735897
18192742305
18192749569
18192755245
18192762447
18192768550
18192775814
18192783016
18192790279
18192796749
18192801937
18192808956
18192816707
18192824458
18192833370
18192840694
18192848506
18192856380
18192864619
18192872371
18192879878
18192889461
18192896419
18192903377
18192911250
18192919246
18192925410
18192934260
18192941890
18192950679
18192958858
18192964473
18192973384
18192978145
18192984981
18192989497
18192999690
18193006038
18193012324
18193019038
18193025447
18193031733
18193039668
18193045710
18193052485
18193058833
18193065425
18193072871
18193079158
18193086054
18193092341
18193098872
18193107356
18193114192
18193122004
18193127619
18193134944
18193140131
18193147700
18193156489
18193162409
18193168940
18193176997
18193183405
18193189753
18193198115
18193207819
18193217097
18193225519
18193234370
18193243708
18193251765
18193258295
18193267267
18193274714
18193285151
18193290827
18193298456
18193304499
18193312189
18193316767
18193325068
18193334101
18193339777
18193347467
18193353815
18193363581
18193369989
18193378107
18193385492
18193392938
18193400507
18193408136
18193416071
18193422479
18193429010
18193437494
18193444940
18193453241
18193460748
18193468134
18193475153
18193480646
18193489191
18193497613
18193504877
18193513116
18193521600
18193527704
18193534906
18193541070
18193546258
18193554254
18193560785
18193566217
18193570428
18193578119
18193583429
18193589532
18193595758
18193603082
18193608392
18193614679
18193621087
18193625055
18193632074
18193637811
18193643365
18193650445
18193656854
18193661309
18193666986
18193671746
18193677606
18193684930
18193691949
18193698419
18193705804
18193712762
18193718926
18193725396
18193732842
18193738458
18193743585
18193750176
18193756524
18193761041
18193769769
18193777032
18193781243
18193788506
18193792962
18193799859
18193807915
18193814507
18193821282
18193828240
18193835198
18193843011
18193849724
18193856316
18193864007
18193869011
18193877434
18193883843
18193888787
18193895134
18193901055
18193906853
18193914299
18193919854
18193926384
18193932366
18193937920
18193945183
18193952019
18193956841
18193963799
18193969841
18193976982
18193984612
18193991081
18193998100
18194003899
18194010185
18194016472
18194023857
18194029106
18194037041
18194044609
18194049736
18194057060
18194062309
18194069511
18194077995
18194083061
18194090446
18194098198
18194105156
18194112907
18194118828
18194125664
18194132011
18194139335
18194144768
18194153251
18194159172
18194167351
18194172050
18194182182
18194188774
18194195488
18194201164
18194210197
18194215080
18194223014
18194228691
18194235832
18194242851
18194250358
18194256156
18194262992
18194268608
18194278739
18194285148
18194291191
18194300041
18194305595
18194313163
18194318839
18194325004
18194332511
18194338371
18194346488
18194355521
18194361930
18194373222
18194380790
18194389274
18194396354
18194403556
18194413688
18194421683
18194427177
18194433219
18194440787
18194447928
18194453544
18194462516
18194469413
18194476310
18194483390
18194489249
18194496451
18194503409
18194512992
18194519278
18194527579
18194532523
18194540152
18194547843
18194554190
18194562491
18194566947
18194574881
18194579459
18194587271
18194593436
18194600699
18194607657
18194613822
18194621756
18194627738
18194633841
18194642996
18194650687
18194658194
18194665762
18194674490
18194683157
18194687308
18194699026
18194706534
18194714773
18194723746
18194730215
18194737540
18194744375
18194753714
18194761709
18194767813
18194778372
18194788260
18194796866
18194804434
18194813894
18194821096
18194830130
18194836721
18194843801
18194851675
18194860281
18194867666
18194874624
18194882131
18194890981
18194898733
18194906667
18194914602
18194922292
18194931020
18194937307
18194945242
18194953054
18194961721
18194968313
18194976003
18194982656
18194988943
18194998952
18195005483
18195014150
18195020803
18195027944
18195037221
18195044912
18195051992
18195058889
18195066030
18195076040
18195083120
18195090261
18195097463
18195104909
18195114431
18195122121
18195129750
18195136647
18195143666
18195149526
18195154103
18195162038
18195168752
18195174367
18195180959
18195186574
18195193654
18195199330
18195205800
18195211354
18195216969
18195223927
18195230519
18195236806
18195242604
18195250478
18195255971
18195263783
18195268727
18195276784
18195282338
18195290211
18195296071
18195303578
18195309865
18195314564
18195321339
18195328114
18195333302
18195340016
18195346425
18195353688
18195359852
18195365040
18195371083
18195377003
18195384572
18195388478
18195395497
18195400441
18195407032
18195411122
18195418568
18195426503
18195431630
18195438893
18195443470
18195449879
18195455738
18195461293
18195469227
18195473927
18195479298
18195485584
18195490833
18195497730
18195502491
18195509449
18195515919
18195521290
18195526417
18195530750
18195537342
18195543263
18195548756
18195554127
18195560230
18195567677
18195574390
18195579700
18195584522
18195589405
18195596058
18195602222
18195609669
18195615711
18195620167
18195626392
18195632618
18195640552
18195645801
18195653919
18195659961
18195667713
18195674244
18195680408
18195687732
18195693775
18195701648
18195708301
18195714771
18195719287
18195725757
18195732349
18195737110
18195745105
18195750049
18195756153
18195762012
18195767932
18195773181
18195780994
18195786365
18195792468
18195798999
18195804614
18195810291
18195817859
18195822131
18195830188
18195836780
18195844165
18195850391
18195855334
18195861133
18195868762
18195875537
18195881274
18195889148
18195895679
18195901904
18195907336
18195913623
18195920032
18195926318
18195933215
18195939746
18195947192
18195953296
18195958484
18195966418
18195971972
18195980945
18195987353
18195993457
18196000048
18196007068
18196012927
18196018725
18196024279
18196031604
18196039904
18196047168
18196054187
18196059924
18196066088
18196074328
18196081347
18196089038
18196095873
18196101672
18196108264
18196115954
18196122363
18196128100
18196134387
18196141833
18196148364
18196154101
18196162280
18196167773
18196174364
18196180651
18196188464
18196194384
18196201769
18196207567
18196213549
18196219713
18196227465
18196232226
18196240648
18196247545
18196255785
18196262133
18196267138
18196274401
18196282152
18196289843
18196296190
18196304857
18196311083
18196317858
18196326097
18196333239
18196340319
18196347948
18196356737
18196362047
18196369188
18196377001
18196383409
18196390489
18196396837
18196403551
18196411058
18196418382
18196426012
18196432970
18196439806
18196446153
18196452928
18196459459
18196468187
18196475145
18196482286
18196488573
18196496446
18196504259
18196511034
18196517564
18196525865
18196531969
18196539049
18196545396
18196554307
18196560655
18196568284
18196575181
18196582872
18196590623
18196597581
18196603135
18196609910
18196616990
18196624803
18196633226
18196640306
18196647691
18196654954
18196661058
18196668443
18196675279
18196682725
18196689622
18196696824
18196704392
18196710435
18196719407
18196726426
18196732224
18196741258
18196747544
18196756760
18196763779
18196772691
18196780259
18196788560
18196796372
18196804734
18196811997
18196820481
18196827256
18196834458
18196842515
18196851121
18196858506
18196865708
18196872056
18196879502
18196884751
18196892197
18196896897
18196903733
18196909775
18196915818
18196923813
18196928940
18196935227
18196941269
18196949814
18196955857
18196963364
18196972885
18196979843
18196988205
18196994797
18197003464
18197010788
18197018540
18197024643
18197032028
18197036728
18197044418
18197049850
18197056747
18197065720
18197071091
18197078110
18197083359
18197090805
18197095871
18197102707
18197109726
18197115463
18197120529
18197127121
18197132248
18197139084
18197145126
18197151291
18197156357
18197160507
18197167831
18197173080
18197178146
18197184127
18197190414
18197194687
18197201156
18197208175
18197214157
18197219528
18197225387
18197231796
18197237716
18197243515
18197248214
18197254257
18197261154
18197266891
18197273666
18197278182
18197285201
18197291122
18197297286
18197302535
18197308883
18197316451
18197323653
18197329147
18197334762
18197341232
18197347518
18197353866
18197362106
18197367110
18197373763
18197378219
18197385116
18197392257
18197397872
18197405013
18197412093
18197420943
18197427596
18197433944
18197441817
18197449264
18197456466
18197463302
18197469771
18197476973
18197483199
18197490157
18197497969
18197503402
18197510909
18197516829
18197523665
18197530806
18197542830
18197547530
18197558272
18197566207
18197573592
18197580611
18197588912
18197595076
18197603438
18197610579
18197616438
18197623274
18197628890
18197633589
18197642073
18197649580
18197655013
18197661299
18197668562
18197673201
18197679549
18197686812
18197694197
18197699934
18197706160
18197713972
18197719099
18197726546
18197731917
18197739485
18197745894
18197752119
18197759932
18197766584
18197771345
18197776533
18197784163
18197790449
18197796858
18197804304
18197810286
18197817549
18197823408
18197827558
18197836164
18197842329
18197849592
18197857282
18197862226
18197870466
18197876203
18197883161
18197891401
18197897505
18197903791
18197910322
18197915693
18197923139
18197930586
18197937849
18197944990
18197950361
18197958784
18197965864
18197972456
18197980390
18197988447
18197994367
18198000959
18198006574
18198015485
18198022077
18198029035
18198036542
18198045820
18198052533
18198059308
18198066938
18198074567
18198082074
18198090680
18198098249
18198104718
18198110517
18198119611
18198127484
18198138166
18198145368
18198154035
18198163312
18198169415
18198178632
18198187482
18198195600
18198203107
18198211224
18198217450
18198225690
18198232587
18198240399
18198246869
18198256512
18198262799
18198270306
18198275983
18198285138
18198293317
18198300885
18198309979
18198316083
18198325299
18198332135
18198341412
18198348675
18198356244
18198363751
18198369427
18198379254
18198386334
18198395184
18198404278
18198409893
18198419598
18198426983
18198435040
18198441143
18198449688
18198455425
18198463543
18198471295
18198479046
18198483624
18198490460
18198496868
18198503399
18198507977
18198514385
18198521099
18198525189
18198533733
18198539166
18198545818
18198552410
18198558147
18198564861
18198569927
18198577251
18198582745
18198589214
18198594768
18198600017
18198607220
18198615093
18198621074
18198626812
18198633343
18198638714
18198645794
18198650310
18198658550
18198663982
18198669780
18198676860
18198680767
18198686870
18198693035
18198700420
18198706890
18198712017
18198717815
18198723491
18198730999
18198735820
18198743144
18198749736
18198754985
18198762859
18198767497
18198774272
18198779949
18198786052
18198791972
18198795818
18198802776
18198808696
18198814433
18198821391
18198826152
18198833842
18198838481
18198844646
18198850017
18198855693
18198863872
18198869548
18198876445
18198884257
18198890483
18198896770
18198903117
18198911174
18198916423
18198923381
18198928508
18198935954
18198943705
18198950602
18198959575
18198964763
18198971904
18198976542
18198983073
18198991862
18198997294
18199004679
18199011637
18199018656
18199024333
18199030680
18199037516
18199044474
18199052409
18199060588
18199065409
18199074259
18199082194
18199087992
18199095622
18199101298
18199108561
18199116679
18199119975
18199131754
18199140665
18199147684
18199153300
18199160746
18199167887
18199175028
18199183329
18199190409
18199195475
18199203409
18199209147
18199214945
18199222452
18199228556
18199237284
18199243509
18199250956
18199257425
18199263163
18199272684
18199388834
18199397379
18199404154
18199413065
18199420328
18199427774
18199436014
18199443277
18199450113
18199458536
18199466348
18199475259
18199481302
18199489419
18199497171
18199504129
18199513345
18199520975
18199529153
18199536844
18199544656
18199551980
18199559060
18199568399
18199576150
18199583963
18199593545
18199600625
18199607400
18199618325
18199627175
18199634744
18199643655
18199650857
18199661782
18199669656
18199679421
18199688332
18199696145
18199704568
18199714517
18199721169
18199731973
18199741372
18199750039
18199757424
18199765664
18199775124
18199783181
18199790993
18199798440
18199806801
18199815285
18199825112
18199833779
18199840859
18199851174
18199860146
18199868081
18199876809
18199887001
18199894814
18199902443
18199912392
18199918190
18199926674
18199932534
18199940773
18199947304
18199953957
18199959938
18199966164
18199973000
18199980080
18199986305
18199992104
18199998024
18200003029
18200010964
18200017921
18200023293
18200030739
18200036476
18200042458
18200048683
18200055336
18200061989
18200068825
18200074623
18200079445
18200087562
18200092934
18200098976
18200106361
18200113930
18200119118
18200124611
18200131996
18200137489
18200144142
18200152504
18200157875
18200164955
18200169716
18200176368
18200182106
18200187416
18200195167
18200200965
18200205482
18200213600
18200218299
18200224342
18200230079
18200236976
18200243324
18200248084
18200253700
18200259315
18200265602
18200270667
18200276771
18200283180
18200288246
18200294715
18200300819
18200307655
18200313148
18200319312
18200324500
18200330421
18200335853
18200343116
18200348609
18200353553
18200361854
18200368201
18200374183
18200381080
18200388709
18200395667
18200404090
18200413917
18200422156
18200429603
18200436622
18200443946
18200451148
18200458045
18200463965
18200470984
18200476477
18200484961
18200491248
18200498267
18200506201
18200514685
18200521094
18200528540
18200535620
18200543067
18200551123
18200559302
18200565344
18200572669
18200578894
18200584998
18200591956
18200598242
18200602942
18200610205
18200615027
18200622656
18200630225
18200635413
18200642676
18200648474
18200653479
18200662451
18200669287
18200677405
18200684119
18200688635
18200697363
18200704443
18200712439
18200718237
18200725378
18200731726
18200738501
18200746313
18200753515
18200760595
18200766455
18200773230
18200780676
18200788000
18200794592
18200802038
18200808996
18200815588
18200824194
18200831152
18200836889
18200844824
18200852758
18200858618
18200866613
18200873876
18200882604
18200889257
18200897070
18200904211
18200911169
18200918493
18200924535
18200929845
18200939062
18200945287
18200953405
18200962682
18200971105
18200977453
18200991186
18200999242
18201010290
18201015539
18201025426
18201032750
18201041845
18201048986
18201054784
18201060582
18201069494
18201075719
18201083837
18201089513
18201097692
18201102574
18201111302
18201118566
18201125646
18201131566
18201141149
18201147923
18201155614
18201161046
18201168187
18201175023
18201182897
18201191869
18201197850
18201206761
18201212865
18201218602
18201227635
18201233922
18201242100
18201248265
18201257420
18201264500
18201272984
18201280492
18201287327
18201296361
18201303013
18201311253
18201318150
18201325779
18201333775
18201342869
18201348973
18201357090
18201365147
18201371434
18201378148
18201385777
18201395909
18201401158
18201408238
18201416111
18201423313
18201431370
18201439610
18201446690
18201453953
18201461949
18201469151
18201476780
18201485325
18201492283
18201500034
18201507053
18201515842
18201522678
18201531040
18201538303
18201545628
18201552341
18201559605
18201565159
18201573398
18201576694
18201584263
18201590427
18201596592
18201602512
18201610630
18201616123
18201622776
18201630710
18201637119
18201642917
18201648472
18201653843
18201659458
18201665256
18201670566
18201681858
18201688510
18201694980
18201703464
18201710605
18201717929
18201724887
18201731967
18201738681
18201744602
18201751560
18201757968
18201764560
18201770847
18201778049
18201784274
18201790439
18201794894
18201803073
18201808444
18201815829
18201820224
18201827365
18201833774
18201839389
18201847446
18201852512
18201859470
18201864963
18201871066
18201874911
18201882724
18201888278
18201893527
18201899020
18201905551
18201910190
18201916171
18201921054
18201929599
18201936557
18201941073
18201946811
18201953647
18201959445
18201965548
18201971164
18201978183
18201984408
18201991427
18201998873
18202005954
18202011691
18202018344
18202025668
18202031893
18202039279
18202046359
18202052157
18202058138
18202064974
18202071444
18202078097
18202084872
18202092257
18202099581
18202106417
18202113802
18202119296
18202126681
18202134859
18202139864
18202147555
18202155428
18202161898
18202169405
18202176852
18202183748
18202189974
18202198336
18202206331
18202213045
18202220797
18202229525
18202236544
18202244112
18202251741
18202259798
18202268099
18202274813
18202282442
18202289278
18202295076
18202301241
18202308260
18202314852
18202322054
18202329134
18202336031
18202342378
18202350191
18202355318
18202362337
18202370149
18202376253
18202384004
18202390596
18202397676
18202403536
18202410799
18202417085
18202423921
18202429903
18202437837
18202442720
18202449556
18202457185
18202464204
18202471528
18202476228
18202484773
18202490755
18202498628
18202506441
18202512239
18202518464
18202526033
18202531282
18202536470
18202545259
18202552217
18202559236
18202564302
18202572969
18202578706
18202585481
18202593537
18202599702
18202606721
18202613374
18202619905
18202629060
18202635835
18202644380
18202651582
18202660188
18202668488
18202675569
18202685273
18202697175
18202703156
18202711579
18202720124
18202727082
18202735383
18202743012
18202751069
18202759125
18202767792
18202776215
18202784028
18202790742
18202801850
18202811738
18202819550
18202829682
18202837616
18202847382
18202854035
18202867646
18202878327
18202885590
18202893097
18202900177
18202906647
18202914643
18202924286
18202932404
18202940399
18202946747
18202954071
18202960907
18202968170
18202974335
18202981842
18202989227
18202997284
18203004608
18203011993
18203017975
18203025665
18203031891
18203041046
18203047699
18203054474
18203062286
18203070465
18203077545
18203083710
18203092682
18203099212
18203107513
18203113678
18203121917
18203130035
18203136261
18203145904
18203154632
18203160736
18203167816
18203174285
18203180572
18203186615
18203192413
18203198211
18203203521
18203209869
18203217376
18203223052
18203229156
18203236053
18203243316
18203248870
18203255401
18203261199
18203265838
18203271636
18203278716
18203284637
18203291045
18203297698
18203304473
18203310943
18203317413
18203322845
18203329497
18203335540
18203343169
18203348418
18203354705
18203359649
18203365874
18203372954
18203378631
18203382720
18203391692
18203396392
18203403411
18203407989
18203414458
18203418792
18203424102
18203430022
18203436309
18203441192
18203446929
18203453154
18203460357
18203467192
18203474517
18203482207
18203488555
18203494963
18203500090
18203507415
18203513701
18203520842
18203525847
18203531767
18203535674
18203541411
18203546599
18203554778
18203559416
18203565581
18203571745
18203578398
18203583037
18203600920
18203607634
18203614226
18203619658
18203626372
18203630766
18203638090
18203644743
18203651091
18203658232
18203662932
18203669768
18203677214
18203683439
18203691740
18203697172
18203704435
18203710539
18203718229
18203725187
18203732084
18203738554
18203745268
18203751921
18203758329
18203765837
18203772428
18203779570
18203784941
18203792814
18203801664
18203807646
18203815885
18203822050
18203830534
18203838041
18203843290
18203850492
18203858122
18203864835
18203872709
18203878080
18203884550
18203893461
18203900114
18203907072
18203914152
18203920805
18203928739
18203933439
18203940641
18203949552
18203954923
18203961881
18203969388
18203975431
18203982694
18203989652
18203995633
18204002469
18204010038
18204016630
18204024625
18204032071
18204039945
18204048795
18204056485
18204063199
18204070096
18204077787
18204085416
18204092984
18204099271
18204105558
18204113553
18204119290
18204126248
18204133634
18204140042
18204147611
18204153958
18204159573
18204167142
18204172208
18204179776
18204186063
18204192715
18204200162
18204204922
18204212430
18204220547
18204225980
18204233487
18204238553
18204246060
18204252286
18204258816
18204266995
18204273099
18204280362
18204287137
18204295621
18204302334
18204311001
18204319363
18204325772
18204332608
18204340970
18204348111
18204357327
18204364651
18204371670
18204378384
18204387051
18204393643
18204401028
18204408413
18204416165
18204425320
18204432522
18204441921
18204449001
18204455044
18204464871
18204471829
18204479031
18204486172
18204492947
18204503262
18204511868
18204519619
18204528103
18204535854
18204543728
18204552090
18204558315
18204565334
18204576504
18204584682
18204591701
18204599819
18204607509
18204615017
18204623928
18204631008
18204639919
18204654140
18204664028
18204671474
18204680385
18204688381
18204697597
18204704677
18204713710
18204721828
18204729213
18204736781
18204744228
18204751064
18204758266
18204763759
18204771388
18204777431
18204782802
18204789882
18204795802
18204802028
18204806300
18204813991
18204820888
18204827235
18204831020
18204836391
18204844325
18204850551
18204857814
18204864772
18204869594
18204875941
18204882533
18204890101
18204894618
18204901149
18204907313
18204914088
18204919886
18204924952
18204931849
18204936488
18204943751
18204948817
18204953456
18204961573
18204966578
18204973414
18204980372
18204986842
18204993739
18204999537
18205004359
18205009486
18205015834
18205023585
18205029017
18205035060
18205040492
18205046534
18205052699
18205058497
18205065638
18205070277
18205076685
18205082423
18205088343
18205094813
18205100855
18205106409
18205112330
18205117518
18205124110
18205130213
18205135035
18205141260
18205146693
18205152430
18205158839
18205166529
18205175318
18205183680
18205190638
18205195826
18205203333
18205210718
18205217615
18205225672
18205232874
18205239283
18205246363
18205252527
18205258081
18205265345
18205271936
18205279871
18205286524
18205292139
18205299524
18205305261
18205312830
18205320093
18205326807
18205334253
18205339563
18205346338
18205353723
18205359644
18205367456
18205373621
18205379114
18205386316
18205391870
18205400354
18205406702
18205412195
18205419397
18205425073
18205431848
18205439600
18205444543
18205452722
18205460168
18205465845
18205472375
18205478357
18205485925
18205492456
18205500146
18205506860
18205512842
18205521570
18205527673
18205535485
18205542566
18205549890
18205555688
18205561853
