18118219974
18118225589
18118231693
18118236881
18118242679
18118247684
18118253421
18118258365
18118264713
18118270023
18118275333
18118282230
18118287601
18118293399
18118299564
18118306095
18118312259
18118318790
18118324222
18118329654
18118338199
18118343997
18118351138
18118359073
18118365176
18118371219
18118378360
18118385440
18118393375
18118400027
18118405460
18118412356
18118420413
18118429019
18118436587
18118443240
18118449710
18118454349
18118462710
18118470279
18118477420
18118484805
18118489871
18118497012
18118501895
18118512454
18118519900
18118526126
18118534915
18118541446
18118549014
18118556582
18118562564
18118569094
18118576419
18118582339
18118590518
18118597659
18118603945
18118609377
18118617251
18118623293
18118631960
18118638979
18118646609
18118653689
18118661318
18118667788
18118682375
18118693423
18118700869
18118709658
18118716128
18118722597
18118731386
18118738894
18118747866
18118755861
18118763918
18118771181
18118777285
18118786013
18118791689
18118800783
18118807009
18118815126
18118823244
18118831606
18118840456
18118848024
18118855410
18118863893
18118872316
18118881227
18118886415
18118894289
18118901735
18118909181
18118916506
18118925234
18118932619
18118939577
18118947267
18118954591
18118962465
18118969240
18118978700
18118985658
18118993959
18119002504
18119010072
18119018983
18119024660
18119032960
18119039308
18119048341
18119056581
18119064393
18119072572
18119080446
18119086183
18119094056
18119102968
18119109987
18119116517
18119124818
18119132997
18119139222
18119147340
18119155885
18119163148
18119174501
18119184632
18119189942
18119200501
18119208436
18119216432
18119224244
18119229554
18119237672
18119243165
18119251588
18119259522
18119266846
18119274659
18119284425
18119291688
18119300233
18119306214
18119315369
18119321656
18119329651
18119337037
18119342591
18119350098
18119357606
18119364502
18119369996
18119379700
18119386780
18119394776
18119402283
18119412537
18119419617
18119428467
18119434754
18119444702
18119454224
18119461975
18119469849
18119475403
18119484070
18119490845
18119498352
18119506226
18119515564
18119522156
18119530640
18119540527
18119546387
18119555664
18119564636
18119573059
18119580811
18119587402
18119594971
18119603210
18119609802
18119618103
18119627197
18119632934
18119643555
18119650635
18119660034
18119667480
18119675964
18119682617
18119690246
18119697815
18119704773
18119712097
18119717407
18119726623
18119732116
18119741333
18119748107
18119754516
18119761596
18119768066
18119776123
18119781921
18119790161
18119798461
18119806884
18119814025
18119821166
18119827941
18119834106
18119842468
18119851562
18119857726
18119867065
18119874816
18119882140
18119887756
18119897582
18119905028
18119914428
18119921264
18119928893
18119935912
18119945495
18119952819
18119960082
18119968139
18119978087
18119985595
18119993834
18120003783
18120012389
18120018248
18120027404
18120033934
18120042601
18120050475
18120056456
18120065123
18120071105
18120079283
18120087645
18120095336
18120103575
18120111754
18120118346
18120126952
18120136412
18120145689
18120155394
18120163695
18120172606
18120180540
18120187926
18120195494
18120202574
18120209898
18120218077
18120225218
18120232542
18120238707
18120245909
18120252989
18120260252
18120267210
18120274656
18120281675
18120289183
18120296873
18120304075
18120310789
18120318846
18120326536
18120333067
18120340513
18120346495
18120353697
18120360594
18120368040
18120376768
18120384580
18120392271
18120400572
18120407652
18120415464
18120423399
18120430418
18120436094
18120445799
18120449705
18120458616
18120465391
18120473631
18120481138
18120487180
18120494993
18120503049
18120510313
18120514829
18120523862
18120531248
18120542478
18120549863
18120559080
18120566037
18120573606
18120582578
18120589109
18120599851
18120608457
18120615720
18120624692
18120630185
18120638608
18120647092
18120654721
18120664914
18120673581
18120682004
18120690549
18120697812
18120703732
18120711118
18120718564
18120724362
18120731259
18120738278
18120745908
18120751889
18120758542
18120766171
18120771786
18120778561
18120784848
18120790341
18120796994
18120803158
18120811825
18120817563
18120825925
18120835812
18120842526
18120849484
18120857358
18120866452
18120873410
18120879696
18120885312
18120893612
18120899655
18120905270
18120911557
18120919186
18120924984
18120932003
18120938412
18120944638
18120950619
18120957638
18120964352
18120969662
18120976376
18120983578
18120989437
18120994686
18121002010
18121005978
18121014523
18121021969
18121027401
18121033627
18121039059
18121046139
18121052242
18121058224
18121066341
18121073238
18121081234
18121086849
18121095028
18121102108
18121108700
18121115841
18121124569
18121131283
18121137813
18121144832
18121152767
18121158687
18121164913
18121173519
18121180172
18121187069
18121193355
18121201839
18121208370
18121214046
18121221004
18121230465
18121237361
18121240901
18121251949
18121257320
18121264217
18121269649
18121279415
18121285762
18121292964
18121302181
18121309200
18121316463
18121325252
18121332942
18121342891
18121351558
18121359492
18121367122
18121373408
18121381587
18121388972
18121397334
18121404841
18121412715
18121422298
18121428767
18121435969
18121443049
18121450557
18121459163
18121465083
18121471675
18121482173
18121488276
18121496821
18121504878
18121513118
18121519526
18121530146
18121537898
18121550288
18121558345
18121566523
18121574641
18121582331
18121590388
18121599177
18121605830
18121614192
18121623225
18121628962
18121636958
18121642573
18121650874
18121656916
18121666132
18121672175
18121682001
18121687495
18121696162
18121701594
18121709467
18121715510
18121724421
18121732416
18121739741
18121748713
18121756342
18121763239
18121770685
18121779413
18121785883
18121794672
18121801386
18121808893
18121815546
18121823297
18121831842
18121840082
18121846002
18121852472
18121860712
18121867182
18121875421
18121881464
18121888117
18121896173
18121905512
18121911981
18121919183
18121927179
18121934076
18121941949
18121949152
18121953790
18121964716
18121971002
18121978326
18121986810
18121993707
18121997186
18122005731
18122014093
18122018915
18122026971
18122033441
18122040460
18122047479
18122052240
18122059564
18122065973
18122072992
18122077569
18122084283
18122090997
18122095453
18122102960
18122107904
18122115228
18122121820
18122127252
18122132135
18122139886
18122147821
18122153558
18122159539
18122166558
18122171746
18122177850
18122184075
18122190545
18122196221
18122203729
18122210992
18122217767
18122226373
18122234368
18122244866
18122250848
18122258233
18122263909
18122270074
18122277215
18122282525
18122289544
18122293877
18122300103
18122304803
18122312127
18122317681
18122322991
18122328484
18122335381
18122341363
18122347283
18122352715
18122357842
18122362053
18122369561
18122375420
18122381707
18122386284
18122391900
18122399163
18122403740
18122409844
18122416619
18122423394
18122431328
18122436272
18122443596
18122449272
18122456475
18122463921
18122469475
18122477287
18122484001
18122489617
18122496636
18122503044
18122509819
18122516228
18122522636
18122528252
18122533989
18122542046
18122548149
18122555351
18122561943
18122568840
18122575249
18122582817
18122588432
18122595573
18122602714
18122609062
18122616203
18122624016
18122629509
18122637260
18122643791
18122650810
18122657829
18122665641
18122671684
18122678093
18122686027
18122691398
18122699089
18122705803
18122712150
18122718742
18122723869
18122732231
18122739982
18122747062
18122753776
18122758842
18122766471
18122773979
18122781120
18122790641
18122800590
18122807731
18122815604
18122823173
18122830680
18122836662
18122843314
18122850517
18122857902
18122862785
18122872916
18122879874
18122886405
18122892509
18122900382
18122908378
18122915153
18122921439
18122927176
18122935233
18122940848
18122948234
18122956290
18122962394
18122968802
18122975699
18122983207
18122989676
18122997123
18123004264
18123010733
18123018363
18123024466
18123031729
18123038260
18123046378
18123052481
18123059439
18123065543
18123072562
18123078482
18123085318
18123092764
18123100821
18123106986
18123114737
18123121756
18123129996
18123136465
18123141409
18123149649
18123156302
18123163931
18123170767
18123176810
18123184256
18123191519
18123198050
18123203177
18123211111
18123218374
18123225882
18123231192
18123238882
18123245596
18123253103
18123260305
18123266958
18123274466
18123282766
18123289724
18123298269
18123305105
18123313528
18123320120
18123327810
18123336111
18123344534
18123353201
18123360647
18123367605
18123375295
18123381887
18123391348
18123398672
18123406606
18123415579
18123426138
18123434133
18123441274
18123449880
18123459463
18123469228
18123477712
18123483144
18123491201
18123499868
18123507314
18123514699
18123522573
18123529836
18123538869
18123546193
18123552297
18123560659
18123569204
18123577199
18123583913
18123591481
18123599172
18123605336
18123611623
18123619496
18123627492
18123632070
18123639699
18123645497
18123651662
18123658437
18123664784
18123668447
18123677541
18123685170
18123690602
18123695424
18123702565
18123708608
18123714223
18123720387
18123725819
18123731129
18123738210
18123744130
18123750844
18123756825
18123761525
18123767934
18123772511
18123778859
18123784779
18123791249
18123795949
18123801808
18123808949
18123814808
18123819447
18123825978
18123832326
18123836842
18123843739
18123849598
18123855824
18123861561
18123866078
18123871937
18123877675
18123884755
18123890187
18123897023
18123901356
18123907704
18123912587
18123919300
18123925526
18123929920
18123937550
18123942250
18123947438
18123953419
18123958851
18123963795
18123970143
18123975575
18123982044
18123985951
18123992115
18123996998
18124003224
18124008839
18124013233
18124020374
18124027638
18124035145
18124038624
18124047718
18124054310
18124061390
18124067493
18124073719
18124080738
18124085743
18124093738
18124100208
18124106922
18124111683
18124118336
18124125110
18124131458
18124138416
18124144520
18124151050
18124157459
18124162769
18124170093
18124175220
18124184070
18124191883
18124197681
18124204090
18124211841
18124220203
18124226245
18124233814
18124239978
18124247058
18124252674
18124260120
18124266895
18124273731
18124280383
18124286487
18124294422
18124301318
18124307910
18124314868
18124319873
18124328723
18124333545
18124341052
18124347217
18124354785
18124361438
18124369128
18124375354
18124382495
18124389819
18124394336
18124403491
18124410083
18124417163
18124423633
18124429004
18124438830
18124445239
18124453418
18124461596
18124468310
18124475573
18124481189
18124488696
18124495959
18124502795
18124508654
18124515612
18124520190
18124527819
18124533740
18124541674
18124549060
18124555346
18124562792
18124569018
18124577197
18124582629
18124591052
18124595873
18124603259
18124610522
18124616137
18124624865
18124631701
18124644518
18124651476
18124661120
18124668993
18124674547
18124683886
18124689623
18124695910
18124703112
18124709398
18124715563
18124722826
18124729662
18124736498
18124743151
18124750292
18124756151
18124763231
18124770678
18124775377
18124783129
18124788744
18124795641
18124800890
18124810411
18124816942
18124823900
18124829759
18124834459
18124842211
18124847582
18124853502
18124858629
18124867845
18124873400
18124880663
18124885607
18124892687
18124899156
18124905077
18124912157
18124920091
18124925279
18124932603
18124938707
18124946642
18124953905
18124961595
18124968858
18124974779
18124983018
18124993761
18125002305
18125010179
18125015367
18125023546
18125032213
18125039842
18125047044
18125053026
18125059739
18125067247
18125074632
18125080552
18125090013
18125095994
18125103074
18125110459
18125115403
18125124070
18125132066
18125140672
18125148912
18125155015
18125164964
18125174485
18125186265
18125197373
18125206773
18125217942
18125227403
18125236924
18125250108
18125260606
18125270188
18125281235
18125290452
18125298386
18125307664
18125317185
18125327622
18125336289
18125348191
18125358811
18125371201
18125384385
18125395249
18125406174
18125414536
18125424423
18125430771
18125441452
18125448899
18125457749
18125465439
18125474106
18125482407
18125491318
18125500229
18125508530
18125517685
18125524887
18125529526
18125543014
18125551620
18125559738
18125567795
18125575424
18125585861
18125592758
18125602768
18125609543
18125618942
18125628036
18125636642
18125645858
18125654525
18125662704
18125670089
18125680404
18125690902
18125698410
18125708236
18125715988
18125723678
18125733139
18125742233
18125751083
18125761154
18125768722
18125778976
18125787399
18125796859
18125803878
18125814132
18125823653
18125832809
18125842757
18125849471
18125860335
18125871200
18125882857
18125894088
18125903487
18125912642
18125919967
18125930831
18125942061
18125951033
18125959334
18125970321
18125981368
18125990706
18125999190
18126009017
18126020430
18126028243
18126039900
18126049544
18126058272
18126066451
18126078352
18126087203
18126097579
18126108260
18126116988
18126126387
18126138106
18126148421
18126159041
18126166609
18126176131
18126184309
18126196333
18126205244
18126214644
18126224775
18126235090
18126244429
18126253950
18126263289
18126272505
18126283064
18126291365
18126302229
18126312117
18126321272
18126330915
18126341230
18126349592
18126360883
18126371259
18126379926
18126389265
18126402082
18126410261
18126419538
18126430952
18126438642
18126451398
18126458784
18126470441
18126480756
18126488996
18126499555
18126510236
18126520124
18126529889
18126538617
18126548505
18126558210
18126565351
18126576215
18126587812
18126599469
18126608441
18126619123
18126628705
18126640180
18126648419
18126659223
18126668500
18126678082
18126687665
18126697858
18126706891
18126716595
18126725690
18126737164
18126746808
18126754925
18126761578
18126768902
18126773724
18126781171
18126788128
18126795392
18126803387
18126808087
18126815289
18126822247
18126829937
18126837323
18126844464
18126850445
18126857403
18126863385
18126869610
18126877423
18126883648
18126890606
18126896527
18126903424
18126911419
18126918255
18126926617
18126932781
18126941021
18126947247
18126955731
18126962933
18126971356
18126979473
18126990154
18126998699
18127004131
18127013897
18127022076
18127029400
18127035809
18127044170
18127047405
18127057110
18127063274
18127070415
18127076580
18127083538
18127089397
18127096477
18127104046
18127108806
18127115886
18127122478
18127129986
18127135296
18127142986
18127148174
18127155498
18127161296
18127168193
18127173809
18127180950
18127186504
18127193462
18127201580
18127206523
18127214824
18127219524
18127226543
18127233501
18127239971
18127250591
18127257610
18127264507
18127271648
18127277934
18127284648
18127290569
18127297649
18127303752
18127308086
18127316142
18127322612
18127328715
18127333354
18127341228
18127347758
18127353435
18127360332
18127364848
18127371806
18127378947
18127383830
18127390666
18127397075
18127401469
18127408915
18127414714
18127418925
18127426677
18127432170
18127438884
18127444865
18127451091
18127456767
18127463176
18127468913
18127474528
18127481669
18127486064
18127493632
18127500468
18127505717
18127510844
18127517192
18127523051
18127529338
18127535258
18127541178
18127547587
18127553507
18127559733
18127567057
18127574259
18127579936
18127587565
18127599772
18127607890
18127613566
18127623026
18127629374
18127636515
18127641520
18127648295
18127655924
18127662638
18127668619
18127673258
18127681681
18127687174
18127694132
18127700236
18127707682
18127713236
18127720438
18127726420
18127733683
18127740824
18127747477
18127754190
18127759378
18127770121
18127777689
18127787332
18127796366
18127806925
18127815470
18127823892
18127834207
18127842325
18127851297
18127859049
18127868143
18127877420
18127884317
18127891580
18127897745
18127904520
18127911783
18127917703
18127924539
18127932901
18127939798
18127946268
18127952432
18127959024
18127966409
18127973123
18127980447
18127986795
18127993814
18128001565
18128008279
18128015115
18128019876
18128028055
18128033914
18128043496
18128046792
18128058023
18128064370
18128072061
18128076821
18128084146
18128092507
18128097695
18128105935
18128110879
18128118081
18128125894
18128132180
18128138406
18128146890
18128153115
18128160562
18128166665
18128174172
18128180398
18128187539
18128195657
18128202737
18128208962
18128213906
18128223550
18128229653
18128237954
18128245766
18128254372
18128260293
18128268532
18128274880
18128282632
18128290444
18128297524
18128304909
18128309853
18128319497
18128326333
18128333901
18128340371
18128347695
18128352944
18128360207
18128368569
18128375283
18128381447
18128388039
18128394753
18128403176
18128410927
18128414223
18128423805
18128430458
18128437966
18128444252
18128451821
18128457375
18128464516
18128471169
18128477882
18128484963
18128492348
18128500649
18128506081
18128513771
18128520912
18128529396
18128535072
18128543861
18128549415
18128558205
18128564613
18128573036
18128579445
18128587318
18128593727
18128601722
18128607826
18128616066
18128624183
18128632240
18128638588
18128644203
18128652687
18128660194
18128666664
18128674354
18128683326
18128689491
18128697853
18128705482
18128714027
18128721778
18128730079
18128737586
18128744483
18128753517
18128760963
18128768897
18128775184
18128782935
18128790748
18128795081
18128802772
18128807349
18128814979
18128819740
18128829078
18128834998
18128842689
18128848670
18128854407
18128861976
18128867408
18128874061
18128881141
18128888099
18128892798
18128901099
18128906409
18128915076
18128923438
18128930579
18128936316
18128944190
18128951331
18128959143
18128963721
18128970740
18128978675
18128985083
18128992469
18128998511
18129004248
18129009925
18129015296
18129020545
18129027197
18129034033
18129038733
18129043860
18129050025
18129055762
18129061987
18129066687
18129072913
18129079321
18129086157
18129091589
18129096655
18129103491
18129108191
18129115271
18129121558
18129126501
18129131934
18129138464
18129144079
18129150244
18129155066
18129161352
18129168493
18129172949
18129180029
18129184424
18129191931
18129197241
18129202734
18129209631
18129216406
18129222082
18129227209
18129233313
18129239599
18129245947
18129251867
18129258337
18129264196
18129269995
18129276831
18129282934
18129287695
18129295813
18129302038
18129309057
18129313818
18129321203
18129326940
18129333837
18129339575
18129346533
18129352148
18129359472
18129366796
18129373388
18129380041
18129386388
18129392431
18129400732
18129407140
18129413976
18129420568
18129427038
18129433385
18129439855
18129446325
18129451147
18129461461
18129466466
18129474157
18129480810
18129486791
18129494176
18129501806
18129509740
18129517675
18129524999
18129532567
18129541845
18129547521
18129555394
18129562780
18129569127
18129574132
18129581334
18129588414
18129594579
18129600988
18129607518
18129614415
18129622228
18129627233
18129634984
18129640416
18129647618
18129653966
18129659764
18129666966
18129674168
18129679173
18129686437
18129692357
18129699559
18129706151
18129713170
18129720433
18129726048
18129733678
18129740819
18129747044
18129754368
18129760899
18129769322
18129775853
18129781773
18129789280
18129794835
18129800816
18129808568
18129814122
18129820591
18129828038
18129833409
18129840489
18129848057
18129853978
18129858311
18129865635
18129873936
18129878880
18129885594
18129892247
18129897984
18129903599
18129909275
18129916172
18129922764
18129928990
18129936375
18129941624
18129949009
18129954441
18129961277
18129968052
18129975315
18129981480
18129987461
18129993504
18129999424
18130005527
18130012547
18130018711
18130023716
18130031712
18130036472
18130043552
18130050571
18130056431
18130063816
18130071262
18130078769
18130086643
18130092197
18130101352
18130107395
18130117161
18130128208
18130133579
18130141941
18130150180
18130158725
18130172214
18130179904
18130187168
18130195102
18130202182
18130210117
18130218112
18130225498
18130231052
18130238315
18130245578
18130252170
18130257846
18130265659
18130272128
18130278415
18130285861
18130292270
18130298557
18130305759
18130311008
18130318271
18130325107
18130333713
18130342074
18130348117
18130355868
18130361728
18130369906
18130376864
18130384738
18130391147
18130401217
18130407809
18130414523
18130420810
18130426303
18130432406
18130439486
18130446688
18130451571
18130458163
18130464694
18130470126
18130475924
18130480929
18130488070
18130495394
18130501681
18130507601
18130512789
18130518038
18130524813
18130531710
18130537386
18130543063
18130549410
18130554354
18130560397
18130567965
18130574252
18130581454
18130586337
18130592623
18130598116
18130604830
18130611117
18130616122
18130624605
18130629610
18130636202
18130640841
18130646700
18130653841
18130658419
18130666109
18130671236
18130677401
18130682894
18130688631
18130693026
18130699373
18130705904
18130710604
18130717623
18130722200
18130728853
18130734346
18130743013
18130750338
18130758394
18130764742
18130772860
18130780428
18130787630
18130792757
18130799593
18130806734
18130813753
18130819307
18130824312
18130831819
18130838838
18130843355
18130849886
18130857454
18130863191
18130869051
18130876131
18130882478
18130888887
18130893770
18130903413
18130911226
18130917024
18130923555
18130931856
18130937532
18130943574
18130950715
18130956758
18130965181
18130970918
18130976289
18130982698
18130990144
18130994172
18131000276
18131007173
18131014558
18131021089
18131026521
18131032747
18131039155
18131044831
18131052400
18131059297
18131068330
18131076997
18131084626
18131093598
18131101960
18131109040
18131114533
18131120149
18131126863
18131134614
18131141023
18131148774
18131155000
18131162873
18131167817
18131175019
18131179902
18131186311
18131191010
18131197663
18131202485
18131210236
18131216889
18131223664
18131229279
18131237458
18131243561
18131250153
18131256013
18131262360
18131267914
18131275727
18131282502
18131288422
18131294953
18131300507
18131307099
18131312653
18131319306
18131324677
18131329743
18131339875
18131346894
18131352936
18131362213
18131370331
18131377045
18131383087
18131389435
18131395600
18131401947
18131410431
18131416901
18131424103
18131430329
18131437958
18131444367
18131451264
18131457733
18131464386
18131471283
18131475983
18131482941
18131487579
18131494537
18131499725
18131507233
18131514374
18131519928
18131527313
18131534393
18131540924
18131548004
18131554718
18131559967
18131568085
18131575714
18131582428
18131587005
18131593780
18131598663
18131605804
18131610809
18131620453
18131626617
18131633575
18131640411
18131648346
18131654998
18131661102
18131669647
18131676666
18131682342
18131687530
18131693023
18131699737
18131707122
18131712676
18131720611
18131728362
18131735565
18131743438
18131750274
18131757659
18131763335
18131769927
18131778533
18131786895
18131794341
18131799895
18131807098
18131813628
18131821990
18131829009
18131835479
18131844573
18131850799
18131858794
18131866240
18131873015
18131879607
18131887786
18131895965
18131902861
18131909636
18131917693
18131922759
18131931304
18131937102
18131944426
18131954375
18131961028
18131968474
18131975249
18131981414
18131988799
18131995635
18132004668
18132012480
18132022856
18132030486
18132038420
18132044219
18132051116
18132056731
18132064360
18132071196
18132078642
18132084563
18132090178
18132096159
18132102446
18132108305
18132115385
18132122710
18132128874
18132135954
18132141814
18132149199
18132156767
18132162260
18132171660
18132178373
18132184050
18132188444
18132196257
18132201140
18132208647
18132215971
18132223417
18132231840
18132236845
18132242399
18132248869
18132253874
18132260649
18132267363
18132271757
18132279264
18132284391
18132291960
18132298063
18132304533
18132311003
18132316191
18132322904
18132328092
18132334074
18132340360
18132346220
18132352140
18132358183
18132363126
18132368742
18132373869
18132379484
18132385221
18132392423
18132401640
18132408598
18132412748
18132418729
18132425382
18132431486
18132438016
18132443265
18132447965
18132455228
18132460660
18132466764
18132472074
18132479093
18132483915
18132491300
18132497526
18132503263
18132509794
18132514982
18132521146
18132526151
18132535123
18132540006
18132546842
18132551664
18132558011
18132563138
18132569913
18132576810
18132583097
18132589566
18132594876
18132601590
18132610501
18132618436
18132625760
18132632901
18132639249
18132647061
18132653653
18132659207
18132664151
18132671719
18132677274
18132684598
18132690335
18132697171
18132703397
18132708096
18132714871
18132719998
18132727017
18132732144
18132739590
18132744534
18132750821
18132755765
18132762967
18132770169
18132776272
18132781338
18132787991
18132793057
18132801236
18132807522
18132813748
18132821621
18132828030
18132834439
18132842800
18132848538
18132856289
18132862271
18132868679
18132875759
18132883633
18132889004
18132897244
18132903774
18132911465
18132916348
18132924343
18132930874
18132937405
18132943081
18132949917
18132956936
18132962307
18132968594
18132975491
18132982632
18132987637
18132994472
18132999477
18133006618
18133013760
18133019802
18133025722
18133031643
18133036831
18133044033
18133049709
18133056606
18133063747
18133072353
18133078579
18133084316
18133089504
18133096828
18133103908
18133108913
18133116115
18133121730
18133127529
18133135158
18133141689
18133148098
18133152675
18133160060
18133166164
18133173732
18133180629
18133185573
18133192897
18133197841
18133205165
18133210719
18133217189
18133222438
18133230922
18133237209
18133247707
18133255092
18133261379
18133268581
18133276210
18133281764
18133289577
18133296168
18133302760
18133307216
18133314357
18133319484
18133327357
18133335048
18133340846
18133348781
18133354518
18133362208
18133367763
18133375758
18133383754
18133390162
18133395778
18133403224
18133409022
18133415309
18133422328
18133428859
18133436122
18133443019
18133451625
18133459071
18133465541
18133472865
18133479335
18133487025
18133491480
18133501917
18133507838
18133516139
18133521815
18133529383
18133535731
18133545191
18133551600
18133558131
18133566920
18133573878
18133586695
18133595972
18133602442
18133610316
18133621119
18133629053
18133635218
18133642603
18133652613
18133660608
18133667139
18133675196
18133682703
18133690210
18133695398
18133702723
18133707117
18133714869
18133720728
18133726160
18133731958
18133739649
18133745569
18133750879
18133757715
18133762781
18133769007
18133775598
18133782678
18133788843
18133794763
18133800806
18133806787
18133813013
18133819238
18133826441
18133832727
18133838770
18133844629
18133851892
18133857568
18133864404
18133870020
18133877039
18133883752
18133890405
18133896265
18133902612
18133907983
18133918115
18133924219
18133931665
18133937768
18133943750
18133950036
18133955469
18133961511
18133967798
18133973169
18133978723
18133985498
18133988183
18133997339
18134002771
18134007409
18134014550
18134020227
18134025598
18134030847
18134036584
18134040551
18134049890
18134056054
18134062341
18134069909
18134075341
18134080895
18134086328
18134093530
18134099023
18134106042
18134111291
18134117639
18134122949
18134128930
18134134118
18134140466
18134147241
18134153161
18134159631
18134166039
18134171655
18134175866
18134183068
18134191430
18134198815
18134203332
18134209435
18134215722
18134220299
18134227807
18134232567
18134240136
18134247399
18134255883
18134261864
18134268822
18134274865
18134282250
18134290429
18134296715
18134302819
18134307335
18134314171
18134320458
18134326683
18134333580
18134341393
18134347069
18134352806
18134359215
18134366295
18134372399
18134377342
18134383995
18134391381
18134396752
18134403282
18134410484
18134416466
18134422081
18134428917
18134435021
18134441979
18134447960
18134454186
18134461205
18134466759
18134474388
18134480431
18134490501
18134499168
18134508629
18134516258
18134524681
18134530845
18134540794
18134547752
18134555015
18134563011
18134569725
18134576622
18134581627
18134590355
18134596275
18134604210
18134610008
18134617515
18134624351
18134631736
18134636619
18134643760
18134649314
18134656150
18134664329
18134668907
18134675559
18134683372
18134690330
18134695152
18134701866
18134707298
18134714195
18134721336
18134728172
18134736350
18134742698
18134748313
18134754539
18134760642
18134766929
18134774131
18134782188
18134788657
18134795066
18134801047
18134807090
18134814475
18134820823
18134829978
18134836265
18134842612
18134851401
18134857505
18134864829
18134870322
18134878135
18134886435
18134893393
18134899253
18134906150
18134913169
18134919883
18134927451
18134932822
18134941611
18134947837
18134954184
18134961569
18134968222
18134975547
18134985617
18134994223
18135002951
18135010336
18135018149
18135026022
18135031882
18135042380
18135049216
18135060263
18135066916
18135075400
18135081564
18135089499
18135097372
18135102988
18135112631
18135121542
18135128195
18135138388
18135144797
18135154135
18135161398
18135175741
18135185324
18135195089
18135205343
18135213644
18135223104
18135230246
18135238302
18135246176
18135252890
18135258627
18135265646
18135272970
18135280172
18135287679
18135295370
18135307089
18135314352
18135321432
18135327108
18135335836
18135341024
18135348104
18135355611
18135362997
18135368856
18135373800
18135380575
18135387167
18135391256
18135397970
18135406087
18135411886
18135420309
18135424581
18135431234
18135437093
18135443807
18135449483
18135456319
18135461751
18135467672
18135474691
18135479024
18135486959
18135492940
18135500264
18135506917
18135511922
18135519002
18135524739
18135530233
18135536458
18135543233
18135549642
18135555013
18135560994
18135567830
18135573690
18135580098
18135587972
18135592671
18135599935
18135605916
18135610433
18135615865
18135621724
18135628865
18135634480
18135641377
18135646443
18135652669
18135656941
18135663228
18135668904
18135675130
18135681599
18135687642
18135692525
18135697896
18135704304
18135710347
18135716511
18135722005
18135727254
18135733967
18135739461
18135746052
18135751729
18135759602
18135768574
18135776631
18135785054
18135792866
18135801472
18135808247
18135814045
18135821003
18135828266
18135834187
18135841511
18135846455
18135854512
18135861042
18135867878
18135874958
18135880512
18135888874
18135895039
18135899250
18135907002
18135912617
18135919941
18135926228
18135933186
18135940937
18135947163
18135952839
18135959248
18135965229
18135971943
18135979389
18135986225
18135993183
18135998920
18136005878
18136011005
18136017658
18136024799
18136029743
18136037800
18136042682
18136050739
18136055744
18136062885
18136068622
18136076069
18136084003
18136091144
18136097126
18136103473
18136109333
18136116352
18136122028
18136130512
18136135944
18136141681
18136149311
18136156696
18136162921
18136169208
18136174213
18136182880
18136188556
18136195819
18136202228
18136207721
18136214862
18136222003
18136229144
18136235553
18136242328
18136248676
18136254474
18136260638
18136267841
18136275775
18136282855
18136288837
18136295550
18136301471
18136307696
18136313739
18136322162
18136328387
18136334308
18136343219
18136347918
18136357013
18136366900
18136374347
18136383868
18136392657
18136399737
18136408099
18136413775
18136422442
18136429095
18136435992
18136442095
18136446917
18136456195
18136463214
18136470660
18136477618
18136484820
18136491229
18136497515
18136504412
18136509173
18136516314
18136524920
18136531634
18136539141
18136545550
18136553118
18136559100
18136566790
18136572649
18136582293
18136591509
18136600237
18136607561
18136615130
18136621905
18136628496
18136641192
18136649370
18136657183
18136663591
18136670855
18136679705
18136687517
18136694048
18136699907
18136707842
18136714678
18136722185
18136728350
18136736833
18136744219
18136752703
18136760759
18136766619
18136774980
18136782793
18136790117
18136798540
18136805559
18136813921
18136823137
18136829363
18136837541
18136845415
18136854570
18136862505
18136872148
18136881486
18136889909
18136897661
18136905778
18136913225
18136920915
18136928605
18136935563
18136941972
18136949846
18136954912
18136961809
18136968034
18136975114
18136979997
18136986955
18136993791
18137000688
18137006608
18137013688
18137019670
18137022905
18137032243
18137040483
18137048966
18137056779
18137062516
18137071366
18137078935
18137085160
18137090898
18137097794
18137103105
18137110063
18137117875
18137123917
18137130021
18137135636
18137142960
18137148759
18137155045
18137161637
18137167985
18137174454
18137180070
18137185807
18137191544
18137198441
18137203202
18137209977
18137215897
18137220353
18137228104
18137233719
18137240616
18137246720
18137253251
18137259781
18137264359
18137271561
18137276322
18137283463
18137289261
18137296463
18137303543
18137309159
18137314896
18137320755
18137327713
18137332718
18137339249
18137345658
18137351456
18137357010
18137363602
18137369156
18137376114
18137382584
18137389542
18137395523
18137402237
18137406937
18137417008
18137423416
18137430435
18137437820
18137443131
18137451431
18137457779
18137463821
18137471146
18137477432
18137484268
18137489883
18137496536
18137502518
18137509659
18137517715
18137525345
18137531631
18137539322
18137545547
18137551346
18137559707
18137566665
18137573990
18137581802
18137588455
18137595413
18137602920
18137609207
18137617996
18137627273
18137634170
18137642532
18137651443
18137659500
18137665908
18137672561
18137679946
18137686660
18137694900
18137701309
18137709365
18137715041
18137721816
18137729263
18137737319
18137742385
18137749465
18137756057
18137763747
18137769118
18137776931
18137782424
18137790176
18137795364
18137802993
18137809341
18137816665
18137822707
18137830398
18137837356
18137843825
18137850417
18137857741
18137864150
18137871413
18137877639
18137884169
18137891982
18137900161
18137906447
18137914077
18137919020
18137926711
18137935683
18137942336
18137948561
18137956374
18137963271
18137968825
18137976210
18137983779
18137990309
18137997817
18138003188
18138010085
18138018263
18138024794
18138030898
18138037795
18138045180
18138052809
18138060011
18138066847
18138075209
18138082289
18138091017
18138097914
18138103834
18138112746
18138119581
18138128370
18138136305
18138144117
18138151625
18138159193
18138166578
18138174696
18138181837
18138191175
18138200331
18138207411
18138217054
18138226637
18138236402
18138244093
18138253370
18138259046
18138268507
18138278150
18138288526
18138296827
18138308424
18138320326
18138329176
18138335645
18138344556
18138352918
18138360548
18138367322
18138374830
18138382947
18138391981
18138398878
18138406812
18138414564
18138420484
18138427503
18138436048
18138444166
18138450757
18138458692
18138464734
18138473401
18138479993
18138489209
18138497632
18138503797
18138513135
18138521436
18138530042
18138534986
18138544934
18138552869
18138562573
18138569287
18138578870
18138588086
18138594678
18138605908
18138611707
18138621289
18138627148
18138635754
18138640393
18138648206
18138654126
18138659985
18138666028
18138673169
18138680249
18138687329
18138693677
18138699902
18138706372
18138711072
18138719006
18138725110
18138732617
18138738781
18138744336
18138751111
18138756726
18138762524
18138769665
18138776379
18138783215
18138791333
18138796032
18138803234
18138808728
18138815686
18138821606
18138828320
18138833752
18138840588
18138845532
18138852307
18138857556
18138864453
18138871533
18138877880
18138883373
18138887463
18138895214
18138899670
18138905773
18138913342
18138919506
18138925304
18138929272
18138936413
18138940441
18138948986
18138957104
18138962658
18138973339
18138979565
18138986462
18138990551
18138997204
18139003795
18139009533
18139017040
18139022472
18139028820
18139033520
18139040050
18139047130
18139052013
18139058544
18139064037
18139073131
18139079784
18139086681
18139091991
18139098217
18139105297
18139111461
18139117198
18139123546
18139130870
18139136486
18139143138
18139149608
18139154796
18139163890
18139169505
18139177318
18139182445
18139189464
18139193981
18139201915
18139208629
18139214549
18139222667
18139229015
18139235057
18139240916
18139248058
18139254771
18139261912
18139267528
18139272899
18139280345
18139288035
18139294566
18139299693
18139306651
18139313609
18139321422
18139326060
18139332713
18139338145
18139345653
18139352549
18139360667
18139367503
18139373484
18139379283
18139385752
18139392833
18139397532
18139404429
18139411265
18139418040
18139424388
18139430918
18139438792
18139444651
18139451182
18139457713
18139465769
18139472300
18139479014
18139485728
18139491770
18139497935
18139504099
18139512522
18139518443
18139525401
18139532664
18139540965
18139548960
18139560007
18139569041
18139577830
18139583567
18139590586
18139596506
18139601450
18139610300
18139616892
18139624399
18139630991
18139638498
18139645151
18139650828
18139658152
18139663767
18139671518
18139677012
18139684885
18139689890
18139696726
18139703867
18139709360
18139718393
18139726023
18139733042
18139739817
18139745188
18139754343
18139761911
18139769052
18139774057
18139781198
18139787912
18139794992
18139802622
18139810983
18139817758
18139825876
18139832590
18139839914
18139846323
18139849924
18139859872
18139869089
18139876779
18139883310
18139890878
18139896127
18139904367
18139912057
18139917550
18139926584
18139933725
18139940439
18139945749
18139953378
18139960763
18139967416
18139976022
18139998361
18140004769
18140013986
18140022470
18140030526
18140037911
18140045968
18140052499
18140060616
18140067330
18140078561
18140084786
18140094125
18140101022
18140109567
18140115243
18140122201
18140131478
18140138680
18140146493
18140155343
18140164254
18140170418
18140178902
18140185067
18140194588
18140199898
18140208932
18140216988
18140225716
18140234993
18140243844
18140249581
18140259591
18140264290
18140273079
18140280037
18140287239
18140294258
18140298958
18140306343
18140311104
18140318123
18140324349
18140331002
18140335945
18140344246
18140349739
18140355843
18140363228
18140369576
18140375130
18140383248
18140390328
18140395821
18140401863
18140409126
18140414681
18140421639
18140427376
18140434334
18140439461
18140446175
18140453072
18140459236
18140465462
18140471626
18140477974
18140484199
18140489815
18140496101
18140502876
18140509468
18140515449
18140522285
18140528023
18140533882
18140540718
18140545967
18140552009
18140558174
18140563484
18140569343
18140575874
18140582466
18140587471
18140594062
18140600227
18140605842
18140612312
18140617683
18140625007
18140632575
18140638801
18140645881
18140651313
18140657966
18140666023
18140670966
18140676887
18140683418
18140689033
18140695625
18140702338
18140708381
18140714607
18140719184
18140726325
18140730842
18140738837
18140744453
18140750434
18140755134
18140763312
18140769843
18140776618
18140783759
18140789863
18140797736
18140803840
18140810676
18140818671
18140825995
18140833320
18140841315
18140848639
18140854743
18140862677
18140871283
18140878119
18140886664
18140892951
18140898566
18140905402
18140912787
18140920722
18140927313
18140933478
18140939826
18140947638
18140952704
18140961615
18140967047
18140974982
18140980719
18140988898
18140995123
18141002875
18141009955
18141015814
18141022833
18141028693
18141034674
18141042059
18141048102
18141055365
18141062689
18141069281
18141075445
18141082464
18141090033
18141095526
18141104010
18141112250
18141118597
18141123480
18141130926
18141135443
18141141852
18141148810
18141154425
18141160650
18141168585
18141174444
18141181463
18141187384
18141192877
18141199469
18141206427
18141212347
18141219549
18141226019
18141232427
18141238348
18141244695
18141250738
18141257452
18141263799
18141270330
18141276067
18141282842
18141290899
18141296636
18141302618
18141311773
18141317083
18141322820
18141329473
18141335210
18141341985
18141346502
18141356206
18141362432
18141370122
18141375799
18141382574
18141389532
18141394414
18141403753
18141410650
18141417302
18141424383
18141432256
18141438237
18141451543
18141461980
18141470464
18141478643
18141486699
18141492803
18141501897
18141509404
18141515569
18141522710
18141528997
18141538213
18141545659
18141553716
18141561101
18141569768
18141573735
18141583989
18141592229
18141600285
18141606389
18141613408
18141621159
18141629033
18141636845
18141643681
18141650944
18141658025
18141665166
18141672734
18141681218
18141687504
18141694035
18141703618
18141711125
18141718144
18141724919
18141732914
18141741887
18141747685
18141756779
18141763371
18141773075
18141779118
18141786808
18141793888
18141803166
18141811344
18141818180
18141827885
18141835331
18141844242
18141852299
18141861332
18141868900
18141875004
18141883183
18141888676
18141896305
18141902592
18141907475
18141914799
18141920780
18141927250
18141932743
18141939335
18141944645
18141951847
18141957828
18141963200
18141969303
18141975834
18141980289
18141988407
18141995548
18142001713
18142008671
18142014164
18142021183
18142026310
18142033634
18142041202
18142045719
18142054264
18142061039
18142067447
18142073612
18142081180
18142090519
18142096744
18142103397
18142109073
18142114505
18142119510
18142124881
18142130985
18142137638
18142141910
18142148258
18142152408
18142159122
18142164798
18142171390
18142176944
18142181644
18142188602
18142192874
18142198795
18142206241
18142212344
18142217410
18142223453
18142232181
18142238040
18142245303
18142250735
18142255618
18142262332
18142267032
18142273501
18142280032
18142288577
18142293643
18142299808
18142306949
18142312808
18142319400
18142325381
18142332278
18142339358
18142345218
18142351443
18142357425
18142362979
18142369571
18142377261
18142382510
18142390506
18142397036
18142402407
18142410769
18142416690
18142423953
18142432437
18142437747
18142443606
18142452578
18142458987
18142466189
18142472598
18142479189
18142484133
18142491885
18142499575
18142506167
18142513552
18142518435
18142525515
18142533266
18142541201
18142548525
18142554446
18142562502
18142569338
18142574282
18142582888
18142591982
18142599001
18142608767
18142616945
18142624453
18142632753
18142639834
18142646975
18142652346
18142659670
18142666750
18142671755
18142680239
18142687685
18142694948
18142703615
18142709719
18142717348
18142723390
18142731447
18142738588
18142743410
18142751772
18142757814
18142764467
18142771303
18142776552
18142785158
18142791628
18142799196
18142806642
18142813478
18142821230
18142829347
18142836732
18142843446
18142850221
18142856264
18142861940
18142869569
18142875673
18142882997
18142890260
18142896547
18142905153
18142913453
18142921022
18142929628
18142935426
18142944398
18142950319
18142960695
18142964357
18142976808
18142983888
18142990358
18142997743
18143004701
18143011781
18143018556
18143026002
18143032838
18143040345
18143049012
18143056214
18143063538
18143070252
18143077088
18143085267
18143091798
18143098084
18143105164
18143109010
18143119080
18143127320
18143133363
18143137635
18143147156
18143155213
18143163636
18143170350
18143178162
18143185242
18143194214
18143201050
18143209473
18143215577
18143233643
18143243226
18143255799
18143264222
18143276062
18143283936
18143291626
18143301392
18143309021
18143316162
18143323426
18143330567
18143337525
18143345032
18143352356
18143359924
18143363587
18143373230
18143381958
18143389587
18143396423
18143403870
18143408447
18143419495
18143425781
18143433411
18143441772
18143449585
18143457947
18143464905
18143470520
18143476562
18143483764
18143488220
18143495056
18143501159
18143507141
18143513366
18143518066
18143523620
18143530151
18143536010
18143542541
18143548767
18143553344
18143560180
18143565063
18143570739
18143576965
18143582641
18143587707
18143597045
18143602844
18143610046
18143617736
18143624633
18143632507
18143638976
18143645324
18143651550
18143656066
18143662048
18143668945
18143676513
18143682250
18143689636
18143695495
18143701843
18143707397
18143713195
18143719482
18143725219
18143731017
18143736694
18143742431
18143748229
18143754027
18143761413
18143767028
18143774230
18143780700
18143786620
18143792785
18143797790
18143803161
18143809874
18143815673
18143822204
18143826964
18143834227
18143840697
18143846068
18143851867
18143858886
18143865844
18143872252
18143878783
18143884093
18143891234
18143898070
18143903380
18143910826
18143917357
18143922240
18143927001
18143933348
18143942626
18143947081
18143953917
18143960570
18143965941
18143970946
18143976378
18143983031
18143988463
18143996275
18144002013
18144008116
18144013060
18144018492
18144024901
18144029662
18144037352
18144044432
18144051329
18144058714
18144064268
18144071715
18144078001
18144086607
18144093748
18144099241
18144102476
18144111754
18144118162
18144123900
18144128843
18144136900
18144142393
18144150389
18144156248
18144164183
18144170408
18144178099
18144184690
18144192259
18144197813
18144205015
18144212522
18144217893
18144225645
18144230528
18144239317
18144242674
18144251890
18144259397
18144265440
18144271726
18144279112
18144286924
18144292295
18144299436
18144305906
18144312742
18144319822
18144326231
18144331480
18144337949
18144347044
18144353757
18144358762
18144365964
18144372434
18144378965
18144384885
18144389890
18144398740
18144405210
18144412656
18144419065
18144425168
18144432859
18144439634
18144445920
18144453183
18144459409
18144465207
18144474057
18144482785
18144489682
18144496335
18144504880
18144510678
18144519223
18144524472
18144532346
18144538083
18144546201
18144552854
18144560361
18144567929
18144574216
18144580136
18144588254
18144594785
18144601926
18144610104
18144617673
18144623044
18144630978
18144638241
18144645199
18144652829
18144660031
18144667050
18144675107
18144681271
18144686215
18144694638
18144701047
18144707699
18144715512
18144722348
18144728878
18144735592
18144742672
18144750912
18144757199
18144765683
18144771908
18144779660
18144785641
18144792843
18144798519
18144805905
18144813412
18144820126
18144826901
18144834347
18144840939
18144847958
18144854305
18144861446
18144868649
18144875851
18144883053
18144890072
18144896297
18144903378
18144909664
18144916866
18144925045
18144930660
18144938595
18144944027
18144951717
18144958797
18144965755
18144973202
18144980770
18144986202
18144993892
18145001339
18145008053
18145015682
18145023433
18145029232
18145036617
18145047054
18145056331
18145062618
18145071041
18145077205
18145085018
18145094295
18145102413
18145110042
18145117488
18145124324
18145132747
18145139034
18145146236
18145153560
18145159419
18145167232
18145173335
18145181575
18145187556
18145194759
18145200435
18145207393
18145215327
18145221675
18145227962
18145232661
18145239375
18145245845
18145252437
18145258906
18145265864
18145270930
18145278255
18145284358
18145290400
18145295222
18145302180
18145308589
18145314387
18145321284
18145328608
18145333735
18145341121
18145346064
18145353511
18145360163
18145365474
18145372187
18145377497
18145383540
18145390376
18145397334
18145403071
18145408869
18145415156
18145421260
18145425715
18145433222
18145437495
18145444331
18145450495
18145457697
18145462580
18145469233
18145474604
18145480830
18145486018
18145492304
18145499018
18145505488
18145510798
18145517023
18145522517
18145526850
18145534479
18145539301
18145546381
18145551752
18145557612
18145562861
18145567988
18145573908
18145580561
18145587031
18145592096
18145599604
18145605768
18145612787
18145617731
18145624750
18145627619
18145636774
18145643915
18145650263
18145654840
18145661310
18145667353
18145674005
18145680597
18145687128
18145694269
18145700617
18145706720
18145713129
18145719171
18145726068
18145732111
18145739191
18145745844
18145750726
18145766718
18145773981
18145781366
18145788873
18145796930
18145802301
18145810968
18145816095
18145824518
18145831110
18145837701
18145845697
18145851251
18145858575
18145864068
18145869745
18145877435
18145883722
18145890985
18145896051
18145903558
18145908502
18145917352
18145923883
18145930780
18145936883
18145943475
18145949945
18145956659
18145963555
18145970391
18145977471
18145984368
18145991021
18145998284
18146005975
18146011773
18146019341
18146023797
18146031487
18146038140
18146043878
18146052300
18146058465
18146064446
18146071648
18146077996
18146085076
18146089654
18146097039
18146104852
18146111626
18146118706
18146124078
18146132745
18146138116
18146145440
18146152154
18146158257
18146164788
18146172539
18146177849
18146184136
18146189385
18146198662
18146202141
18146211297
18146218621
18146224297
18146230217
18146237420
18146244011
18146251519
18146258843
18146265679
18146270317
18146278191
18146286919
18146292351
18146299980
18146305901
18146315239
18146322502
18146329155
18146334465
18146342278
18146349297
18146354546
18146362297
18146369988
18146375359
18146383415
18146391045
18146398064
18146405510
18146410210
18146421440
18146431450
18146438957
18146447197
18146454460
18146461784
18146467705
18146476799
18146485954
18146493095
18146500297
18146507560
18146514335
18146521415
18146526786
18146535331
18146543510
18146552421
18146558219
18146567253
18146573600
18146580436
18146586784
18146595512
18146603752
18146609916
18146616203
18146624565
18146629936
18146638847
18146644096
18146653983
18146660026
18146670768
18146678031
18146685966
18146690299
18146701041
18146707877
18146718436
18146725394
18146733085
18146741691
18146747916
18146756705
18146764213
18146771842
18146778312
18146787589
18146794242
18146803275
18146809256
18146817618
18146822623
18146830680
18146837577
18146845633
18146851981
18146859122
18146864249
18146871146
18146878165
18146884879
18146891898
18146897147
18146903983
18146908682
18146916068
18146920706
18146927420
18146933707
18146939993
18146947196
18146953726
18146959830
18146966116
18146972281
18146977835
18146984305
18146989371
18146995657
18147002005
18147007742
18147013785
18147019522
18147025442
18147031302
18147036490
18147043204
18147049917
18147057120
18147062369
18147069754
18147075308
18147081045
18147086844
18147092947
18147098440
18147105581
18147120169
18147127371
18147133352
18147141409
18147147573
18147153982
18147158499
18147165213
18147171926
18147177969
18147182974
18147188040
18147193899
18147199941
18147205190
18147210134
18147215750
18147222219
18147228262
18147234426
18147239980
18147245596
18147251333
18147255544
18147261953
18147266897
18147274038
18147281179
18147287283
18147292348
18147299184
18147304678
18147310903
18147315603
18147321828
18147327199
18147333059
18147339895
18147346364
18147352163
18147356557
18147363088
18147369680
18147375905
18147379201
18147386464
18147392995
18147401540
18147406179
18147414846
18147421865
18147427114
18147432973
18147438527
18147445180
18147452260
18147458852
18147465932
18147471974
18147478688
18147484304
18147491384
18147498830
18147503896
18147510610
18147518056
18147524892
18147531178
18147537831
18147543507
18147550771
18147556081
18147562123
18147566945
18147574269
18147579945
18147588063
18147594228
18147601430
18147607594
18147614369
18147620045
18147626820
18147632008
18147638905
18147645802
18147652760
18147659413
18147666066
18147672169
18147677357
18147683400
18147688405
18147699269
18147705555
18147713551
18147719655
18147728566
18147737538
18147744862
18147750843
18147757862
18147763233
18147769154
18147774464
18147780934
18147788746
18147794605
18147801991
18147807179
18147814442
18147821339
18147826466
18147833851
18147840809
18147846851
18147851795
18147858631
18147863514
18147871876
18147878223
18147885059
18147892445
18147899281
18147904468
18147912952
18147917591
18147926807
18147933826
18147941151
18147949085
18147955494
18147961841
18147967579
18147975086
18147980213
18147986500
18147992420
18148000354
18148006946
18148012989
18148019397
18148025562
18148031604
18148040210
18148047412
18148054248
18148061878
18148068164
18148074634
18148082263
18148088306
18148094776
18148100330
18148108081
18148114002
18148120288
18148127429
18148134693
18148143421
18148151050
18148156543
18148166919
18148174731
18148181384
18148188281
18148195056
18148202991
18148210315
18148218921
18148228381
18148234851
18148244311
18148253222
18148260974
18148269153
18148276599
18148285205
18148292529
18148296679
18148308032
18148314502
18148324572
18148335131
18148341418
18148350940
18148359301
18148368396
18148374438
18148383166
18148393542
18148404162
18148412707
18148419543
18148429247
18148438708
18148445178
18148455553
18148464343
18148472704
18148479296
18148485705
18148492541
18148497973
18148505480
18148510302
18148517687
18148522448
18148529101
18148535326
18148542223
18148546801
18148555041
18148559740
18148566454
18148573107
18148579088
18148585863
18148592150
18148598559
18148605944
18148610949
18148616991
18148624071
18148629442
18148635607
18148643297
18148649340
18148656664
18148662462
18148669664
18148674913
18148683336
18148689318
18148695482
18148701830
18148707933
18148713243
18148719469
18148726610
18148733568
18148741380
18148744737
18148753771
18148759813
18148765489
18148771349
18148776537
18148783861
18148789720
18148795091
18148800706
18148806566
18148812547
18148818223
18148824327
18148830369
18148836534
18148842149
18148847703
18148853685
18148858262
18148864793
18148870225
18148876512
18148882005
18148887742
18148893052
18148899156
18148905137
18148910814
18148918382
18148924058
18148930528
18148937120
18148944200
18148951829
18148959153
18148965196
18148970750
18148976182
18148980516
18148987107
18148993455
18149008531
18149018052
18149025071
18149033433
18149041428
18149049729
18149055344
18149062791
18149068345
18149075913
18149082993
18149089646
18149095017
18149101487
18149108140
18149114060
18149120713
18149126694
18149131699
18149138047
18149145127
18149150986
18149157456
18149164231
18149171311
18149178086
18149183823
18149192063
18149200180
18149210068
18149217270
18149222275
18149229844
18149236801
18149244065
18149248764
18149256333
18149263169
18149268540
18149275131
18149279953
18149286789
18149294113
18149300217
18149305161
18149311691
18149318527
18149324509
18149329697
18149335617
18149342392
18149348923
18149354355
18149360642
18149367722
18149373825
18149379501
18149385666
18149392075
18149399460
18149407577
18149414413
18149421310
18149428573
18149437485
18149444504
18149449814
18149457931
18149463180
18149471176
18149478500
18149484909
18149490585
18149497726
18149503952
18149511947
18149517807
18149525070
18149530075
18149537399
18149543319
18149550033
18149555892
18149561508
18149567855
18149575057
18149579635
18149587081
18149592819
18149600692
18149606796
18149613815
18149624130
18149632552
18149640670
18149649032
18149658981
18149665755
18149673995
18149679671
18149686141
18149691451
18149699630
18149707442
18149714278
18149717513
18149727706
18149730880
18149740951
18149746871
18149754622
18149760909
18149767379
18149775191
18149781661
18149786910
18149795211
18149801497
18149808028
18149815047
18149821151
18149827925
18149834029
18149841048
18149847640
18149854720
18149861312
18149866988
18149876570
18149882552
18149889632
18149897933
18149905562
18149911543
18149920821
18149927596
18149935408
18149941695
18149948836
18149954817
18149962935
18149970137
18149979231
18149987471
18149992964
18150000227
18150005476
18150015120
18150022383
18150030867
18150038435
18150044050
18150051802
18150058394
18150067061
18150077314
18150085798
18150093184
18150104231
18150111250
18150119917
18150125959
18150133162
18150140181
18150146528
18150153120
18150159101
18150163618
18150170698
18150176557
18150182234
18150187788
18150195112
18150201826
18150206281
18150211286
18150217634
18150223982
18150228498
18150234052
18150241254
18150249006
18150254743
18150261335
18150268171
18150274763
18150281171
18150286787
18150299909
18150308637
18150316083
18150322492
18150330671
18150337018
18150344709
18150350812
18150357343
18150362226
18150369306
18150375287
18150381513
18150387616
18150393354
18150398542
18150403058
18150409650
18150413923
18150420880
18150427045
18150432538
18150438214
18150444196
18150447797
18150453656
18150459210
18150465009
18150471662
18150477643
18150483258
18150488690
18150494489
18150499738
18150507001
18150511762
18150517926
18150521588
18150528912
18150533124
18150539349
18150544782
18150551556
18150556744
18150562482
18150569012
18150573468
18150580609
18150586041
18150592328
18150599286
18150604840
18150610272
18150616376
18150623517
18150629437
18150636334
18150643170
18150650250
18150655865
18150661297
18150667096
18150672711
18150677044
18150683819
18150691510
18150698468
18150703900
18150712567
18150717877
18150723858
18150727215
18150735943
18150742718
18150748333
18150753277
18150760784
18150767254
18150772747
18150777935
18150785687
18150791851
18150797650
18150802654
18150809918
18150816143
18150821941
18150827435
18150835430
18150840191
18150847637
18150854534
18150859295
18150866253
18150873638
18150885418
18150896648
18150905498
18150912578
18150918560
18150924785
18150932415
18150939922
18150947185
18150953045
18150957866
18150964885
18150969890
18150976726
18150981731
18150990825
18150995708
18151003521
18151009624
18151016094
18151023662
18151029033
18151035564
18151042888
18151049053
18151056255
18151063335
18151068401
18151076091
18151082805
18151090984
18151096416
18151103374
18151109233
18151117900
18151124431
18151132793
18151138774
18151146465
18151152446
18151158916
18151165691
18151171367
18151179362
18151186320
18151193400
18151199260
18151204509
18151211772
18151218303
18151225810
18151230266
18151237224
18151245097
18151250468
18151257792
18151264506
18151272929
18151279399
18151287883
18151292643
18151300700
18151307353
18151315226
18151320231
18151327983
18151336772
18151342387
18151349711
18151356974
18151363444
18151368693
18151376139
18151383402
18151391825
18151398478
18151406535
18151412699
18151421977
18151427470
18151437296
18151446696
18151455851
18151463358
18151469645
18151477396
18151485880
18151493510
18151500040
18151525858
18151534464
18151542460
18151550577
18151558024
18151567972
18151574564
18151580484
18151589029
18151594461
18151603312
18151609354
18151618326
18151625650
18151632242
18151640482
18151647135
18151653116
18151662149
18151668070
18151674967
18151683756
18151690103
18151698038
18151704508
18151711649
18151721048
18151728555
18151738626
18151745340
18151754190
18151760599
18151768838
18151773843
18151781534
18151787210
18151794595
18151800455
18151807962
18151813455
18151820962
18151827493
18151834634
18151841287
18151847818
18151853799
18151860208
18151866739
18151874002
18151882791
18151889505
18151895608
18151903115
18151908426
18151914529
18151921365
18151927407
18151934182
18151940713
18151947732
18151952798
18151960183
18151966531
18151972695
18151979592
18151984353
18151991494
18151997842
18152005105
18152013772
18152023354
18152031350
18152040200
18152046853
18152055520
18152062661
18152071511
18152080788
18152089333
18152098305
18152108071
18152118691
18152126015
18152134133
18152142922
18152149758
18152159646
18152168496
18152177712
18152187722
18152196511
18152205422
18152225930
18152235939
18152244850
18152253090
18152263222
18152271645
18152278237
18152287880
18152296425
18152303749
18152311867
18152321205
18152328835
18152337563
18152346413
18152352638
18152363197
18152370033
18152380165
18152388893
18152396034
18152404213
18152414039
18152422767
18152429603
18152440285
18152449196
18152457741
18152465370
18152474220
18152484596
18152492103
18152500770
18152510658
18152519020
18152528114
18152536109
18152542457
18152551918
18152561012
18152569496
18152576270
18152588477
18152596351
18152606056
18152612647
18152624122
18152631263
18152640174
18152648536
18152657935
18152666114
18152674598
18152685035
18152693397
18152702918
18152709022
18152718421
18152728003
18152737464
18152745582
18152753089
18152761390
18152769996
18152778235
18152785498
18152795935
18152804358
18152811988
18152819800
18152830481
18152842505
18152864173
18152884741
18152904028
18152924902
18152943884
18152961829
18152981482
18153001440
18153020971
18153032873
18153041418
18153048315
18153058020
18153066687
18153082617
18153098425
18153116613
18153135229
18153153906
18153164892
18153171423
18153180822
18153188574
18153196508
18153205541
18153215429
18153224462
18153235510
18153246740
18153256322
18153265295
18153274145
18153282995
18153294042
18153306005
18153319189
18153332189
18153343236
18153355016
18153367467
18153378209
18153388585
18153399877
18153410009
18153418309
18153428380
18153440831
18153450780
18153461034
18153471227
18153481420
18153491979
18153502049
18153513097
18153523045
18153533849
