18066306228
18066313491
18066319228
18066324355
18066330336
18066337600
18066343215
18066348952
18066354567
18066359450
18066364882
18066369643
18066375258
18066380202
18066386061
18066391127
18066396376
18066401198
18066406752
18066412306
18066417556
18066422438
18066427260
18066432936
18066437758
18066444655
18066451003
18066456557
18066463576
18066468520
18066474989
18066481093
18066488722
18066495314
18066502516
18066508131
18066516310
18066521864
18066531325
18066536879
18066543471
18066550368
18066558852
18066566786
18066573439
18066581496
18066589003
18066595778
18066602614
18066609816
18066618300
18066626234
18066631544
18066640455
18066646193
18066654005
18066662306
18066670240
18066678785
18066686171
18066693922
18066703382
18066709852
18066716688
18066724134
18066732191
18066756605
18066766920
18066776380
18066785169
18066792494
18066799024
18066809950
18066817457
18066826490
18066835523
18066844190
18066852857
18066860609
18066869031
18066876172
18066885816
18066895399
18066902295
18066909986
18066917432
18066926954
18066935865
18066944837
18066951795
18066959607
18066968213
18066975660
18066984876
18066993665
18067003003
18067009656
18067016126
18067023450
18067030896
18067035901
18067046338
18067051892
18067060132
18067066846
18067073804
18067080457
18067089795
18067098157
18067105176
18067112500
18067121960
18067127637
18067136792
18067143323
18067152600
18067160901
18067167065
18067174267
18067183911
18067193188
18067201062
18067207532
18067216076
18067223767
18067231823
18067239453
18067250073
18067258191
18067265026
18067277966
18067284924
18067293591
18067299145
18067309033
18067316113
18067326977
18067334118
18067342785
18067350414
18067357556
18067363232
18067370922
18067379101
18067388134
18067397228
18067405773
18067417980
18067427013
18067433971
18067444591
18067452221
18067461986
18067469311
18067474071
18067483959
18067490185
18067498241
18067505138
18067515392
18067525951
18067533580
18067541271
18067546886
18067555309
18067563427
18067569835
18067578014
18067585216
18067592479
18067597728
18067606090
18067614147
18067621593
18067629466
18067635387
18067643321
18067650035
18067660716
18067667308
18067676036
18067683482
18067693004
18067697643
18067706676
18067712596
18067720409
18067728343
18067735789
18067741405
18067748790
18067756236
18067763927
18067771861
18067778392
18067785777
18067792369
18067800670
18067810313
18067817576
18067826060
18067834422
18067840037
18067850901
18067857005
18067866954
18067875804
18067884593
18067892039
18067898204
18067909617
18067916880
18067924021
18067934458
18067946482
18067960032
18067968455
18067979136
18067990794
18068001170
18068009348
18068019541
18068026560
18068035166
18068042979
18068049570
18068057566
18068065867
18068081553
18068091318
18068100229
18068109629
18068117197
18068125559
18068132944
18068140207
18068148813
18068156748
18068163828
18068172373
18068179270
18068186106
18068193979
18068200571
18068207834
18068214609
18068220957
18068229624
18068237192
18068244333
18068251474
18068256052
18068265024
18068272897
18068278818
18068288278
18068295847
18068302683
18068309152
18068317331
18068324594
18068330209
18068339670
18068345285
18068352731
18068359201
18068366708
18068373605
18068380807
18068389840
18068397714
18068404306
18068411508
18068418039
18068425058
18068431833
18068438974
18068448129
18068454904
18068464364
18068471139
18068478036
18068486337
18068494821
18068502877
18068510812
18068518441
18068526559
18068534005
18068540353
18068549630
18068556527
18068565072
18068573495
18068582467
18068591683
18068600045
18068607552
18068615548
18068623849
18068631478
18068639474
18068648019
18068655343
18068661263
18068673470
18068681649
18068689278
18068696053
18068705575
18068711251
18068720162
18068725289
18068735848
18068743721
18068753670
18068760872
18068768685
18068777413
18068800057
18068805184
18068814278
18068820626
18068829109
18068835640
18068841744
18068849251
18068855415
18068860726
18068867073
18068874031
18068881416
18068886604
18068893623
18068901436
18068907356
18068913460
18068921028
18068927803
18068935432
18068941353
18068946846
18068955513
18068960152
18068967903
18068974617
18068981087
18068987983
18068994758
18069000313
18069008125
18069013496
18069022468
18069029243
18069036934
18069043159
18069048957
18069055427
18069062690
18069069282
18069077888
18069084907
18069091560
18069099494
18069105781
18069111824
18069118049
18069125801
18069131721
18069139961
18069147041
18069154121
18069160652
18069167548
18069174629
18069183845
18069190070
18069195808
18069204475
18069209968
18069216743
18069225349
18069232551
18069241035
18069247687
18069254340
18069262458
18069268744
18069276862
18069282355
18069291633
18069300727
18069307685
18069314704
18069320380
18069328009
18069333686
18069342109
18069351142
18069358771
18069367072
18069374579
18069381049
18069390265
18069396491
18069403021
18069412482
18069419074
18069425849
18069435492
18069443121
18069451239
18069460455
18069467780
18069476752
18069483710
18069490668
18069500311
18069505927
18069514960
18069520209
18069529364
18069535956
18069543219
18069550909
18069558172
18069566229
18069573981
18069581183
18069588385
18069594732
18069601996
18069607672
18069616034
18069624151
18069631353
18069637457
18069645636
18069653448
18069661077
18069666815
18069673651
18069682074
18069689459
18069696539
18069703985
18069713018
18069720770
18069727178
18069735113
18069741766
18069748663
18069755316
18069763616
18069770330
18069777288
18069784917
18069793584
18069801519
18069809454
18069817388
18069824346
18069832830
18069839910
18069847967
18069854192
18069863531
18069869878
18069879522
18069888555
18069893560
18069904058
18069912969
18069921392
18069929754
18069936223
18069943181
18069952764
18069961553
18069968816
18069978215
18069984685
18069992742
18069998845
18070008122
18070016667
18070024480
18070031011
18070040776
18070046941
18070054936
18070063603
18070073491
18070080571
18070087224
18070093694
18070101262
18070107304
18070112675
18070119206
18070125066
18070131047
18070138615
18070144658
18070151372
18070156926
18070164189
18070168706
18070175786
18070181157
18070189702
18070196293
18070204472
18070210881
18070219182
18070225834
18070231938
18070239079
18070244694
18070252262
18070259404
18070265751
18070272892
18070279301
18070285282
18070292729
18070298527
18070304631
18070310063
18070314945
18070321293
18070327519
18070332035
18070338810
18070345829
18070352299
18070357609
18070363590
18070369083
18070375065
18070380497
18070386478
18070393436
18070398502
18070405277
18070411686
18070418400
18070424259
18070428715
18070435917
18070440189
18070448246
18070453190
18070459537
18070465458
18070472294
18070479191
18070485721
18070490909
18070495487
18070502018
18070508060
18070514652
18070521854
18070526432
18070534366
18070541324
18070547855
18070552799
18070560733
18070565738
18070572635
18070577579
18070584720
18070591434
18070596988
18070603946
18070610965
18070616214
18070622745
18070627445
18070634281
18070640079
18070647525
18070655277
18070662784
18070668948
18070673831
18070680911
18070687442
18070695193
18070700198
18070707950
18070713565
18070721377
18070727725
18070735416
18070741092
18070746585
18070753787
18070760928
18070765811
18070772952
18070778384
18070786197
18070793094
18070801516
18070809939
18070817996
18070823489
18070833255
18070841861
18070847293
18070854617
18070862002
18070868655
18070875491
18070883120
18070888430
18070894656
18070901675
18070907839
18070914675
18070922610
18070928530
18070935610
18070941897
18070947573
18070954653
18070961916
18070966738
18070974062
18070979678
18070987002
18070992434
18070999697
18071005129
18071012331
18071017763
18071024966
18071032290
18071037173
18071044924
18071051333
18071057558
18071064455
18071070620
18071075625
18071084109
18071089541
18071095766
18071102297
18071110109
18071115114
18071122866
18071130800
18071136721
18071141359
18071149294
18071155397
18071162600
18071168154
18071176210
18071184572
18071190187
18071197939
18071203615
18071211977
18071218141
18071224367
18071233339
18071238649
18071246462
18071253786
18071260988
18071266237
18071275209
18071283449
18071290163
18071296938
18071303407
18071310365
18071316835
18071324464
18071333009
18071341127
18071346681
18071354921
18071360414
18071367433
18071375184
18071384096
18071391115
18071398134
18071404969
18071414430
18071419374
18071428407
18071435182
18071442018
18071451112
18071459169
18071467286
18071477357
18071487306
18071496095
18071502137
18071510621
18071516236
18071524781
18071530518
18071538819
18071546327
18071553346
18071560243
18071569459
18071577088
18071585511
18071590699
18071599061
18071607667
18071613465
18071620850
18071629090
18071634461
18071642823
18071648926
18071657044
18071662964
18071670960
18071677308
18071685303
18071693360
18071699158
18071708252
18071714051
18071721802
18071730469
18071736512
18071743653
18071751160
18071757874
18071764222
18071769165
18071776673
18071783814
18071789856
18071797608
18071803467
18071808960
18071814881
18071821900
18071829163
18071833923
18071841309
18071847962
18071854981
18071862061
18071866760
18071873962
18071880066
18071884583
18071891541
18071898926
18071903686
18071910461
18071915222
18071922363
18071928528
18071936035
18071941772
18071949097
18071954162
18071960205
18071967224
18071973083
18071979126
18071984619
18071990844
18071996948
18072002014
18072007995
18072012695
18072018860
18072024963
18072030883
18072037353
18072042846
18072047790
18072050537
18072058593
18072064636
18072069641
18072077270
18072082824
18072086791
18072092956
18072100219
18072106933
18072114562
18072121215
18072128417
18072132385
18072138671
18072143798
18072149352
18072154357
18072160461
18072166747
18072171081
18072177062
18072183837
18072189147
18072194396
18072201537
18072208923
18072213988
18072220031
18072226501
18072231322
18072237914
18072243896
18072250060
18072256957
18072261718
18072268310
18072273559
18072278869
18072283873
18072290954
18072298217
18072303466
18072309630
18072316344
18072321166
18072327819
18072332640
18072339659
18072347228
18072353942
18072359679
18072364257
18072371093
18072378051
18072383910
18072391600
18072397521
18072402709
18072409850
18072415770
18072421080
18072428038
18072433592
18072440306
18072447630
18072453978
18072461180
18072466429
18072473875
18072481566
18072488524
18072494871
18072502013
18072507811
18072514464
18072520567
18072528013
18072534361
18072542723
18072549864
18072555906
18072563231
18072567320
18072574583
18072580687
18072588865
18072597105
18072602110
18072609861
18072616270
18072622313
18072628782
18072636473
18072642515
18072650145
18072658323
18072663328
18072672789
18072679502
18072686766
18072695188
18072703245
18072711180
18072719908
18072727415
18072734495
18072740659
18072747801
18072754148
18072760008
18072767759
18072771055
18072780393
18072786192
18072794309
18072800901
18072808164
18072815794
18072822263
18072828916
18072835630
18072841917
18072850339
18072856138
18072862668
18072870664
18072876706
18072884031
18072890317
18072898008
18072904233
18072910764
18072918271
18072925657
18072931943
18072938901
18072944944
18072951596
18072958249
18072965085
18072973874
18072979917
18072988034
18072994504
18073003232
18073010251
18073017209
18073024655
18073032407
18073039365
18073047177
18073054135
18073061581
18073068662
18073075986
18073082944
18073089413
18073098141
18073104550
18073111386
18073121213
18073127621
18073134946
18073141293
18073149716
18073156552
18073164120
18073173459
18073182980
18073189511
18073198605
18073205563
18073213253
18073220822
18073229672
18073235958
18073244320
18073252743
18073258602
18073268551
18073274960
18073285458
18073293026
18073301876
18073310055
18073317074
18073325314
18073333187
18073343197
18073350582
18073357906
18073365047
18073371090
18073377377
18073386410
18073391964
18073401241
18073410274
18073416805
18073422298
18073426693
18073433590
18073437923
18073444759
18073451717
18073457516
18073463314
18073470150
18073474483
18073482174
18073488094
18073495540
18073502071
18073508114
18073515133
18073519466
18073525875
18073536434
18073541988
18073548641
18073555294
18073561946
18073566341
18073575130
18073580867
18073587703
18073595821
18073601497
18073607662
18073613155
18073618160
18073624385
18073629329
18073637325
18073643428
18073648372
18073654231
18073659969
18073664058
18073671199
18073677058
18073683589
18073687923
18073695552
18073702083
18073708980
18073716304
18073722041
18073728023
18073733272
18073739741
18073746577
18073752681
18073759517
18073765193
18073771541
18073776484
18073782222
18073787837
18073793086
18073797969
18073802913
18073811030
18073816645
18073821833
18073827876
18073833125
18073837825
18073844599
18073850520
18073857234
18073863703
18073869075
18073875056
18073879206
18073885859
18073893061
18073898738
18073904841
18073910273
18073915522
18073922419
18073928584
18073934321
18073941828
18073950190
18073960322
18073974177
18073980708
18073988337
18073993037
18074001948
18074008356
18074015803
18074023737
18074029780
18074037226
18074044184
18074050715
18074057184
18074063654
18074070246
18074077570
18074083857
18074091730
18074097895
18074104853
18074110529
18074118158
18074127253
18074132929
18074141413
18074148981
18074154108
18074161798
18074166620
18074176203
18074182611
18074189020
18074196405
18074204096
18074209650
18074217035
18074223810
18074231195
18074237848
18074244501
18074251642
18074256586
18074265131
18074268304
18074280634
18074287897
18074296197
18074303827
18074310602
18074316827
18074324274
18074332147
18074337823
18074345819
18074352411
18074359613
18074366815
18074371942
18074379571
18074386895
18074392999
18074400628
18074407098
18074414544
18074421869
18074427911
18074435113
18074443353
18074450067
18074457635
18074463983
18074471307
18074477349
18074484796
18074493463
18074501519
18074509515
18074516229
18074523858
18074530999
18074536553
18074547356
18074554986
18074563409
18074569634
18074575860
18074582574
18074592583
18074601189
18074610528
18074616997
18074624932
18074632195
18074636834
18074643426
18074649895
18074655694
18074663201
18074669610
18074676812
18074682854
18074688775
18074695794
18074700921
18074707024
18074713250
18074721001
18074726677
18074733330
18074738945
18074745903
18074751641
18074757256
18074765496
18074772026
18074777886
18074782952
18074790764
18074794731
18074802422
18074811516
18074818108
18074825066
18074831596
18074837212
18074843742
18074849297
18074857414
18074867729
18074873344
18074881340
18074888115
18074893913
18074901176
18074909050
18074916618
18074925041
18074932182
18074937919
18074945732
18074951652
18074958488
18074966545
18074974113
18074980766
18074989067
18074996574
18075003532
18075009147
18075017082
18075023735
18075029960
18075035087
18075043083
18075047782
18075055412
18075061088
18075066581
18075072319
18075077629
18075083549
18075089347
18075095878
18075101737
18075106986
18075113822
18075118156
18075125480
18075131706
18075138480
18075143119
18075149406
18075154105
18075160392
18075166434
18075171500
18075180045
18075185538
18075191032
18075197135
18075202628
18075208793
18075214225
18075220573
18075228995
18075236503
18075242484
18075248588
18075256705
18075261710
18075267569
18075272880
18075277274
18075284354
18075290274
18075295218
18075301017
18075308463
18075313895
18075320243
18075325858
18075332022
18075337699
18075344107
18075349417
18075356009
18075360770
18075366446
18075372672
18075377921
18075383597
18075387992
18075394522
18075401297
18075405692
18075412711
18075418631
18075424063
18075428641
18075436392
18075443106
18075448843
18075454215
18075459708
18075465018
18075469168
18075477774
18075484854
18075490469
18075497061
18075502127
18075508292
18075514700
18075520926
18075527579
18075533316
18075540335
18075546255
18075552969
18075558584
18075564566
18075570059
18075577139
18075583120
18075588308
18075595572
18075602224
18075607595
18075613943
18075621634
18075629507
18075634390
18075641165
18075645681
18075653372
18075657766
18075663870
18075670095
18075677847
18075683401
18075689443
18075693960
18075701833
18075707998
18075716543
18075722952
18075730459
18075736684
18075742239
18075748281
18075754751
18075758901
18075765737
18075774221
18075779043
18075785512
18075789968
18075800100
18075806142
18075814565
18075822622
18075831289
18075837209
18075843923
18075849050
18075855642
18075861013
18075869253
18075876455
18075881460
18075887929
18075893972
18075899709
18075904165
18075910939
18075919057
18075925710
18075932912
18075938893
18075943593
18075950551
18075953542
18075962270
18075967763
18075975331
18075981435
18075986562
18075992970
18075998097
18076004506
18076009877
18076016408
18076023488
18076029469
18076035512
18076042226
18076047170
18076055226
18076060719
18076068532
18076074025
18076079701
18076085683
18076091298
18076098195
18076104054
18076110341
18076117421
18076124623
18076131459
18076138051
18076146290
18076152394
18076158619
18076167958
18076174977
18076182240
18076188588
18076195851
18076201649
18076207875
18076216236
18076223194
18076230946
18076235768
18076242970
18076249256
18076256581
18076262257
18076268360
18076276051
18076282093
18076289112
18076294911
18076300892
18076308949
18076315907
18076322987
18076330311
18076337330
18076344288
18076352406
18076359119
18076365833
18076371632
18076381031
18076390247
18076396473
18076404163
18076410877
18076416370
18076424915
18076429493
18076438648
18076445118
18076455494
18076464161
18076473987
18076496143
18076504810
18076510242
18076518116
18076522266
18076529834
18076535694
18076543567
18076550037
18076557422
18076564441
18076572620
18076579822
18076586048
18076593372
18076600208
18076607044
18076615344
18076621631
18076627551
18076632922
18076639819
18076646045
18076652087
18076657825
18076665393
18076670825
18076677356
18076682849
18076689136
18076694751
18076699329
18076705615
18076711536
18076717273
18076722339
18076728076
18076734118
18076739917
18076744861
18076750537
18076756579
18076762988
18076770068
18076776660
18076782763
18076789233
18076795947
18076802539
18076809985
18076816516
18076822802
18076829455
18076835437
18076841906
18076847949
18076856188
18076860461
18076867358
18076872668
18076878832
18076886157
18076892260
18076898119
18076905932
18076912035
18076919055
18076924853
18076929247
18076935351
18076939501
18076945177
18076949450
18076957140
18076960375
18076970080
18076974902
18076980212
18076986742
18076992052
18076997484
18077002550
18077007555
18077014391
18077019396
18077026232
18077033190
18077039721
18077045153
18077050402
18077056383
18077063036
18077069506
18077075487
18077083849
18077090441
18077098497
18077104845
18077112047
18077116991
18077124315
18077130968
18077135851
18077142382
18077148424
18077153978
18077158678
18077166002
18077171739
18077178087
18077183519
18077191454
18077196825
18077203111
18077208360
18077214647
18077221178
18077229295
18077233812
18077241441
18077248827
18077254198
18077260484
18077267808
18077273424
18077281114
18077287523
18077294481
18077301378
18077307115
18077315111
18077320604
18077328111
18077333665
18077339891
18077346910
18077353074
18077358384
18077364366
18077370652
18077376695
18077383165
18077389940
18077396348
18077403306
18077410081
18077417039
18077423814
18077430894
18077438157
18077444993
18077448167
18077457688
18077464158
18077470140
18077475938
18077484239
18077491380
18077497849
18077504807
18077511216
18077516770
18077524644
18077530076
18077538316
18077544907
18077551194
18077559068
18077564133
18077570237
18077577439
18077582505
18077590073
18077597459
18077602647
18077609666
18077614792
18077622056
18077627183
18077634507
18077639756
18077647324
18077652390
18077659653
18077666489
18077672898
18077678696
18077685227
18077693711
18077701096
18077709031
18077716172
18077720322
18077733445
18077740097
18077745896
18077753037
18077757981
18077763474
18077770432
18077775803
18077782700
18077787644
18077795517
18077803879
18077809982
18077818466
18077825058
18077833359
18077840317
18077846664
18077854050
18077860275
18077866318
18077872787
18077880600
18077888473
18077893844
18077899399
18077906418
18077914779
18077921005
18077929794
18077937362
18077944076
18077950363
18077957504
18077963974
18077970199
18077978256
18077986496
18077993820
18077999557
18078007614
18078012680
18078021347
18078027145
18078035934
18078043258
18078049911
18078057174
18078065109
18078072006
18078078353
18078087509
18078096114
18078104232
18078111556
18078118942
18078128463
18078135726
18078142440
18078150314
18078159896
18078168197
18078175338
18078184493
18078191207
18078198592
18078206405
18078213729
18078222823
18078228255
18078237960
18078244674
18078254073
18078261092
18078270003
18078275985
18078284530
18078289779
18078297103
18078303939
18078310591
18078317488
18078322982
18078329085
18078334822
18078343123
18078349105
18078358199
18078366316
18078374434
18078381392
18078386214
18078392500
18078397627
18078404952
18078411665
18078418135
18078423933
18078430037
18078435896
18078440840
18078448958
18078454268
18078459151
18078466231
18078471236
18078477766
18078484968
18078491316
18078498640
18078504683
18078511152
18078516524
18078523665
18078528486
18078536970
18078542830
18078548872
18078554365
18078560774
18078566389
18078572432
18078578657
18078585615
18078591658
18078604048
18078618086
18078627302
18078635786
18078643293
18078648359
18078655195
18078661054
18078666303
18078672529
18078678755
18078685163
18078691206
18078696699
18078702314
18078708723
18078714521
18078721052
18078726057
18078733869
18078740156
18078746748
18078752607
18078758710
18078766096
18078772565
18078777570
18078783796
18078790815
18078798017
18078803388
18078811384
18078819562
18078826093
18078832197
18078839765
18078845746
18078852826
18078858991
18078864606
18078870832
18078877973
18078884198
18078891401
18078896100
18078903608
18078911115
18078918317
18078929608
18078938642
18078945966
18078953412
18078960614
18078966962
18078973432
18078981122
18078987409
18078992963
18078998273
18079005902
18079012494
18079018109
18079024823
18079033002
18079039288
18079046918
18079053387
18079059674
18079067303
18079075177
18079080914
18079088177
18079094891
18079101361
18079106000
18079113141
18079118695
18079125958
18079131878
18079139020
18079146649
18079151715
18079159344
18079166790
18079172894
18079179608
18079185772
18079193524
18079199810
18079205853
18079212017
18079217816
18079225628
18079232769
18079238751
18079246014
18079251934
18079258770
18079266277
18079270916
18079278851
18079284771
18079292095
18079298504
18079305706
18079310894
18079318035
18079323223
18079330425
18079338543
18079343731
18079351849
18079357037
18079364361
18079371563
18079378216
18079386089
18079393047
18079399700
18079406109
18079411541
18079419536
18079427593
18079434185
18079442425
18079448894
18079455120
18079461773
18079468059
18079474773
18079480266
18079488628
18079494487
18079503704
18079509014
18079516765
18079524395
18079531230
18079536540
18079544719
18079550823
18079559184
18079568035
18079575359
18079581218
18079588603
18079597331
18079604656
18079614543
18079623637
18079630046
18079638774
18079645671
18079652934
18079658549
18079666728
18079674419
18079682170
18079690410
18079697185
18079702434
18079710063
18079715556
18079723308
18079730876
18079738139
18079745707
18079752849
18079758403
18079767070
18079774760
18079781535
18079788310
18079797038
18079804667
18079811930
18079817912
18079826640
18079833049
18079839518
18079848429
18079857646
18079863444
18079870951
18079879313
18079886149
18079893290
18079901164
18079909892
18079916117
18079924662
18079931864
18079938639
18079944376
18079951701
18079959086
18079967509
18079971781
18079979777
18079984904
18079992289
18079998575
18080003824
18080008524
18080016154
18080021280
18080027872
18080033854
18080039225
18080045206
18080052103
18080058756
18080064920
18080071756
18080078043
18080084269
18080089090
18080095804
18080100443
18080108683
18080113321
18080120218
18080124857
18080132608
18080139078
18080145120
18080151285
18080157450
18080164469
18080172281
18080178812
18080184549
18080191202
18080197305
18080203897
18080209879
18080215738
18080220071
18080227029
18080231668
18080238687
18080244608
18080251138
18080256265
18080262918
18080270547
18080278543
18080284158
18080291849
18080299234
18080304849
18080311624
18080316507
18080323404
18080329080
18080334390
18080339761
18080346414
18080352334
18080357644
18080364297
18080369607
18080376382
18080382608
18080388223
18080393838
18080399636
18080404031
18080412637
18080417642
18080424539
18080428994
18080436318
18080442910
18080449929
18080455667
18080460855
18080467385
18080474038
18080480081
18080487893
18080492471
18080498879
18080505471
18080511391
18080517495
18080522378
18080529397
18080536477
18080545632
18080551553
18080557778
18080564736
18080570901
18080577981
18080584206
18080590371
18080598244
18080604714
18080610390
18080616250
18080626015
18080630959
18080638833
18080644814
18080652199
18080660073
18080665200
18080673439
18080678078
18080686745
18080692543
18080700417
18080706154
18080712319
18080719155
18080725319
18080732582
18080739113
18080745339
18080753700
18080759072
18080767250
18080774025
18080779884
18080786415
18080794472
18080799233
18080807411
18080813698
18080821327
18080828102
18080835915
18080840980
18080848549
18080855812
18080862282
18080867470
18080874611
18080881508
18080886757
18080898109
18080906532
18080914528
18080922279
18080929664
18080937599
18080943641
18080949073
18080957252
18080964576
18080970436
18080976417
18080984474
18080991066
18080996925
18081003150
18081011329
18081017494
18081023597
18081031532
18081037574
18081045570
18081051856
18081057777
18081065772
18081072608
18081079688
18081084754
18081091895
18081098060
18081105201
18081109962
18081117347
18081124488
18081131263
18081138465
18081145545
18081151954
18081157081
18081165382
18081172095
18081178809
18081186133
18081193091
18081200721
18081207496
18081213660
18081220374
18081228309
18081234900
18081241370
18081247840
18081253760
18081260230
18081266089
18081272925
18081280188
18081286719
18081292273
18081298560
18081305030
18081311743
18081319373
18081326880
18081335181
18081341712
18081348181
18081355933
18081364600
18081372046
18081378577
18081386939
18081393958
18081401221
18081405188
18081414893
18081422034
18081430151
18081433936
18081443518
18081450781
18081457861
18081463537
18081472327
18081478308
18081485998
18081491858
18081499731
18081505774
18081514563
18081520178
18081528357
18081534704
18081540991
18081550390
18081558264
18081564611
18081572363
18081578100
18081588659
18081608740
18081620642
18081625769
18081633093
18081638281
18081646093
18081651953
18081658117
18081663305
18081671301
18081677160
18081681616
18081687841
18081692480
18081697546
18081705541
18081711095
18081717199
18081723547
18081729650
18081737585
18081743383
18081748815
18081754858
18081760778
18081768041
18081772680
18081780797
18081787267
18081793493
18081799108
18081807042
18081811986
18081817540
18081824071
18081829015
18081834020
18081840429
18081848119
18081854589
18081861119
18081867101
18081872655
18081879247
18081884801
18081890172
18081895421
18081902379
18081907811
18081914098
18081919835
18081926305
18081932347
18081937718
18081943761
18081950536
18081956517
18081962316
18081967992
18081972814
18081979039
18081984044
18081990331
18081996922
18082001561
18082008153
18082012364
18082018040
18082023839
18082029210
18082036290
18082042271
18082047581
18082052952
18082058446
18082065587
18082071507
18082079014
18082083104
18082089573
18082095067
18082101964
18082109410
18082114293
18082120579
18082126744
18082132237
18082138340
18082144566
18082151158
18082157444
18082165196
18082184910
18082191807
18082196629
18082202793
18082207493
18082214817
18082221653
18082228550
18082234471
18082239231
18082245152
18082249729
18082256626
18082263157
18082268955
18082275120
18082282017
18082288487
18082295139
18082306919
18082314732
18082323154
18082330723
18082338047
18082344273
18082350010
18082358005
18082363132
18082370518
18082377842
18082383945
18082389561
18082395725
18082403293
18082409763
18082417331
18082423313
18082429172
18082434910
18082441623
18082446872
18082452243
18082459629
18082465915
18082473423
18082479404
18082486606
18082493259
18082498264
18082504795
18082512424
18082520053
18082525119
18082533115
18082537998
18082544773
18082551120
18082556918
18082564365
18082572177
18082577182
18082584750
18082590976
18082596591
18082602390
18082609958
18082617160
18082624179
18082628329
18082634982
18082641635
18082649814
18082657626
18082665561
18082671603
18082677585
18082683322
18082690158
18082695468
18082701144
18082708651
18082714999
18082720920
18082727206
18082734347
18082741366
18082747958
18082752963
18082760470
18082767794
18082781771
18082789767
18082798617
18082804660
18082813143
18082821566
18082827487
18082833468
18082838961
18082844943
18082850375
18082856356
18082862765
18082868868
18082872103
18082880343
18082886996
18082894198
18082901339
18082908907
18082916354
18082923190
18082929232
18082936617
18082942843
18082950350
18082957491
18082964327
18082970125
18082976534
18082982271
18082988985
18082995455
18083002962
18083009554
18083016268
18083023714
18083028597
18083034639
18083041842
18083048189
18083057161
18083062899
18083071199
18083077303
18083084810
18083091646
18083097261
18083105928
18083111421
18083120027
18083126070
18083133150
18083139986
18083147371
18083154573
18083161592
18083168428
18083175752
18083182039
18083189241
18083196504
18083204622
18083213045
18083218477
18083226045
18083231905
18083240816
18083246492
18083252779
18083262300
18083270051
18083276887
18083282930
18083290071
18083295564
18083301362
18083308565
18083314546
18083320161
18083327424
18083332795
18083338472
18083343415
18083349092
18083356660
18083364045
18083370271
18083377778
18083382722
18083390351
18083396760
18083401460
18083407258
18083414216
18083420686
18083427400
18083433747
18083449800
18083460969
18083468171
18083473054
18083478730
18083484589
18083490815
18083496857
18083502656
18083508088
18083514313
18083519318
18083524506
18083531525
18083536347
18083542206
18083547639
18083551911
18083558381
18083562714
18083570283
18083575348
18083581879
18083588349
18083594025
18083596955
18083604157
18083609284
18083615754
18083621247
18083625947
18083631379
18083637177
18083641816
18083646637
18083651581
18083658112
18083664948
18083669953
18083675629
18083682038
18083687104
18083693573
18083698944
18083704376
18083709931
18083715973
18083721527
18083727143
18083732758
18083737518
18083744415
18083749787
18083756989
18083763031
18083768890
18083774811
18083781403
18083786896
18083794281
18083800873
18083808319
18083814667
18083820526
18083826874
18083833404
18083839996
18083845917
18083852142
18083858246
18083864410
18083870148
18083876068
18083882965
18083889007
18083895477
18083903717
18083910370
18083916717
18083922027
18083930328
18083937042
18083943756
18083950287
18083958221
18083963104
18083970001
18083975677
18083982879
18083987579
18083994476
18084001373
18084006561
18084018524
18084026336
18084035613
18084042266
18084050811
18084057159
18084064178
18084070403
18084078033
18084084991
18084090667
18084098052
18084105804
18084110625
18084118072
18084122771
18084129302
18084136138
18084142242
18084149749
18084156219
18084162261
18084168792
18084175017
18084181243
18084187041
18084194915
18084200713
18084206084
18084212981
18084219268
18084225921
18084233550
18084238860
18084246611
18084252166
18084259673
18084266570
18084273650
18084278960
18084286711
18084291838
18084299834
18084306670
18084313689
18084320037
18084325286
18084332121
18084337065
18084343962
18084350798
18084356902
18084362700
18084368742
18084373808
18084379790
18084386443
18084392790
18084398161
18084404570
18084409697
18084418059
18084424528
18084431914
18084437956
18084443266
18084452116
18084459563
18084465300
18084473173
18084479338
18084486662
18084492094
18084497160
18084505217
18084511198
18084518705
18084525480
18084530546
18084537138
18084543791
18084550932
18084559843
18084566374
18084572844
18084579863
18084587126
18084592070
18084599943
18084606779
18084616422
18084623197
18084630277
18084637296
18084644987
18084651884
18084658903
18084669767
18084678129
18084686063
18084702299
18084709440
18084714750
18084720914
18084728300
18084734586
18084742643
18084746915
18084754545
18084761136
18084767057
18084772794
18084781217
18084786649
18084794156
18084799100
18084807767
18084814786
18084821378
18084829984
18084838102
18084844632
18084853360
18084859586
18084868375
18084873746
18084881742
18084888394
18084896268
18084901395
18084908292
18084914701
18084919217
18084925504
18084930081
18084936124
18084940762
18084947232
18084954007
18084959683
18084964871
18084970487
18084975003
18084980985
18084988248
18084994656
18085000638
18085007169
18085013150
18085019620
18085026028
18085032132
18085038602
18085044949
18085052151
18085058621
18085064114
18085074734
18085084439
18085091336
18085097622
18085105496
18085112149
18085118985
18085125882
18085132534
18085139553
18085142544
18085152371
18085160916
18085168057
18085176236
18085183499
18085188748
18085193447
18085199612
18085204312
18085212002
18085219143
18085224087
18085230923
18085237942
18085243008
18085248074
18085255337
18085261318
18085265591
18085273953
18085280361
18085287685
18085294521
18085301601
18085307461
18085313930
18085320583
18085325161
18085333462
18085339260
18085344753
18085350979
18085358059
18085366176
18085370510
18085378444
18085384731
18085391750
18085397426
18085404323
18085411037
18085415615
18085423366
18085429470
18085437099
18085443081
18085448574
18085455410
18085462123
18085467433
18085475002
18085484523
18085489833
18085495937
18085503200
18085507839
18085515590
18085521999
18085527126
18085534389
18085540859
18085548244
18085553920
18085561977
18085567958
18085573024
18085580837
18085587245
18085593349
18085599086
18085606166
18085612880
18085620326
18085627528
18085632777
18085640102
18085643458
18085651698
18085658046
18085666408
18085671657
18085677577
18085683314
18085690211
18085697596
18085702907
18085710231
18085716212
18085722377
18085728480
18085734828
18085742396
18085747401
18085755702
18085761317
18085769618
18085774867
18085781275
18085787013
18085794337
18085798426
18085806361
18085812281
18085819666
18085826502
18085831751
18085838954
18085843409
18085861414
18085871241
18085878504
18085886439
18085891505
18085899256
18085906275
18085912318
18085918909
18085925806
18085931910
18085940272
18085947230
18085953272
18085958399
18085966150
18085973597
18085980127
18085985865
18085992579
18085998621
18086005701
18086011805
18086017603
18086024683
18086030970
18086039087
18086045191
18086055140
18086061914
18086068933
18086074243
18086082544
18086089258
18086096033
18086102320
18086109583
18086116358
18086121424
18086129846
18086135889
18086143762
18086152734
18086159509
18086166528
18086173303
18086180078
18086188684
18086199060
18086206140
18086215601
18086222192
18086232324
18086237756
18086245508
18086253076
18086258569
18086267358
18086271387
18086279870
18086285486
18086295739
18086302636
18086309411
18086318689
18086326379
18086329980
18086338952
18086347070
18086353845
18086360925
18086366418
18086372399
18086382531
18086387963
18086394860
18086403344
18086409020
18086416894
18086422082
18086431115
18086439782
18086445764
18086453149
18086459679
18086466393
18086473107
18086478722
18086484338
18086490868
18086498071
18086511559
18086528649
18086535546
18086542870
18086548974
18086555443
18086560204
18086567223
18086572228
18086579186
18086584984
18086589379
18086595665
18086601464
18086607018
18086611779
18086618065
18086625145
18086631188
18086637291
18086643151
18086648644
18086654442
18086659325
18086665001
18086671593
18086677697
18086684166
18086689354
18086694420
18086701134
18086706322
18086711815
18086717735
18086724388
18086730248
18086735802
18086741478
18086746361
18086752403
18086759667
18086764610
18086770470
18086775658
18086780479
18086787376
18086792747
18086798851
18086804039
18086810692
18086816063
18086820640
18086825889
18086830650
18086835594
18086842613
18086848411
18086854332
18086860008
18086866356
18086872398
18086878258
18086884239
18086889366
18086895225
18086900657
18086907493
18086912315
18086917747
18086922935
18086930198
18086936790
18086942649
18086948448
18086954856
18086958824
18086965599
18086972373
18086977745
18086984214
18086991111
18086997093
18087001731
18087008201
18087013999
18087021385
18087028770
18087036460
18087042198
18087047752
18087054527
18087059959
18087066062
18087078025
18087087241
18087097678
18087108176
18087117942
18087126365
18087136680
18087147117
18087155601
18087164084
18087174766
18087186301
18087194602
18087203208
18087214316
18087223349
18087232688
18087242453
18087252951
18087260642
18087270041
18087278464
18087288169
18087298728
18087307273
18087315940
18087325583
18087334677
18087343283
18087351279
18087357504
18087367575
18087377280
18087385519
18087393942
18087403830
18087410788
18087420615
18087427817
18087437399
18087443991
18087453146
18087463095
18087472983
18087481283
18087487265
18087497641
18087505880
18087516073
18087524557
18087531881
18087539999
18087549337
18087557272
18087564718
18087574789
18087581198
18087591207
18087597738
18087608541
18087618246
18087626791
18087633322
18087643392
18087652242
18087659444
18087669698
18087677389
18087684652
18087694357
18087704122
18087710470
18087721212
18087729452
18087737386
18087745687
18087755819
18087763875
18087773275
18087781698
18087791097
18087799459
18087809224
18087818441
18087827535
18087837056
18087843221
18087853231
18087863179
18087873983
18087883138
18087892354
18087904439
18087914998
18087923055
18087933370
18087942891
18087952412
18087958821
18087968587
18087975056
18087987263
18087994649
18088005086
18088012715
18088020955
18088027425
18088036214
18088045125
18088051900
18088060444
18088070759
18088080525
18088087056
18088098103
18088112263
18088120930
18088129536
18088137349
18088145832
18088156636
18088163716
18088175007
18088181660
18088193379
18088202473
18088213154
18088221699
18088229572
18088238422
18088248737
18088256489
18088267414
18088274982
18088285786
18088296650
18088303730
18088314472
18088324177
18088332966
18088342365
18088351093
18088358295
18088368549
18088375629
18088388752
18088396686
18088405658
18088416095
18088425129
18088433429
18088442035
18088451618
18088460590
18088469318
18088480609
18088487628
18088498432
18088507465
18088515338
18088522601
18088533466
18088542194
18088550250
18088559528
18088569720
18088578754
18088586444
18088594196
18088604083
18088612323
18088621783
18088629718
18088639972
18088649676
18088656146
18088665973
18088675311
18088684100
18088693805
18088700274
18088705767
18088711627
18088717852
18088723162
18088730181
18088738482
18088744036
18088752276
18088767901
18088773638
18088778399
18088785357
18088792864
18088799700
18088805194
18088810992
18088817339
18088823321
18088830340
18088836504
18088842242
18088847613
18088852007
18088858477
18088864336
18088871233
18088876910
18088883318
18088889971
18088896624
18088901751
18088907610
18088913775
18088918169
18088924822
18088930620
18088937456
18088943255
18088948626
18088953875
18088961565
18088968401
18088973040
18088979082
18088985369
18088990740
18088995134
18089001970
18089008928
18089016375
18089022234
18089027605
18089032976
18089040117
18089046770
18089052751
18089059404
18089066240
18089072405
18089078386
18089084856
18089091692
18089099321
18089105669
18089111467
18089117449
18089124956
18089130937
18089137651
18089144060
18089154924
18089161394
18089168230
18089174638
18089179826
18089188676
18089196306
18089202837
18089209733
18089217241
18089222185
18089229692
18089236040
18089243120
18089249406
18089255327
18089261369
18089268388
18089273881
18089281389
18089288041
18089292924
18089301225
18089307817
18089313554
18089320146
18089325822
18089333757
18089342851
18089351274
18089360856
18089370256
18089377885
18089384721
18089391679
18089399064
18089405168
18089412736
18089418656
18089424943
18089432267
18089438004
18089443131
18089450761
18089458573
18089464921
18089469498
18089477677
18089482438
18089490678
18089496781
18089502518
18089509293
18089516495
18089522416
18089527970
18089533402
18089540055
18089546464
18089553727
18089559891
18089566300
18089572037
18089578446
18089584427
18089591752
18089597672
18089602921
18089610001
18089616898
18089622269
18089628006
18089634659
18089640213
18089647415
18089653031
18089659745
18089666153
18089670670
18089679276
18089685806
18089691849
18089698502
18089706375
18089713394
18089719132
18089724991
18089732926
18089739883
18089746353
18089752152
18089759415
18089765213
18089773270
18089780838
18089787064
18089794144
18089800735
18089810745
18089821304
18089828201
18089836868
18089841873
18089849869
18089857864
18089864395
18089871658
18089877884
18089883377
18089891189
18089897049
18089906021
18089913040
18089919998
18089926773
18089935806
18089943679
18089950820
18089957534
18089967666
18089975418
18089985000
18089991287
18090007400
18090015151
18090021865
18090026138
18090037429
18090041702
18090051589
18090059402
18090066604
18090072768
18090081802
18090090041
18090097671
18090105361
18090112380
18090119155
18090126845
18090136001
18090141738
18090149306
18090156692
18090163405
18090169997
18090175002
18090182448
18090190688
18090196242
18090201735
18090207473
18090214553
18090220473
18090227187
18090232924
18090238600
18090245070
18090250136
18090256667
18090261489
18090268141
18090272780
18090279494
18090287062
18090293349
18090299086
18090305312
18090310866
18090315749
18090323134
18090329665
18090335280
18090341139
18090347731
18090352492
18090359023
18090364027
18090370558
18090377028
18090381483
18090387770
18090394362
18090400893
18090407423
18090413161
18090419020
18090425917
18090431166
18090437025
18090442518
18090449171
18090455092
18090460951
18090466139
18090471266
18090477614
18090482130
18090488356
18090493727
18090500929
18090506971
18090511122
18090518324
18090523024
18090529493
18090533949
18090540785
18090545912
18090551954
18090557691
18090565809
18090576063
18090583814
18090592359
18090598829
18090604994
18090610365
18090616834
18090621656
18090628248
18090638563
18090643629
18090651502
18090657301
18090663770
18090670789
18090678175
18090685743
18090690626
18090696912
18090703321
18090708021
18090716077
18090722791
18090729444
18090734876
18090741956
18090747449
18090755018
18090761426
18090767652
18090773877
18090779065
18090787854
18090791150
18090801038
18090806592
18090812818
18090819837
18090825940
18090831556
18090838941
18090844129
18090850904
18090855908
18090863355
18090870008
18090875440
18090883069
18090887891
18090894788
18090902478
18090909070
18090915173
18090921216
18090927564
18090935559
18090940503
18090948254
18090954419
18090961743
18090966382
18090973462
18090978833
18090986706
18090993542
18090999036
18091006238
18091014477
18091020581
18091026562
18091034131
18091040173
18091046277
18091052075
18091059582
18091066174
18091071057
18091077160
18091084424
18091091748
18091097119
18091104504
18091111645
18091117932
18091124279
18091132580
18091138928
18091144604
18091151684
18091162731
18091183361
18091190075
18091196423
18091203076
18091209911
18091216808
18091223095
18091228405
18091235912
18091241039
18091248669
18091255505
18091261547
18091268261
18091275585
18091280163
18091287731
18091294262
18091301769
18091308239
18091314831
18091320812
18091326000
18091331920
18091339000
18091345226
18091353222
18091358654
18091366100
18091372081
18091378917
18091385753
18091392711
18091401989
18091407543
18091416027
18091422863
18091429821
18091437877
18091445568
18091452098
18091460765
18091468456
18091476085
18091483714
18091492076
18091499523
18091504588
18091512096
18091519969
18091526866
18091534984
18091542430
18091549815
18091559764
18091565379
18091575572
18091581615
18091590648
18091596934
18091605907
18091614635
18091622874
18091630504
18091637584
18091646068
18091654918
18091662913
18091672252
18091679759
18091687571
18091693675
18091702952
18091712535
18091719249
18091727061
18091736033
18091743235
18091751902
18091759837
18091768687
18091777781
18091782908
18091791941
18091798716
18091806468
18091814829
18091821299
18091827525
18091833079
18091840281
18091847422
18091853587
18091861338
18091869639
18091878672
18091885508
18091892039
18091896616
18091903635
18091911021
18091917063
18091923655
18091930979
18091936472
18091942454
18091949473
18091956492
18091961802
18091968760
18091974924
18091981943
18091989023
18091995859
18092001780
18092007944
18092014048
18092020700
18092028147
18092034677
18092040354
18092044931
18092051401
18092056894
18092064951
18092070444
18092076547
18092082041
18092088144
18092094248
18092099558
18092107614
18092114084
18092119943
18092125925
18092132272
18092137766
18092143320
18092149484
18092156259
18092162851
18092169260
18092174387
18092179819
18092186410
18092191782
18092199411
18092204660
18092210824
18092216196
18092222665
18092229501
18092236581
18092240976
18092249521
18092254281
18092261056
18092266732
18092273996
18092281686
18092287484
18092292855
18092299813
18092306161
18092312143
18092320321
18092325753
18092331430
18092338754
18092344674
18092351571
18092359139
18092368600
18092375009
18092381356
18092389901
18092395944
18092403024
18092409860
18092417611
18092436532
18092445504
18092454720
18092461800
18092467294
18092476205
18092482980
18092489510
18092495248
18092503426
18092507943
18092516671
18092524361
18092531258
18092536568
18092544076
18092550789
18092557015
18092564644
18092570565
18092578377
18092584420
18092589974
18092597115
18092604378
18092610176
18092620003
18092626473
18092635079
18092643135
18092652901
18092661446
18092667488
18092677437
18092686836
18092695992
18092703499
18092710274
18092717903
18092725288
18092734566
18092742073
18092750862
18092757759
18092765572
18092771614
18092777168
18092783028
18092789802
18092797554
18092803779
18092813484
18092819404
18092828621
18092835518
18092842476
18092850166
18092856636
18092862617
18092869636
18092875618
18092882270
18092889961
18092897163
18092904182
18092909919
18092917366
18092922187
18092930122
18092936347
18092943672
18092949409
18092956977
18092964118
18092969612
18092978217
18092983467
18092991096
18093000190
18093006660
18093012580
18093019111
18093026923
18093033271
18093039680
18093046760
18093054694
18093074287
18093090461
18093104133
18093117255
18093123847
18093130500
18093136664
18093143134
18093150092
18093157416
18093164069
18093171454
18093178107
18093185004
18093191413
18093197516
18093203803
18093210150
18093217902
18093221259
18093231147
18093238654
18093245185
18093252265
18093260138
18093267584
18093277411
18093284186
18093291510
18093299445
18093307257
18093314276
18093319952
18093328558
18093336005
18093341925
18093349799
18093358160
18093365912
18093373602
18093380987
18093387091
18093396673
18093403082
18093409308
18093418951
18093426642
18093434088
18093441351
18093449774
18093458746
18093467169
18093474371
18093481695
18093487188
18093496527
18093503424
18093509710
18093515631
18093523077
18093529913
18093535772
18093542974
18093548590
18093555242
18093560736
18093568304
18093573370
18093580633
18093587408
18093593145
18093597967
18093605413
18093611211
18093621099
18093631292
18093639227
18093647771
18093653753
18093663030
18093673955
18093683477
18093692083
18093700628
18093708013
18093717168
18093722906
18093729558
18093736150
18093741399
18093748601
18093754827
18093760564
18093766668
18093774175
18093780278
18093787358
18093795293
18093801519
18093809087
18093816533
18093822026
18093827458
18093833928
18093838811
18093844243
18093848577
18093857060
18093862187
18093869512
18093875615
18093880803
18093887639
18093892583
18093898015
18093904363
18093909795
18093916570
18093923406
18093927983
18093934209
18093940007
18093947392
18093953923
18093960149
18093966374
18093972111
18093979191
18093985966
18093991460
18093997990
18094002751
18094011052
18094016972
18094021672
18094030034
18094035039
18094042973
18094049138
18094054936
18094062016
18094068608
18094075444
18094082158
18094088993
18094096806
18094103093
18094110966
18094116825
18094124699
18094130375
18094138249
18094144963
18094152775
18094159184
18094167546
18094173344
18094181400
18094189335
18094194767
18094202702
18094207645
18094214359
18094223209
18094229618
18094236210
18094244083
18094249149
18094257084
18094262638
18094268925
18094275822
18094282108
18094289493
18094295353
18094302860
18094308658
18094316410
18094323795
18094329532
18094336796
18094342167
18094349735
18094355594
18094362980
18094368595
18094376102
18094382755
18094390628
18094396732
18094403446
18094410343
18094416324
18094425968
18094430179
18094441593
18094449344
18094455203
18094461002
18094468814
18094474918
18094482730
18094489322
18094496585
18094501285
18094508609
18094514163
18094521610
18094527835
18094536014
18094543399
18094550723
18094557010
18094563724
18094570560
18094575992
18094584109
18094591495
18094598025
18094606082
18094612308
18094618838
18094627017
18094634890
18094642581
18094648868
18094656314
18094662906
18094667910
18094674075
18094681582
18094688845
18094695864
18094702151
18094709719
18094715823
18094721743
18094728091
18094733645
18094742068
18094750186
18094758853
18094766116
18094772341
18094779788
18094786807
18094795229
18094802676
18094810976
18094818667
18094824526
18094834597
18094840945
18094848330
18094855776
18094863283
18094870180
18094879641
18094886111
18094894167
18094901858
18094909731
18094916018
18094925966
18094933108
18094940981
18094948488
18094956362
18094964174
18094971376
18094982241
18094989504
18094997866
18095005922
18095016054
18095023561
18095031923
18095039125
18095047243
18095053713
18095062624
18095071840
18095078371
18095087709
18095093446
18095102907
18095111452
18095119142
18095125795
18095136171
18095144655
18095158205
18095168520
18095178773
18095188173
18095193422
18095204225
18095212770
18095219423
18095228639
18095236940
18095242555
18095250062
18095257509
18095263856
18095273011
18095280824
18095285768
18095292421
18095298707
18095304689
18095311647
18095317506
18095324403
18095330323
18095335084
18095342103
18095349488
18095355348
18095360902
18095368165
18095374268
18095382081
18095388734
18095394471
18095401429
18095407349
18095414002
18095420777
18095426148
18095433350
18095438477
18095445008
18095452271
18095457947
18095465882
18095472169
18095477418
18095483704
18095490357
18095496522
18095502381
18095509095
18095514771
18095522095
18095528382
18095535340
18095539917
18095545899
18095551636
18095557679
18095565186
18095570618
18095577149
18095582398
18095588868
18095593018
18095599976
18095606507
18095612305
18095618836
18095624390
18095629578
18095637085
18095644531
18095649903
18095655762
18095662659
18095667420
18095674683
18095679382
18095687805
18095694885
18095699585
18095706970
18095713318
18095718994
18095725037
18095732300
18095737793
18095744690
18095751709
18095757568
18095763611
18095771912
18095778747
18095786072
18095792908
18095801208
18095807190
18095812500
18095819641
18095825744
18095833191
18095839172
18095846496
18095854126
18095860656
18095865600
18095872924
18095878906
18095886230
18095894226
18095899536
18095907165
18095915100
18095921875
18095927246
18095936096
18095942077
18095950866
18095956970
18095963439
18095969848
18095976135
18095984008
18095990844
18095997070
18096005248
18096010986
18096019408
18096025451
18096033874
18096040832
18096047057
18096054809
18096060729
18096067748
18096073546
18096080321
18096087523
18096092284
18096099730
18096106017
18096113708
18096120666
18096125426
18096133239
18096140075
18096146361
18096153685
18096159850
18096167235
18096173827
18096180419
18096186950
18096194701
18096201171
18096209227
18096215758
18096222167
18096229064
18096236266
18096244689
18096249510
18096258971
18096264159
18096271849
18096278746
18096284850
18096291319
18096298827
18096304503
18096312621
18096319762
18096324828
18096332579
18096338988
18096345702
18096350645
18096358702
18096363707
18096372374
18096379027
18096385802
18096391295
18096400023
18096406920
18096413817
18096420958
18096427916
18096436094
18096445311
18096455076
18096464903
18096472166
18096478331
18096486021
18096491636
18096499449
18096505430
18096512449
18096518186
18096524534
18096531858
18096537901
18096545225
18096550840
18096556516
18096563108
18096571653
18096578794
18096587888
18096596433
18096602659
18096609800
18096618711
18096625120
18096634153
18096641233
18096648130
18096655759
18096662534
18096669248
18096678586
18096684202
18096691587
18096699155
18096706968
18096716001
18096723203
18096731138
18096738889
18096746152
18096754880
18096759153
18096769223
18096777585
18096786374
18096793332
18096800779
18096810422
18096816587
18096825925
18096831784
18096840085
18096848447
18096856442
18096864682
18096872739
18096877133
18096888730
18096895322
18096904416
18096913876
18096922360
18096928647
18096936276
18096943906
18096950680
18096961301
18096967953
18096977902
18096984433
18096991879
18096998654
18097005612
18097012814
18097020382
18097028317
18097034970
18097041867
18097047116
18097053830
18097060910
18097065609
18097072201
18097079342
18097086483
18097092404
18097097897
18097105099
18097110409
18097117428
18097122982
18097130184
18097137142
18097142208
18097149594
18097157223
18097164608
18097172054
18097179501
18097188412
18097196102
18097202450
18097209164
18097214657
18097221920
18097228085
18097235775
18097243587
18097250057
18097256893
18097262386
18097269344
18097275143
18097280636
18097287227
18097293392
18097299251
18097305233
18097311886
18097317806
18097323360
18097328487
18097335079
18097341366
18097347225
18097352901
18097357357
18097364193
18097370784
18097377742
18097383052
18097387447
18097395320
18097401119
18097406978
18097413997
18097419063
18097425350
18097431575
18097435787
18097442500
18097449703
18097456722
18097462947
18097470699
18097476253
18097483455
18097488460
18097495296
18097501949
18097506770
18097514278
18097520930
18097525508
18097536861
18097542720
18097550532
18097555537
18097565608
18097571406
18097578792
18097584102
18097591243
18097598384
18097605525
18097612483
18097617854
18097626704
18097631648
18097640010
18097645137
18097652766
18097657954
18097665522
18097670955
18097680598
18097687312
18097694087
18097701777
18097708735
18097714533
18097722956
18097728388
18097736262
18097742488
18097748286
18097755366
18097761103
18097766902
18097776484
18097783625
18097789301
18097811030
18097818232
18097825007
18097832148
18097840266
18097845759
18097854121
18097859675
18097868037
18097873957
18097880610
18097888972
18097895197
18097902399
18097910273
18097917170
18097922785
18097929560
18097937372
18097944574
18097951471
18097956537
18097964411
18097972406
18097979547
18097986261
18097993708
18097999872
18098004755
18098013422
18098019892
18098026422
18098033563
18098039179
18098045648
18098053278
18098059381
18098066828
18098073602
18098080377
18098086237
18098093378
18098099786
18098105280
18098112848
18098119562
18098125604
18098132867
18098141290
18098147882
18098154108
18098160394
18098166803
18098176935
18098182855
18098191278
18098200250
18098208612
18098215875
18098225641
18098233087
18098240716
18098248224
18098256097
18098265252
18098272638
18098280023
18098289605
18098297662
18098305108
18098314447
18098323541
18098333062
18098338128
18098346734
18098352227
18098361688
18098368157
18098375482
18098384026
18098391229
18098397942
18098405083
18098414117
18098419488
18098429314
18098436028
18098442925
18098449944
18098459038
18098465874
18098473931
18098480462
18098488579
18098497735
18098506524
18098528801
18098534844
18098542656
18098548638
18098554619
18098563103
18098570610
18098579155
18098585869
18098592583
18098599297
18098609185
18098616753
18098623650
18098630730
18098638603
18098647698
18098655205
18098661186
18098668572
18098674431
18098683769
18098692375
18098699760
18098706474
18098714165
18098722038
18098728935
18098734550
18098740959
18098748100
18098754021
18098760429
18098766350
18098773002
18098778923
18098785576
18098791740
18098797294
18098804619
18098810051
18098815971
18098821525
18098828972
18098833732
18098841179
18098846122
18098853447
18098858268
18098865654
18098871391
18098878349
18098884208
18098889579
18098897758
18098903190
18098909660
18098916801
18098922538
18098928703
18098937126
18098945243
18098950004
18098957267
18098963798
18098969840
18098975028
18098981742
18098988151
18098994621
18098999320
18099005241
18099011161
18099017753
18099023551
18099029533
18099036368
18099041495
18099047538
18099054496
18099058707
18099065299
18099070975
18099077811
18099082694
18099089591
18099095023
18099101249
18099108085
18099113456
18099118827
18099125541
18099132071
18099139090
18099147208
18099153800
18099159720
18099166129
18099172782
18099178275
18099184989
18099192130
18099196952
18099205496
18099212210
18099217887
18099225150
18099230460
18099236502
18099243521
18099250174
18099257681
18099263602
18099269766
18099275565
18099282645
18099289053
18099294119
18099302237
18099308585
18099318106
18099326163
18099332693
18099339102
18099347159
18099353079
18099360342
18099367178
18099374991
18099382620
18099389639
18099396475
18099403494
18099410025
18099415213
18099422903
18099429983
18099436392
18099441824
18099448172
18099455557
18099462393
18099471182
18099479361
18099489248
18099501638
18099510122
18099518911
18099530203
18099537588
18099544058
18099549917
18099558218
18099563833
18099571951
18099579092
18099586721
18099592458
18099599905
18099606069
18099613210
18099618642
18099625722
18099631094
18099639272
18099646230
18099651357
18099659719
18099666616
18099672964
18099679983
18099686269
18099694143
18099699941
18099706960
18099712697
18099720388
18099725820
18099732778
18099738759
18099747182
18099752309
18099760793
18099765859
18099773000
18099780873
18099787648
18099796804
18099803639
18099812245
18099818654
18099825124
18099832448
18099839101
18099844716
18099850820
18099858388
18099865834
18099872487
18099878774
18099883962
18099891774
18099900685
18099906789
18099911793
18099919301
18099924977
18099931020
18099937855
18099943898
18099952748
18099958363
18099963368
18099971120
18099977406
18099985646
18099993641
18100001149
18100008717
18100017750
18100023854
18100032582
18100037770
18100045887
18100053028
18100059803
18100068104
18100074940
18100082630
18100089405
18100096791
18100102894
18100106678
18100118580
18100126270
18100135548
18100140675
18100149830
18100155811
18100162891
18100169849
18100177662
18100186573
18100194752
18100201771
18100209278
18100217213
18100223072
18100231617
18100239735
18100246448
18100253773
18100263477
18100269337
18100278187
18100284412
18100291431
18100300647
18100308826
18100317249
18100326770
18100334156
18100340992
18100348438
18100355701
18100362720
18100371448
18100380786
18100388965
18100396411
18100404041
18100411670
18100419300
18100424915
18100432849
18100439258
18100448291
18100456104
18100462940
18100470142
18100476123
18100480884
18100487598
18100494983
18100500842
18100506457
18100515308
18100520984
18100529407
18100536365
18100542956
18100550952
18100557056
18100563891
18100568591
18100575244
18100581470
18100587024
18100593432
18100600573
18100604907
18100611743
18100616137
18100622973
18100628466
18100633777
18100640734
18100647754
18100652819
18100659350
18100665576
18100671435
18100677844
18100682849
18100690234
18100696948
18100702380
18100707019
18100713427
18100718188
18100723681
18100731738
18100737841
18100742419
18100748522
18100754260
18100759509
18100763903
18100775622
18100781237
18100786059
18100792590
18100797289
18100803820
18100808947
18100815173
18100822069
18100828722
18100834338
18100840380
18100845507
18100850695
18100857653
18100862414
18100868822
18100873827
18100880236
18100885241
18100891466
18100897265
18100904039
18100911547
18100916552
18100923204
18100927477
18100934374
18100941088
18100946825
18100954760
18100959887
18100966845
18100971849
