18275031890
18275038237
18275042266
18275048247
18275053130
18275058379
18275064360
18275069975
18275074858
18275079436
18275084624
18275089018
18275095549
18275100676
18275107024
18275113127
18275118987
18275124785
18275130461
18275135527
18275141447
18275147185
18275151335
18275157683
18275163908
18275169096
18275177580
18275183195
18275188994
18275196196
18275201811
18275208220
18275215849
18275222990
18275230925
18275238798
18275247587
18275254179
18275263273
18275272978
18275281950
18275290251
18275299467
18275306547
18275314360
18275323149
18275329313
18275335417
18275345243
18275352568
18275359525
18275367155
18275373503
18275381254
18275387968
18275395536
18275402860
18275410673
18275416898
18275425260
18275432401
18275437894
18275445829
18275450285
18275462369
18275469511
18275475980
18275485258
18275493009
18275501493
18275510282
18275517057
18275526395
18275532865
18275539884
18275547880
18275556974
18275561795
18275570523
18275579251
18275586942
18275596463
18275601651
18275611966
18275619351
18275628690
18275637418
18275641995
18275650723
18275658841
18275666837
18275673673
18275681729
18275689176
18275696256
18275703641
18275709988
18275718350
18275724698
18275730313
18275736844
18275747281
18275756619
18275762723
18275772061
18275776944
18275787320
18275797696
18275803921
18275814725
18275823391
18275830349
18275839749
18275848050
18275856717
18275863308
18275871060
18275879727
18275885891
18275894619
18275902554
18275910183
18275920071
18275931423
18275945095
18275953701
18275962979
18275970120
18275982693
18275992336
18276000759
18276010708
18276020107
18276027187
18276037136
18276044216
18276053310
18276060635
18276068447
18276077053
18276085415
18276095486
18276102382
18276111782
18276123989
18276130886
18276141018
18276150051
18276157680
18276165493
18276173244
18276183376
18276190090
18276199001
18276205715
18276216335
18276224575
18276232265
18276240932
18276248866
18276258022
18276266384
18276273708
18276281337
18276288844
18276300136
18276305934
18276314784
18276320522
18276327907
18276333583
18276342128
18276348476
18276357753
18276364345
18276371974
18276378505
18276386439
18276393153
18276400294
18276409450
18276416774
18276422816
18276429774
18276435939
18276443507
18276449611
18276457301
18276463466
18276472255
18276476710
18276485133
18276489894
18276500453
18276505091
18276515834
18276520533
18276531031
18276538905
18276546351
18276552638
18276560450
18276566676
18276574366
18276583827
18276590357
18276598109
18276606043
18276612330
18276617762
18276631129
18276642725
18276650843
18276660181
18276669520
18276678187
18276688502
18276697535
18276707117
18276714808
18276721644
18276727137
18276734766
18276742762
18276750147
18276758387
18276765711
18276771936
18276779200
18276785303
18276792566
18276802088
18276809473
18276814051
18276823084
18276827600
18276838648
18276842981
18276853784
18276858179
18276868189
18276874353
18276881494
18276887415
18276896509
18276902857
18276911829
18276917688
18276924036
18276932703
18276937402
18276946558
18276953088
18276960657
18276969873
18276977991
18276986108
18276993982
18277000574
18277008142
18277015710
18277023401
18277030969
18277035852
18277043725
18277049890
18277057824
18277064782
18277071862
18277079431
18277086633
18277093408
18277099694
18277105798
18277113916
18277120996
18277127038
18277134667
18277140771
18277147912
18277155114
18277161523
18277168908
18277175439
18277183373
18277193017
18277200097
18277206323
18277213525
18277222619
18277229089
18277236962
18277245202
18277252465
18277258996
18277266930
18277272851
18277281579
18277286523
18277298302
18277307580
18277313622
18277323082
18277332421
18277341088
18277349816
18277356713
18277365868
18277374291
18277384179
18277392907
18277399254
18277408654
18277413414
18277423912
18277428551
18277439781
18277446434
18277454552
18277462364
18277470299
18277481285
18277488304
18277493370
18277501610
18277507103
18277515038
18277519066
18277530174
18277538048
18277543785
18277551170
18277558739
18277566978
18277573082
18277579857
18277586876
18277592430
18277600120
18277606346
18277612633
18277621177
18277626487
18277633384
18277640220
18277646873
18277652671
18277661827
18277666038
18277674461
18277680259
18277686851
18277694358
18277699363
18277706871
18277714195
18277720298
18277727256
18277733909
18277739463
18277747398
18277755210
18277763450
18277769065
18277780052
18277786155
18277794822
18277799155
18277809531
18277814109
18277823936
18277830650
18277839439
18277847129
18277854148
18277861167
18277868125
18277876243
18277882896
18277888511
18277896934
18277903098
18277911643
18277920432
18277926963
18277934592
18277942527
18277948325
18277956931
18277964499
18277971701
18277978110
18277985801
18277993491
18278002280
18278012351
18278023703
18278035422
18278044821
18278052207
18278063986
18278072287
18278077353
18278088339
18278095602
18278101950
18278110190
18278117026
18278121481
18278133261
18278137717
18278148947
18278157126
18278163534
18278170248
18278179892
18278184530
18278194052
18278201803
18278209372
18278216208
18278225241
18278231649
18278238791
18278247213
18278254049
18278262960
18278271078
18278277975
18278285604
18278294393
18278299887
18278307760
18278315573
18278323385
18278332296
18278339926
18278346273
18278353903
18278360433
18278368551
18278373007
18278383199
18278391256
18278398824
18278403524
18278413534
18278418111
18278428426
18278433309
18278442464
18278449239
18278458456
18278465169
18278473653
18278480123
18278488119
18278495260
18278505758
18278513204
18278519979
18278529134
18278536702
18278543294
18278552510
18278561177
18278567586
18278575948
18278581807
18278594014
18278599202
18278609761
18278618001
18278624837
18278632039
18278640828
18278647359
18278659139
18278666707
18278674458
18278680745
18278689107
18278698079
18278704854
18278711324
18278725240
18278734517
18278740926
18278750081
18278756245
18278761861
18278773518
18278778706
18278789631
18278798726
18278808369
18278814290
18278824910
18278829976
18278839680
18278844441
18278853047
18278861164
18278866475
18278876057
18278881672
18278889119
18278895588
18278904194
18278907978
18278916096
18278922016
18278929280
18278933125
18278940998
18278947651
18278953938
18278960224
18278966328
18278972675
18278978779
18278984943
18278991108
18278997517
18279003742
18279010456
18279016987
18279023701
18279030781
18279037006
18279044147
18279049518
18279056232
18279063190
18279069111
18279075519
18279081867
18279087665
18279093708
18279099384
18279105182
18279110981
18279118000
18279122333
18279128681
18279135212
18279141987
18279146686
18279152973
18279158466
18279164386
18279170368
18279175983
18279181964
18279187763
18279194049
18279199665
18279205646
18279211750
18279217121
18279223895
18279231098
18279236896
18279242572
18279248248
18279253864
18279259723
18279265399
18279280536
18279288837
18279298297
18279306293
18279313739
18279321613
18279328632
18279334430
18279340594
18279346820
18279352923
18279359393
18279366046
18279372516
18279378009
18279384723
18279391131
18279396808
18279404132
18279413836
18279419635
18279426776
18279435077
18279440753
18279449176
18279459369
18279465289
18279474505
18279481280
18279487384
18279494281
18279500567
18279506549
18279513690
18279519732
18279526507
18279532672
18279537921
18279545123
18279551898
18279558917
18279562823
18279571307
18279577715
18279583819
18279591692
18279596758
18279604327
18279609087
18279615740
18279622759
18279628313
18279635760
18279643267
18279649554
18279655840
18279662554
18279667925
18279676226
18279681536
18279689715
18279695208
18279702105
18279707476
18279714312
18279720110
18279727556
18279736040
18279742144
18279748247
18279754534
18279761614
18279767107
18279774187
18279781511
18279787493
18279794512
18279800066
18279805254
18279813616
18279820574
18279826677
18279832170
18279838640
18279847124
18279853777
18279861162
18279866289
18279873003
18279878496
18279886125
18279894060
18279902971
18279910783
18279916887
18279924394
18279930070
18279937456
18279941301
18279951616
18279958086
18279962907
18279969011
18279975175
18279981279
18279988481
18279995927
18280001054
18280009477
18280020219
18280029069
18280036943
18280045182
18280056169
18280062577
18280072282
18280077470
18280085649
18280093949
18280098649
18280105180
18280111711
18280119218
18280126115
18280133500
18280140885
18280147660
18280153031
18280159806
18280167008
18280172196
18280179459
18280186234
18280194047
18280200883
18280207352
18280212601
18280220780
18280227860
18280234208
18280240983
18280249039
18280254838
18280262528
18280269608
18280277909
18280282303
18280292313
18280299149
18280306229
18280313431
18280320023
18280328263
18280332596
18280342057
18280349930
18280357499
18280366043
18280372940
18280381607
18280388382
18280398209
18280403153
18280413590
18280421341
18280426773
18280434525
18280439408
18280445755
18280452835
18280459427
18280464554
18280471756
18280477432
18280483292
18280486954
18280494339
18280501602
18280507339
18280512894
18280518936
18280525650
18280530167
18280536575
18280543350
18280550186
18280553787
18280561355
18280567459
18280573685
18280579483
18280586136
18280591934
18280597671
18280604141
18280608841
18280615493
18280621780
18280627334
18280636245
18280643264
18280650955
18280657730
18280663040
18280668167
18280676590
18280685379
18280692031
18280699172
18280704544
18280710769
18280717239
18280722244
18280728835
18280734573
18280739883
18280745437
18280751663
18280756790
18280762710
18280770950
18280775588
18280780959
18280785476
18280792556
18280799270
18280804702
18280810928
18280815444
18280822707
18280828933
18280833999
18280840163
18280846877
18280852798
18280858535
18280865127
18280870193
18280877395
18280882216
18280888503
18280895583
18280901137
18280906936
18280913405
18280919631
18280923964
18280930678
18280937270
18280944106
18280948073
18280955703
18280961745
18280967360
18280973464
18280979567
18280986281
18280991652
18280998732
18281004592
18281011977
18281017348
18281024428
18281029799
18281037428
18281043715
18281050429
18281058913
18281064101
18281070937
18281077223
18281084547
18281091444
18281098097
18281105544
18281111159
18281117751
18281122755
18281129835
18281136854
18281143751
18281149672
18281155409
18281164015
18281167860
18281175856
18281183790
18281189100
18281195875
18281203016
18281214003
18281221754
18281227736
18281236525
18281245008
18281252333
18281258314
18281266981
18281273085
18281278761
18281284742
18281293043
18281299208
18281305494
18281311292
18281319776
18281323805
18281332533
18281339430
18281346143
18281349928
18281359937
18281367811
18281374769
18281380262
18281387220
18281395277
18281402235
18281409193
18281415662
18281421766
18281428052
18281433668
18281440198
18281448255
18281453443
18281460584
18281467786
18281474927
18281482190
18281488233
18281495618
18281502332
18281509656
18281516126
18281521741
18281529371
18281534864
18281540967
18281548108
18281555249
18281560743
18281568372
18281574720
18281581983
18281586011
18281594800
18281601819
18281608533
18281615247
18281622205
18281626233
18281635571
18281642713
18281649609
18281657910
18281664441
18281672070
18281677991
18281685742
18281691052
18281698315
18281705701
18281714734
18281722058
18281729016
18281736096
18281742871
18281749524
18281756421
18281763196
18281769726
18281777051
18281782116
18281790295
18281795727
18281803906
18281809582
18281817944
18281826489
18281834912
18281841687
18281851269
18281858776
18281864270
18281869335
18281884045
18281897595
18281905346
18281913281
18281919995
18281927136
18281934521
18281943859
18281950329
18281958141
18281962292
18281970532
18281974255
18281983593
18281987499
18281997570
18282004223
18282010693
18282017467
18282023937
18282030224
18282036632
18282045177
18282050670
18282058422
18282065258
18282071605
18282078380
18282084484
18282091564
18282097240
18282104442
18282110485
18282117199
18282122997
18282128368
18282135692
18282141552
18282149608
18282155468
18282161205
18282166698
18282174266
18282179760
18282187023
18282192577
18282201915
18282207347
18282213573
18282219676
18282226024
18282232433
18282237071
18282244396
18282251231
18282256236
18282262340
18282269420
18282274181
18282281627
18282288707
18282294810
18282301524
18282307506
18282312511
18282320018
18282323558
18282331004
18282338206
18282344371
18282350352
18282356273
18282362010
18282367686
18282373729
18282380748
18282388133
18282394542
18282400706
18282406993
18282411448
18282418712
18282423961
18282431224
18282434764
18282442332
18282445689
18282453624
18282460093
18282465525
18282472239
18282478404
18282483348
18282488719
18282497813
18282504405
18282511180
18282520213
18282527476
18282534678
18282538279
18282546702
18282553843
18282560069
18282568675
18282573191
18282581492
18282586375
18282595164
18282601084
18282609629
18282615122
18282622141
18282627878
18282633860
18282640208
18282646372
18282653940
18282660166
18282668345
18282673227
18282681223
18282686777
18282693796
18282700632
18282706186
18282713389
18282720896
18282726755
18282733896
18282740000
18282748362
18282754831
18282761484
18282768076
18282774485
18282780588
18282786997
18282793772
18282800241
18282806894
18282813303
18282820261
18282826669
18282832834
18282839487
18282846384
18282853037
18282859689
18282867075
18282873483
18282880563
18282887155
18282892892
18282900705
18282906442
18282914194
18282920541
18282929208
18282933359
18282941781
18282947580
18282955331
18282961008
18282969186
18282976449
18282982980
18282989877
18282996530
18283003366
18283010080
18283016610
18283023324
18283030282
18283036752
18283043283
18283047982
18283056649
18283062204
18283069100
18283074777
18283083810
18283090097
18283096139
18283102365
18283109139
18283114755
18283122384
18283129037
18283135690
18283143075
18283151132
18283159005
18283165048
18283175484
18283182504
18283189767
18283195504
18283202584
18283209176
18283216195
18283222665
18283229989
18283237069
18283242745
18283249459
18283254952
18283262215
18283267769
18283275399
18283281075
18283290047
18283294014
18283302498
18283308785
18283315194
18283319039
18283327462
18283335579
18283342659
18283349861
18283356758
18283363716
18283370552
18283377205
18283384651
18283391426
18283398506
18283405586
18283412972
18283420357
18283427986
18283435738
18283441353
18283449288
18283456307
18283463631
18283470772
18283477608
18283482979
18283491890
18283498238
18283507759
18283513557
18283523079
18283529426
18283537788
18283545601
18283552559
18283560249
18283567085
18283575081
18283583626
18283589851
18283597725
18283605598
18283610237
18283621101
18283625923
18283636482
18283643196
18283651741
18283658882
18283666572
18283673774
18283683052
18283689460
18283701789
18283706611
18283718513
18283723152
18283732612
18283740180
18283747260
18283755073
18283761726
18283765815
18283773750
18283780463
18283787666
18283794440
18283800971
18283808723
18283813361
18283819770
18283826179
18283833930
18283841254
18283847907
18283852851
18283860847
18283868354
18283874152
18283881598
18283887214
18283894843
18283900824
18283907843
18283916022
18283919867
18283927497
18283932807
18283940497
18283944342
18283952094
18283960395
18283966681
18283972724
18283978705
18283984442
18283990607
18283996466
18284002204
18284009101
18284013434
18284020270
18284026495
18284031561
18284037909
18284043524
18284049750
18284055365
18284060187
18284067633
18284072943
18284079962
18284085333
18284091071
18284098090
18284103888
18284110541
18284115301
18284122443
18284126654
18284133734
18284138067
18284146246
18284151068
18284156683
18284162787
18284168097
18284174933
18284180487
18284186957
18284192938
18284196478
18284204474
18284210150
18284215887
18284221685
18284227728
18284235785
18284242132
18284260199
18284265203
18284271795
18284279058
18284286199
18284289862
18284298345
18284301763
18284309881
18284316168
18284321966
18284329290
18284335516
18284341009
18284347295
18284353094
18284358465
18284365911
18284371465
18284379034
18284385259
18284391973
18284395879
18284403753
18284409246
18284417119
18284424444
18284433355
18284440252
18284448247
18284455877
18284462102
18284473821
18284482366
18284489690
18284496221
18284500127
18284509649
18284517156
18284524053
18284528630
18284536443
18284542974
18284549321
18284557195
18284565496
18284575505
18284583257
18284589604
18284597844
18284604314
18284611455
18284618169
18284626103
18284631230
18284640141
18284646123
18284652959
18284658391
18284665288
18284672307
18284679021
18284685307
18284693303
18284700017
18284705449
18284711430
18284720219
18284727177
18284732731
18284740971
18284747075
18284752080
18284758122
18284764470
18284769291
18284776372
18284783513
18284790898
18284798100
18284803654
18284810551
18284817509
18284824589
18284830693
18284837345
18284844487
18284849858
18284856022
18284862675
18284868901
18284875431
18284880863
18284887150
18284894657
18284899601
18284907475
18284912846
18284919377
18284926273
18284933048
18284941044
18284946354
18284951298
18284959049
18284964848
18284971867
18284977848
18284984013
18284991947
18284997623
18285005009
18285011784
18285018009
18285025333
18285031559
18285037662
18285043217
18285049503
18285054874
18285061100
18285067875
18285077152
18285082828
18285091983
18285101017
18285106998
18285113956
18285121280
18285129337
18285136051
18285142704
18285148075
18285156070
18285162174
18285168216
18285173526
18285179630
18285184940
18285191104
18285198123
18285204288
18285209293
18285215579
18285221988
18285228214
18285233035
18285239078
18285245792
18285250430
18285256412
18285263126
18285270084
18285276187
18285283450
18285289310
18285298465
18285305118
18285313113
18285318851
18285329043
18285336368
18285341617
18285350589
18285355227
18285363589
18285370669
18285378970
18285385440
18285393252
18285399600
18285406558
18285413516
18285421511
18285426822
18285433657
18285438723
18285444766
18285449832
18285455752
18285460940
18285468447
18285472048
18285478762
18285483828
18285490420
18285496096
18285500552
18285505496
18285511965
18285517458
18285523684
18285527407
18285534182
18285539553
18285546877
18285550600
18285558596
18285562380
18285570925
18285574587
18285582095
18285587893
18285593996
18285603640
18285609804
18285615298
18285621157
18285627505
18285632021
18285637453
18285643313
18285648867
18285656191
18285661928
18285668215
18285674074
18285678591
18285684633
18285689577
18285696718
18285703981
18285710390
18285716127
18285720766
18285727297
18285733950
18285741457
18285747560
18285753847
18285758974
18285765383
18285770388
18285777223
18285783327
18285789491
18285795900
18285802065
18285807131
18285812807
18285818056
18285823305
18285830568
18285837221
18285843446
18285848390
18285854250
18285861635
18285868410
18285872133
18285880678
18285886842
18285892885
18285898683
18285904298
18285909975
18285915529
18285923402
18285929750
18285935304
18285939943
18285946473
18285951234
18285958070
18285963991
18285971864
18285977052
18285983033
18285988893
18285995363
18286002626
18286009034
18286016786
18286022584
18286029664
18286035157
18286042726
18286048280
18286056031
18286062196
18286068910
18286074159
18286080445
18286085816
18286093568
18286097535
18286105592
18286109498
18286118165
18286122621
18286131593
18286139222
18286145020
18286148866
18286159669
18286167420
18286172181
18286178284
18286184632
18286190736
18286196961
18286202576
18286207276
18286213990
18286220826
18286226258
18286231141
18286239075
18286244752
18286252442
18286260132
18286266053
18286271241
18286277894
18286283020
18286292786
18286301514
18286305420
18286315979
18286327027
18286333863
18286342652
18286349793
18286359314
18286364929
18286372498
18286378601
18286384217
18286391113
18286397034
18286402649
18286410584
18286416687
18286424805
18286430969
18286437805
18286443604
18286451111
18286457092
18286464966
18286470825
18286478394
18286482239
18286490967
18286494812
18286502502
18286508728
18286514892
18286518677
18286526367
18286532898
18286539062
18286545105
18286551941
18286558838
18286565063
18286572204
18286577881
18286584778
18286590332
18286595825
18286602966
18286608520
18286613647
18286621276
18286626709
18286635681
18286641418
18286648071
18286653869
18286661193
18286665222
18286674377
18286678710
18286686706
18286690612
18286698425
18286702270
18286710693
18286717223
18286722595
18286726745
18286736877
18286741882
18286750976
18286755737
18286765502
18286771056
18286779723
18286786193
18286793578
18286799682
18286808654
18286815429
18286823363
18286829955
18286837768
18286843627
18286851623
18286857482
18286865966
18286872069
18286880431
18286886596
18286895812
18286903930
18286911742
18286918334
18286925231
18286933043
18286937804
18286948302
18286958617
18286965758
18286975707
18286983153
18286991210
18286999938
18287010619
18287019103
18287027953
18287032530
18287043028
18287049925
18287057249
18287063658
18287069945
18287074644
18287081114
18287087218
18287092223
18287099547
18287104857
18287111632
18287116637
18287123595
18287130247
18287136229
18287141783
18287148009
18287155333
18287160826
18287165953
18287171446
18287177794
18287182554
18287189024
18287194578
18287199766
18287206785
18287213011
18287218870
18287224607
18287229185
18287235594
18287241941
18287246153
18287253965
18287260618
18287266600
18287270872
18287277403
18287283445
18287289182
18287294920
18287298948
18287305601
18287309629
18287315183
18287321043
18287325987
18287332517
18287338621
18287343809
18287350401
18287355283
18287361936
18287369566
18287374265
18287382810
18287389036
18287395261
18287400388
18287406675
18287413206
18287419126
18287424436
18287429807
18287434995
18287440854
18287445371
18287451413
18287457029
18287464048
18287469419
18287474241
18287481748
18287487119
18287492734
18287498044
18287503659
18287509397
18287515866
18287521970
18287528012
18287533933
18287540586
18287549802
18287560971
18287570798
18287578549
18287584653
18287593381
18287601865
18287606748
18287614438
18287618222
18287626340
18287633664
18287638486
18287646909
18287653806
18287661069
18287666623
18287673825
18287678769
18287686703
18287694394
18287700375
18287706357
18287714169
18287718075
18287725766
18287729855
18287737851
18287743710
18287750607
18287754757
18287762936
18287770504
18287777279
18287782956
18287790158
18287797299
18287802121
18287808834
18287815548
18287821102
18287825802
18287832333
18287837094
18287844723
18287852291
18287859005
18287865292
18287872128
18287877438
18287885983
18287892086
18287899044
18287904904
18287912533
18287919064
18287925839
18287931637
18287940060
18287946285
18287953365
18287959164
18287966793
18287971920
18287978085
18287983700
18287989925
18287995846
18288003536
18288007748
18288015926
18288020199
18288028316
18288034359
18288041622
18288048336
18288055599
18288059932
18288066768
18288070430
18288078853
18288085994
18288091365
18288099910
18288105342
18288114254
18288119503
18288128780
18288136653
18288143917
18288151607
18288163997
18288170650
18288178523
18288182918
18288193050
18288197444
18288207271
18288217159
18288221248
18288230769
18288237666
18288244014
18288251460
18288256160
18288262263
18288268733
18288274043
18288278682
18288286006
18288290828
18288297969
18288303096
18288310603
18288315852
18288321834
18288330928
18288337275
18288343440
18288350398
18288357905
18288365291
18288373713
18288377925
18288386653
18288395564
18288402461
18288407832
18288414424
18288421138
18288428462
18288430781
18288442622
18288450556
18288457698
18288464411
18288470698
18288478755
18288485163
18288491877
18288499995
18288506281
18288511591
18288517390
18288523737
18288531916
18288539118
18288545832
18288551569
18288559931
18288566096
18288575434
18288581660
18288588007
18288595392
18288601740
18288610163
18288617060
18288622675
18288631647
18288637751
18288642206
18288653254
18288657770
18288666681
18288670832
18288680292
18288686945
18288692987
18288697321
18288706476
18288713007
18288719294
18288725946
18288732477
18288741632
18288747248
18288754206
18288760492
18288768610
18288772516
18288781732
18288787958
18288794977
18288801569
18288807855
18288815729
18288822260
18288830560
18288837701
18288844049
18288850946
18288857843
18288865045
18288872430
18288877740
18288884576
18288891534
18288897150
18288903375
18288908563
18288915216
18288922113
18288925836
18288933526
18288938226
18288945245
18288951471
18288957147
18288960382
18288968499
18288977533
18288984430
18288990106
18288995111
18289002801
18289007013
18289014337
18289020806
18289027093
18289033563
18289038507
18289046563
18289051324
18289058343
18289064324
18289069940
18289076653
18289082513
18289088006
18289093743
18289100457
18289106622
18289112908
18289118218
18289125481
18289131829
18289137688
18289144830
18289151055
18289157952
18289164300
18289170403
18289175530
18289183465
18289188409
18289195000
18289202874
18289208916
18289215813
18289222405
18289228264
18289234795
18289241509
18289246697
18289253594
18289259209
18289267571
18289274712
18289281548
18289287224
18289295525
18289302239
18289306816
18289315361
18289320549
18289327812
18289331719
18289341667
18289348076
18289354180
18289362053
18289366814
18289374993
18289380242
18289387444
18289395195
18289402458
18289409416
18289416863
18289424370
18289432304
18289439018
18289444756
18289454704
18289460808
18289468681
18289474480
18289482414
18289488579
18289496269
18289504753
18289511223
18289518242
18289524895
18289532890
18289537834
18289545158
18289552055
18289559440
18289565056
18289572990
18289579704
18289586235
18289592887
18289599296
18289605949
18289612663
18289619194
18289625480
18289632560
18289639518
18289645500
18289652885
18289661735
18289669303
18289676017
18289682853
18289688102
18289695915
18289702873
18289710441
18289715995
18289724052
18289729667
18289737418
18289743034
18289751029
18289757743
18289765739
18289771903
18289778312
18289784598
18289791434
18289799003
18289806266
18289814139
18289820426
18289827628
18289834525
18289841483
18289849540
18289854911
18289863273
18289870719
18289877189
18289883170
18289890677
18289898856
18289905753
18289912833
18289918082
18289926993
18289932242
18289941031
18289946646
18289954947
18289959586
18289968314
18289976065
18289983573
18289991080
18289998404
18290006705
18290012320
18290021536
18290027884
18290036673
18290043692
18290049551
18290056692
18290066641
18290074393
18290084402
18290090079
18290099295
18290103934
18290113943
18290119986
18290129019
18290133413
18290143545
18290147940
18290157583
18290165213
18290172232
18290179922
18290186941
18290194387
18290199759
18290208670
18290214712
18290223623
18290229483
18290238394
18290246755
18290252737
18290260488
18290268362
18290276724
18290283437
18290289480
18290298940
18290304983
18290313039
18290320547
18290328115
18290333852
18290343008
18290348623
18290356741
18290363821
18290370107
18290375356
18290382802
18290388051
18290395132
18290400442
18290408498
18290415517
18290421926
18290429616
18290434499
18290442678
18290447316
18290453969
18290460683
18290466604
18290473439
18290480703
18290486318
18290493581
18290499013
18290506215
18290511647
18290520009
18290525258
18290531240
18290538625
18290544972
18290550221
18290557973
18290564198
18290571584
18290575856
18290583669
18290589528
18290595082
18290600026
18290607594
18290613942
18290619740
18290625172
18290631032
18290637135
18290644704
18290650441
18290656667
18290663014
18290668690
18290675343
18290681142
18290687611
18290693715
18290701039
18290707631
18290713124
18290720021
18290726735
18290734852
18290741383
18290747365
18290754139
18290760487
18290766774
18290775319
18290782032
18290789235
18290795399
18290800770
18290805653
18290812550
18290817616
18290825062
18290831410
18290839161
18290845326
18290851429
18290857472
18290862049
18290869435
18290876026
18290882252
18290888783
18290895008
18290900684
18290908741
18290914478
18290922047
18290927723
18290938404
18290943958
18290950733
18290957569
18290964344
18290971973
18290979236
18290992176
18291006946
18291018299
18291029957
18291039478
18291047779
18291056751
18291067859
18291076709
18291086719
18291094043
18291100696
18291107227
18291113880
18291120227
18291126575
18291133045
18291142139
18291148731
18291154651
18291162769
18291168933
18291175464
18291182605
18291188770
18291194080
18291202075
18291207507
18291214221
18291219897
18291227832
18291234851
18291241077
18291247485
18291253833
18291257556
18291265369
18291273120
18291279956
18291287036
18291293139
18291299365
18291305346
18291312060
18291318957
18291325854
18291332141
18291339526
18291345691
18291352588
18291360339
18291365954
18291374621
18291381701
18291388964
18291395983
18291402514
18291410205
18291416735
18291424792
18291431201
18291437365
18291444934
18291450854
18291459460
18291467455
18291477160
18291487231
18291494067
18291503954
18291513720
18291523302
18291530810
18291540575
18291550829
18291562914
18291571215
18291582262
18291591357
18291598986
18291609301
18291619616
18291630053
18291640856
18291650316
18291661303
18291671679
18291686083
18291695604
18291704760
18291714647
18291724047
18291733446
18291741808
18291752306
18291762193
18291771898
18291780565
18291789964
18291799059
18291808397
18291816759
18291825975
18291835680
18291845323
18291855943
18291863512
18291869188
18291882310
18291887865
18291903673
18291912462
18291919542
18291930345
18291937364
18291946397
18291955674
18291965440
18291975572
18291985093
18291993150
18292003099
18292011033
18292021653
18292029649
18292040208
18292049302
18292056626
18292064561
18292075669
18292086533
18292096360
18292102097
18292114426
18292125047
18292134385
18292142747
18292152390
18292162156
18292172043
18292182236
18292189683
18292199998
18292210312
18292218979
18292230088
18292240952
18292250412
18292259873
18292271836
18292282029
18292289536
18292300217
18292309494
18292317490
18292327927
18292337998
18292346359
18292355393
18292363693
18292374191
18292381699
18292391098
18292398727
18292412643
18292422653
18292431198
18292439865
18292449264
18292458237
18292468307
18292479172
18292488815
18292497665
18292506576
18292515487
18292523117
18292533066
18292542282
18292551498
18292560714
18292568832
18292577743
18292585922
18292595443
18292603683
18292615341
18292624008
18292633651
18292638961
18292650497
18292660629
18292670272
18292679916
18292689620
18292698348
18292707443
18292715438
18292724166
18292733871
18292743087
18292753402
18292760299
18292770492
18292776656
18292788253
18292795943
18292806014
18292812789
18292823043
18292832137
18292840682
18292850264
18292858748
18292867171
18292875777
18292884383
18292894149
18292903304
18292913497
18292921920
18292929061
18292939803
18292947127
18292959517
18292965132
18292977644
18292986678
18292991255
18292998518
18293006087
18293013350
18293019942
18293026350
18293033675
18293039839
18293047957
18293053389
18293062788
18293075239
18293080183
18293088301
18293095259
18293102705
18293110701
18293117170
18293126143
18293133101
18293140364
18293147383
18293154524
18293161421
18293168013
18293174665
18293181318
18293187727
18293193098
18293199507
18293206098
18293212446
18293218977
18293225813
18293232099
18293237043
18293245222
18293250593
18293259138
18293265180
18293272260
18293279707
18293286482
18293292097
18293299909
18293306074
18293313459
18293319501
18293326215
18293331708
18293339765
18293346418
18293352888
18293360273
18293365278
18293373212
18293379682
18293386945
18293393354
18293399091
18293406049
18293411359
18293418073
18293425641
18293431989
18293438337
18293444867
18293452192
18293457074
18293464399
18293470929
18293477948
18293482831
18293489667
18293496259
18293503217
18293510297
18293517377
18293523358
18293531232
18293535077
18293543561
18293551068
18293557904
18293564679
18293570844
18293578168
18293583051
18293592023
18293598187
18293605878
18293612347
18293618695
18293624982
18293631634
18293638531
18293644757
18293651166
18293658063
18293663739
18293673504
18293680707
18293685040
18293694439
18293702496
18293708966
18293716107
18293723309
18293731793
18293741009
18293747662
18293753643
18293761029
18293767254
18293775372
18293781597
18293790020
18293793927
18293802105
18293807537
18293814739
18293823467
18293835064
18293843914
18293848980
18293856732
18293861675
18293870037
18293874981
18293882855
18293888348
18293898357
18293904339
18293912273
18293918316
18293925091
18293933514
18293939983
18293946026
18293955913
18293962383
18293970623
18293978252
18293986187
18293992046
18294000347
18294006817
18294015484
18294023357
18294031048
18294038860
18294043499
18294053020
18294060161
18294066387
18294073467
18294082073
18294090923
18294098125
18294104778
18294112407
18294118206
18294127056
18294136089
18294142681
18294148113
18294157146
18294162822
18294170268
18294177165
18294184551
18294189433
18294197246
18294202007
18294208965
18294216228
18294222453
18294229655
18294236430
18294243754
18294251140
18294254863
18294263164
18294269145
18294275126
18294282695
18294287333
18294296367
18294301921
18294309977
18294313762
18294321635
18294328593
18294334330
18294341105
18294347758
18294355021
18294359965
18294367656
18294373027
18294381327
18294387370
18294396891
18294405375
18294411357
18294421610
18294428507
18294433879
18294440653
18294445475
18294453227
18294456645
18294464335
18294470316
18294476115
18294482401
18294488383
18294495158
18294499491
18294506022
18294512186
18294517985
18294524332
18294530253
18294535380
18294542826
18294548136
18294553873
18294559733
18294565470
18294571451
18294577067
18294583597
18294589396
18294595377
18294600138
18294608378
18294615336
18294620890
18294627421
18294633158
18294638102
18294645487
18294650675
18294658426
18294663553
18294671793
18294675333
18294683573
18294689859
18294695658
18294702066
18294707926
18294715189
18294721598
18294728494
18294732034
18294739786
18294745096
18294752664
18294760477
18294767374
18294774088
18294781717
18294788797
18294793985
18294801126
18294808206
18294814859
18294821451
18294828470
18294833902
18294840921
18294846536
18294853860
18294859659
18294868631
18294875040
18294881875
18294885843
18294894082
18294901224
18294907632
18294914712
18294921304
18294928689
18294934060
18294942849
18294948159
18294955301
18294962991
18294971658
18294977212
18294985452
18294989785
18294999307
18295004983
18295014016
18295018045
18295030984
18295037515
18295043313
18295050454
18295055947
18295063394
18295069070
18295077493
18295083291
18295090554
18295096413
18295104409
18295110268
18295118508
18295126260
18295132851
18295139809
18295146462
18295153542
18295158547
18295166543
18295171425
18295178994
18295185341
18295192483
18295197426
18295203896
18295210244
18295217507
18295222451
18295231118
18295236123
18295245034
18295249916
18295257729
18295262673
18295270546
18295276039
18295283852
18295289345
18295297097
18295302529
18295309792
18295315163
18295322792
18295328530
18295335732
18295342079
18295350807
18295357277
18295364357
18295368691
18295377419
18295381874
18295392189
18295397804
18295404640
18295411415
18295418739
18295426918
18295432411
18295441383
18295446754
18295454811
18295462379
18295468849
18295474708
18295483375
18295491310
18295499183
18295506263
18295513771
18295523048
18295528541
18295536964
18295544044
18295550331
18295557594
18295564735
18295572547
18295580238
18295586158
18295594093
18295601905
18295611854
18295617713
18295625648
18295633827
18295640418
18295647926
18295654884
18295663856
18295676002
18295681129
18295691261
18295697913
18295707679
18295715064
18295724830
18295729713
18295739722
18295745704
18295758277
18295766517
18295776893
18295784339
18295790381
18295799293
18295803626
18295812659
18295816749
18295826758
18295834205
18295840796
18295849891
18295856299
18295861792
18295868445
18295875403
18295882178
18295888465
18295895301
18295901404
18295906714
18295914160
18295919715
18295927283
18295934546
18295940711
18295947913
18295954077
18295960425
18295965247
18295973242
18295980261
18295985877
18295992834
18295999365
18296004797
18296012549
18296018408
18296024512
18296028174
18296037146
18296043433
18296049902
18296056799
18296063208
18296069494
18296075659
18296082495
18296089270
18296096228
18296101050
18296107947
18296112951
18296120337
18296126074
18296131872
18296138708
18296144445
18296150488
18296156652
18296163427
18296168371
18296174414
18296179235
18296188085
18296191625
18296200353
18296205114
18296212133
18296217993
18296224340
18296231176
18296235937
18296242346
18296247350
18296255163
18296260656
18296268530
18296274999
18296279882
18296287756
18296293920
18296300207
18296307409
18296314794
18296322546
18296327367
18296336156
18296341650
18296348791
18296354040
18296361852
18296366857
18296375768
18296381261
18296387487
18296393529
18296399389
18296406957
18296413671
18296421117
18296426976
18296433812
18296439550
18296446019
18296454137
18296460851
18296468419
18296475743
18296482518
18296489659
18296496251
18296501683
18296509984
18296514195
18296522985
18296528539
18296537450
18296544408
18296550939
18296558141
18296564610
18296572301
18296579381
18296585484
18296592503
18296598851
18296604405
18296612462
18296618016
18296626073
18296632542
18296639256
18296646886
18296653660
18296660802
18296667454
18296674779
18296679661
18296688084
18296693211
18296701207
18296708531
18296715367
18296721226
18296729344
18296736607
18296742955
18296748997
18296756199
18296763401
18296771397
18296778233
18296785862
18296794041
18296798008
18296807469
18296811619
18296821263
18296829319
18296835850
18296843174
18296850010
18296855930
18296863560
18296871128
18296878452
18296885899
18296891819
18296898960
18296907139
18296913364
18296918858
18296927341
18296936924
18296944553
18296950596
18296957554
18296965366
18296973179
18296980747
18296988437
18296995456
18297001377
18297009800
18297016330
18297022556
18297028049
18297036655
18297043918
18297050693
18297056919
18297063510
18297070652
18297077671
18297084507
18297089511
18297098606
18297106052
18297112949
18297118564
18297126132
18297132785
18297139987
18297146335
18297152683
18297160007
18297166721
18297173923
18297181369
18297189914
18297195651
18297204501
18297211703
18297220431
18297225925
18297234653
18297240146
18297247836
18297255588
18297262424
18297271152
18297278415
18297285068
18297293551
18297299777
18297307406
18297317233
18297324252
18297331576
18297337313
18297345431
18297353122
18297357760
18297368685
18297373812
18297384982
18297389987
18297400485
18297407870
18297416964
18297424288
18297432772
18297440096
18297450900
18297458102
18297466464
18297473605
18297481112
18297490694
18297498690
18297505282
18297515597
18297522005
18297530855
18297539156
18297544710
18297552950
18297561800
18297570162
18297576265
18297582491
18297588411
18297594698
18297600985
18297608126
18297615084
18297621553
18297626741
18297634371
18297638643
18297647921
18297655062
18297662569
18297669832
18297677278
18297685274
18297690096
18297698763
18297704073
18297712557
18297718172
18297725740
18297732088
18297738313
18297744600
18297750887
18297757295
18297763948
18297770784
18297777559
18297784151
18297791048
18297796846
18297801607
18297808687
18297814912
18297820711
18297826997
18297832979
18297839265
18297845430
18297850618
18297856904
18297864595
18297868074
18297876008
18297882478
18297888276
18297895112
18297900667
18297907563
18297911897
18297919465
18297924531
18297931611
18297936433
18297943452
18297950166
18297957124
18297963044
18297967439
18297974824
18297980928
18297986116
18297992280
18297998384
18298005891
18298011689
18298017671
18298023408
18298030610
18298035737
18298043855
18298049958
18298055879
18298061677
18298067963
18298074738
18298079804
18298087617
18298093110
18298098908
18298106660
18298112397
18298119660
18298128388
18298134736
18298141694
18298147980
18298154694
18298161713
18298168305
18298174042
18298182099
18298189545
18298196564
18298202912
18298209504
18298215485
18298222016
18298231415
18298238434
18298245575
18298254303
18298261566
18298267792
18298275849
18298283783
18298291229
18298297516
18298305268
18298311859
18298317414
18298325653
18298331513
18298339508
18298343353
18298352203
18298360138
18298366852
18298373810
18298380585
18298387848
18298394318
18298401398
18298408844
18298415497
18298421295
18298428802
18298434357
18298442413
18298448212
18298456024
18298462555
18298469330
18298477569
18298484771
18298491485
18298498138
18298505645
18298510467
18298517608
18298523895
18298530548
18298537078
18298545990
18298551788
18298558563
18298564178
18298572235
18298577728
18298583953
18298591155
18298597198
18298604949
18298610137
18298615508
18298623565
18298628997
18298636382
18298641876
18298648773
18298654510
18298662322
18298668060
18298676360
18298683440
18298690154
18298696746
18298703399
18298707915
18298717254
18298725066
18298732513
18298736480
18298745574
18298755218
18298762786
18298766936
18298775359
18298782256
18298789763
18298793975
18298803557
18298809478
18298817107
18298825896
18298831694
18298838225
18298846343
18298852690
18298860930
18298867461
18298875884
18298882476
18298892668
18298898589
18298911589
18298916594
18298928557
18298935027
18298943511
18298952483
18298958830
18298968413
18298974394
18298982390
18298989592
18298998503
18299005034
18299014189
18299019072
18299028654
18299036406
18299044462
18299052275
18299060270
18299067656
18299074736
18299082853
18299089079
18299098539
18299108122
18299116423
18299123930
18299131681
18299139372
18299149382
18299158232
18299167692
18299173307
18299184599
18299189604
18299200773
18299209623
18299216459
18299225553
18299234464
18299242460
18299248502
18299256498
18299263883
18299271574
18299278715
18299286039
18299292875
18299300443
18299306486
18299312711
18299319974
18299326444
18299332731
18299339811
18299345853
18299351041
18299359098
18299362882
18299371061
18299378324
18299384488
18299390958
18299397794
18299403531
18299410062
18299417569
18299425443
18299431119
18299438016
18299444730
18299450772
18299457852
18299464017
18299471036
18299477750
18299483853
18299489591
18299496427
18299502408
18299508695
18299514737
18299521512
18299529324
18299535062
18299540677
18299546231
18299553616
18299558194
18299564053
18299569485
18299578641
18299584622
18299590970
18299597989
18299605008
18299611783
18299618375
18299625210
18299630582
18299636746
18299644192
18299650113
18299655911
18299661404
18299668484
18299674649
18299680325
18299685147
18299692532
18299697659
18299706387
18299712735
18299718655
18299725491
18299730008
18299737942
18299744656
18299750210
18299757595
18299763760
18299770108
18299775967
18299782070
18299788296
18299795010
18299801541
18299808865
18299814053
18299821865
18299827603
18299836453
18299843411
18299850246
18299854519
18299864224
18299871792
18299878506
18299885464
18299890652
18299899807
18299907070
18299912746
18299919765
18299926235
18299931789
18299939724
18299945156
18299953090
18299960293
18299966640
18299973781
18299980861
18299987209
18299993862
18300000393
18300006130
18300014492
18300021389
18300028041
18300035793
18300042324
18300048610
18300055873
18300062831
18300069118
18300075466
18300082424
18300088649
18300095729
18300103176
18300110011
18300116054
18300123256
18300127284
18300137782
18300143764
18300150783
18300158595
18300163905
18300171596
18300179652
18300186977
18300194911
18300202785
18300210658
18300218654
18300225795
18300233058
18300240016
18300246303
18300254420
18300263026
18300269679
18300276027
18300282802
18300289637
18300296412
18300303492
18300310145
18300316859
18300323634
18300331263
18300338404
18300344203
18300351222
18300357264
18300364344
18300371730
18300378138
18300384913
18300392970
18300399439
18300406153
18300412928
18300420863
18300425929
18300434840
18300440760
18300449061
18300457545
18300464137
18300472681
18300479884
18300488428
18300496363
18300502405
18300511622
18300517542
18300527369
18300533961
18300541956
18300550440
18300556238
18300564539
18300571253
18300579554
18300586878
18300595667
18300603357
18300610071
18300619776
18300627161
18300635035
18300644312
18300650721
18300660852
18300667444
18300677820
18300686365
18300693018
18300701685
18300708277
18300721216
18300731165
18300737817
18300747522
18300755518
18300762231
18300771326
18300780847
18300787500
18300795984
18300804712
18300811182
18300820581
18300829248
18300835962
18300844568
18300850671
18300860864
18300870569
18300878259
18300885156
18300892968
18300900842
18300908593
18300911279
18300922509
18300934228
18300941613
18300951867
18300958215
18300966760
18300975244
18300982934
18300991296
18300998986
18301004479
18301011620
18301017541
18301025903
18301032555
18301038964
18301043481
18301051232
18301058678
18301064904
18301071374
18301078393
18301084679
18301091759
18301097802
18301104638
18301111596
18301119836
18301126061
18301129784
18301138146
18301145348
18301151879
18301158959
18301165673
18301171288
18301177941
18301183739
18301191246
18301197289
18301202599
18301209618
18301214928
18301222680
18301229882
18301235436
18301242638
18301248986
18301254601
18301260765
18301265831
18301272423
18301279198
18301284020
18301290489
18301296227
18301301659
18301308067
18301314049
18301321068
18301324730
18301332054
18301339012
18301344994
18301351097
18301356102
18301362633
18301368553
18301374046
18301380089
18301386070
18301392113
18301396751
18301404625
18301410362
18301416283
18301423790
18301428428
18301436363
18301439598
18301447593
18301454796
18301461387
18301468406
18301474205
18301481468
18301486778
18301495750
18301501548
18301507774
18301514000
18301521995
18301529625
18301537803
18301544639
18301553611
18301559410
18301569053
18301576499
18301583213
18301589195
18301597251
18301606223
18301612754
18301616721
18301626243
18301633384
18301639915
18301646140
18301652793
18301659995
18301666831
18301674033
18301681235
18301687766
18301693442
18301702231
18301707786
18301714866
18301720969
18301728721
18301734336
18301742759
18301749595
18301756919
18301764548
18301771018
18301779197
18301784507
18301791465
18301798240
18301805625
18301813010
18301819419
18301826743
18301832785
18301838217
18301846640
18301852988
18301860861
18301865134
18301874411
18301881674
18301888266
18301895224
18301901999
18301908652
18301915244
18301922385
18301929587
18301937155
18301942893
18301950644
18301956503
18301964438
18301970053
18301977988
18301984640
18301991171
18301998007
18302004904
18302012533
18302019369
18302027243
18302035483
18302041891
18302049643
18302055868
18302061484
18302069418
18302075033
18302083090
18302090597
18302097372
18302103170
18302111715
18302118734
18302123861
18302132589
18302139852
18302146383
18302151937
18302159689
18302165670
18302174398
18302181112
18302191549
18302199972
18302207357
18302219869
18302227499
18302235494
18302242513
18302250692
18302256307
18302264608
18302271322
18302278646
18302285909
18302293600
18302299947
18302306905
18302315267
18302321920
18302328329
18302335836
18302340108
18302350606
18302355428
18302368367
18302373128
18302384847
18302392232
18302400106
18302408101
18302416158
18302423787
18302432027
18302440999
18302448934
18302456014
18302464803
18302472432
18302480977
18302489156
18302497701
18302505147
18302511189
18302521260
18302527242
18302534871
18302543660
18302551289
18302559895
18302567158
18302575520
18302582600
18302588765
18302596760
18302605488
18302613179
18302621785
18302629597
18302637166
18302646321
18302652913
18302662983
18302668965
18302677693
18302683308
18302692830
18302698628
18302706684
18302714070
18302719502
18302726216
18302733540
18302739582
18302747334
18302751179
18302760823
18302766865
18302773030
18302779682
18302786823
18302792561
18302799641
18302807087
18302811970
18302818623
18302824238
18302832356
18302837421
18302843586
18302850239
18302856709
18302862690
18302868122
18302876423
18302882099
18302888325
18302895405
18302902058
18302908893
18302915851
18302923481
18302932514
18302938679
18302945026
18302951496
18302957782
18302962909
18302970661
18302976398
18302982746
18302988605
18302995563
18303001300
18303007221
18303013752
18303019794
18303024982
18303031208
18303037677
18303042621
18303048969
18303055866
18303061664
18303068256
18303073810
18303079669
18303085651
18303092670
18303097797
18303104572
18303110248
18303116046
18303122943
18303129169
18303135822
18303141681
18303149921
18303154926
18303162372
18303168292
18303174823
18303180987
18303188251
18303195697
18303200214
18303208453
18303213397
18303220050
18303228045
18303233600
18303240252
18303246722
18303253497
18303260699
18303268268
18303274981
18303281329
18303288592
18303293231
18303301104
18303307940
18303313861
18303319171
18303328204
18303334918
18303341143
18303347552
18303354205
18303362445
18303367571
18303375323
18303381915
18303390154
18303396868
18303401446
18303409747
18303415118
18303423418
18303430499
18303436785
18303443621
18303450396
18303455950
18303462786
18303469622
18303475298
18303484698
18303491961
18303499285
18303507220
18303514178
18303520769
18303527727
18303537066
18303543718
18303552080
18303557634
18303566179
18303573259
18303580095
18303584551
18303594744
18303601336
18303607744
18303614275
18303620745
18303627642
18303635027
18303641619
18303648699
18303655046
18303660539
18303668352
18303674089
18303681780
18303687395
18303696794
18303700884
18303709367
18303716264
18303722917
18303729631
18303736162
18303743730
18303750383
18303758134
18303765520
18303772356
18303777971
18303785661
18303791460
18303799760
18303805864
18303812761
18303820268
18303826921
18303833818
18303840593
18303850175
18303856828
18303864030
18303872392
18303879960
18303886430
18303895829
18303900712
18303909684
18303917192
18303925004
18303929460
18303940446
18303948442
18303956193
18303964005
18303972306
18303979081
18303988297
18303996110
18304000565
18304010514
18304020524
18304026749
18304035844
18304043900
18304052201
18304060746
18304067216
18304075516
18304083329
18304091325
18304099991
18304106400
18304114762
18304123734
18304131424
18304140397
18304147599
18304154618
18304164078
18304170731
18304181473
18304186356
18304199723
18304205277
18304217545
18304227799
18304234635
18304244889
18304253983
18304262955
18304270828
18304275833
18304285843
18304293656
18304301895
18304310684
18304319351
18304324661
18304334244
18304341568
18304351822
18304356888
18304367386
18304374588
18304382706
18304389114
18304397354
18304403213
18304411087
18304418045
18304424270
18304429519
18304437271
18304443802
18304448745
18304457229
18304464187
18304470352
18304475723
18304483841
18304489151
18304496414
18304501846
18304509170
18304515213
18304522598
18304528884
18304535171
18304541763
18304548049
18304554824
18304561538
18304567520
18304574478
18304580276
18304587356
18304593765
18304600906
18304607925
18304613296
18304621841
18304628494
18304634841
18304641372
18304646926
18304654494
18304659316
18304665725
18304670364
18304678420
18304683852
18304689651
18304697280
18304701980
18304708449
18304715041
18304720412
18304727431
18304732314
18304738296
18304746230
18304751967
18304758071
18304763930
18304770888
18304775832
18304783217
18304791152
18304795241
18304803908
18304808486
18304814528
18304819899
18304829421
18304836257
18304842665
18304849867
18304856825
18304863600
18304871901
18304878493
18304884841
18304890761
18304897475
18304904067
18304910475
18304916335
18304924452
18304931044
18304936903
18304944411
18304950331
18304957411
18304964125
18304970045
18304976515
18304984328
18304989332
18304997145
18305004835
18305011488
18305019179
18305027174
18305033522
18305039869
18305047011
18305053785
18305061049
18305067885
18305074965
18305081495
18305088820
18305093885
18305102735
18305107923
18305116590
18305122145
18305129591
18305135389
18305143263
18305149122
18305156996
18305163526
18305170790
18305177870
18305184644
18305191236
18305198072
18305206556
18305211561
18305219434
18305226759
18305234205
18305239820
18305247266
18305253797
18305259962
18305266981
18305273328
18305281080
18305289930
18305298658
18305307569
18305317518
18305325940
18305333143
18305340040
18305346509
18305353589
18305359815
18305366712
18305372266
18305381238
18305388379
18305395215
18305402173
18305409192
18305415906
18305423047
18305430005
18305438428
18305445203
18305448743
18305457715
18305464734
18305472058
18305480359
18305487500
18305495862
18305501477
18305509534
18305517773
18305525037
18305530957
18305538770
18305544385
18305553540
18305557690
18305566601
18305572278
18305580701
18305588574
18305595105
18305601636
18305608655
18305616406
18305623974
18305630383
18305637524
18305644055
18305651928
18305659070
18305664807
18305673108
18305680798
18305688000
18305694775
18305701306
18305708508
18305715100
18305722607
18305727795
18305736950
18305742077
18305750073
18305757885
18305764660
18305771191
18305779431
18305786144
18305793835
18305802319
18305809826
18305816418
18305827160
18305831860
18305842236
18305848888
18305858349
18305865795
18305873791
18305882213
18305888195
18305894726
18305904613
18305911999
18305920055
18305924816
18305935863
18305940746
18305950939
18305955639
18305966503
18305973705
18305983715
18305988781
18305998241
18306010021
18306016552
18306023693
18306033214
18306040599
18306048961
18306056163
18306064952
18306073924
18306080943
18306087535
18306095409
18306101451
18306108409
18306113597
18306120982
18306129039
18306135448
18306141551
18306147838
18306155406
18306162242
18306168346
18306175426
18306181895
18306187755
18306195994
18306200389
18306210948
18306217479
18306223887
18306230113
18306236827
18306245067
18306251536
18306258799
18306263621
18306271434
18306278575
18306284983
18306290538
18306298045
18306303355
18306311412
18306315135
18306323313
18306331248
18306338206
18306343516
18306349620
18306356761
18306362925
18306369944
18306374949
18306381968
18306388865
18306394907
18306401499
18306407114
18306412180
18306419993
18306426524
18306431406
18306438059
18306442820
18306451243
18306456858
18306462595
18306468516
18306474375
18306481638
18306487803
18306493235
18306497996
18306506113
18306512095
18306517710
18306524241
18306530222
18306537119
18306543650
18306549692
18306555002
18306562510
18306569529
18306575327
18306581491
18306587595
18306594675
18306601938
18306607675
18306613596
18306619272
18306626169
18306633310
18306638559
18306646555
18306653086
18306660166
18306667429
18306674204
18306679941
18306686105
18306692026
18306700937
18306706857
18306713083
18306720834
18306725839
18306733896
18306740976
18306747751
18306751718
18306760629
18306768136
18306775339
18306782052
18306790536
18306797494
18306806100
18306813852
18306819894
18306828134
18306833688
18306840646
18306846261
18306854867
18306862008
18306869455
18306876840
18306883371
18306887155
18306896005
18306905526
18306912850
18306918771
18306925851
18306933053
18306940194
18306946115
18306953683
18306959908
18306967294
18306974679
18306980599
18306988595
18306994637
18307002023
18307010506
18307017037
18307021066
18307029244
18307037484
18307042916
18307049630
18307056283
18307064034
18307070504
18307077157
18307083565
18307089425
18307095955
18307102242
18307108712
18307115120
18307121712
18307128914
18307136178
18307142342
18307149544
18307156380
18307162606
18307171761
18307177376
18307184700
18307190194
18307197396
18307203011
18307210335
18307215889
18307223397
18307227364
18307235543
18307241097
18307250069
18307254402
18307263130
18307267464
18307277229
18307283150
18307290596
18307296761
18307306709
18307310921
18307320869
18307327705
18307334602
18307341377
18307350532
18307356758
18307364387
18307370369
18307378486
18307384468
18307393501
18307397957
18307407112
18307411323
18307422127
18307426826
18307439460
18307448311
18307459297
18307466865
18307475959
18307483833
18307490913
18307500129
18307508491
18307516670
18307524848
18307529609
18307539680
18307547492
18307555976
18307560615
18307570320
18307577277
18307585761
18307592170
18307600288
18307606696
18307615058
18307621833
18307630744
18307640632
18307646613
18307653266
18307663215
18307670234
18307678290
18307684821
18307692328
18307701728
18307710456
18307717353
18307726508
18307733100
18307740546
18307749213
18307757941
18307766608
18307776313
18307783149
18307788031
18307798712
18307807929
18307813971
18307818366
18307827155
18307835028
18307841437
18307849433
18307856207
18307861579
18307868353
18307874884
18307881476
18307888068
18307894476
18307902045
18307906866
18307913580
18307920233
18307926703
18307931647
18307939581
18307946844
18307953009
18307959296
18307966742
18307972540
18307980231
18307986090
18307995062
18307998663
18308007757
18308014593
18308021368
18308028509
18308035284
18308042364
18308047186
18308054571
18308061102
18308068914
18308073980
18308081732
18308086615
18308095037
18308100225
18308105902
18308112005
18308117742
18308122503
18308129705
18308134771
18308142034
18308148199
18308154180
18308161077
18308166815
18308173162
18308181829
18308187872
18308193609
18308201910
18308208074
18308215520
18308219183
18308227544
18308233343
18308240667
18308246526
18308250860
18308257390
18308263860
18308271001
18308276372
18308283697
18308289800
18308296087
18308303106
18308309026
18308314580
18308320501
18308327215
18308333257
18308339788
18308346135
18308352300
18308359075
18308365483
18308371953
18308378789
18308383916
18308391667
18308395208
18308404485
18308408147
18308415654
18308422368
18308429387
18308436772
18308443730
18308450078
18308457036
18308464177
18308471135
18308477422
18308483769
18308489507
18308495915
18308501653
18308508244
18308514348
18308519597
18308527653
18308533208
18308541447
18308547002
18308555180
18308560795
18308569157
18308575688
18308582707
18308587956
18308594060
18308599309
18308606572
18308610478
18308618107
18308622319
18308630620
18308634465
18308644108
18308650822
18308658451
18308666142
18308673954
18308681095
18308687626
18308696354
18308700016
18308707646
18308714665
18308721256
18308728886
18308733586
18308740421
18308747685
18308753422
18308760136
18308766728
18308773014
18308782230
18308790592
18308797977
18308804569
18308812016
18308822208
18308827885
18308836430
18308843815
18308850529
18308858524
18308866337
18308872074
18308881107
18308887638
18308894779
18308902042
18308909183
18308915958
18308921024
18308929325
18308935062
18308942630
18308950138
18308956730
18308962345
18308970401
18308975833
18308982242
18308987735
18308995609
18309001041
18309009098
18309015995
18309020877
18309026309
18309035221
18309044681
18309049747
18309057376
18309064823
18309071536
18309078800
18309084537
18309091861
18309098575
18309106204
18309112491
18309118472
18309126895
18309132877
18309139468
18309147586
18309155643
18309159793
18309173404
18309180789
18309186526
18309195621
18309201907
18309210147
18309216128
18309223575
18309229678
18309237368
18309245486
18309252078
18309260989
18309269412
18309273867
18309283633
18309291384
18309297549
18309304141
18309312258
18309321475
18309328982
18309335696
18309342776
18309349246
18309359072
18309367800
18309370913
18309382449
18309387881
18309398623
18309403811
18309414553
18309422121
18309429385
18309435793
18309444704
18309451113
18309460512
18309469546
18309476992
18309483462
18309488772
18309501528
18309508059
18309516604
18309522402
18309534426
18309544008
18309550051
18309557192
18309565615
18309571779
18309579714
18309583681
18309592958
18309599916
18309606203
18309612551
18309618837
18309625429
18309631655
18309638552
18309644777
18309651247
18309657778
18309664064
18309670656
18309676943
18309683473
18309691774
18309696535
18309703676
18309708376
18309715150
18309721864
18309727602
18309732301
18309740480
18309747499
18309754762
18309760072
18309766908
18309772157
18309779725
18309783510
18309793153
18309798890
18309803834
18309806764
18309816408
18309821168
18309826539
18309833619
18309837953
18309844545
18309849672
18309856446
18309861757
18309868592
18309876039
18309880555
18309888002
18309893128
18309899232
18309904115
18309910829
18309915650
18309922730
18309928712
18309934632
18309940675
18309946839
18309953736
18309960633
18309969849
18309976258
18309982789
18309990296
18309995240
18310004029
18310010560
18310016724
18310023560
18310030396
18310035828
18310041383
18310048768
18310053895
18310061707
18310068238
