18483015427
18483020920
18483026596
18483031906
18483037339
18483041855
18483046189
18483052902
18483057358
18483062546
18483066696
18483070725
18483075424
18483080734
18483085983
18483091660
18483096726
18483102524
18483110153
18483115524
18483122665
18483129929
18483138840
18483146408
18483154037
18483160690
18483167709
18483173630
18483180832
18483187241
18483193893
18483199570
18483208908
18483215500
18483220444
18483227463
18483232406
18483240158
18483245224
18483253647
18483261703
18483268417
18483274276
18483282455
18483289474
18483295578
18483301986
18483310287
18483317550
18483324020
18483328048
18483337081
18483343429
18483350265
18483357772
18483365463
18483372482
18483377914
18483385787
18483391464
18483398116
18483404830
18483413375
18483419723
18483425582
18483432174
18483438155
18483444015
18483452987
18483460311
18483468368
18483474471
18483483321
18483491988
18483498336
18483506881
18483514754
18483522506
18483528731
18483537398
18483545333
18483551436
18483558700
18483566085
18483571944
18483580733
18483589156
18483596907
18483604537
18483612410
18483619735
18483625167
18483633101
18483641341
18483649825
18483655623
18483664290
18483670516
18483677413
18483685591
18483694258
18483701949
18483708174
18483714949
18483724593
18483732283
18483740462
18483745406
18483755232
18483762740
18483769881
18483776656
18483783552
18483789717
18483796675
18483804854
18483813521
18483821150
18483829390
18483836043
18483842878
18483850447
18483857649
18483866621
18483875532
18483883101
18483891279
18483899214
18483906477
18483912764
18483922224
18483926680
18483936262
18483945722
18483951338
18483962507
18483969648
18483979231
18483988020
18483996198
18484003217
18484010664
18484017927
18484025983
18484034345
18484042402
18484049604
18484056562
18484066083
18484073164
18484079328
18484088239
18484095624
18484100324
18484109907
18484117902
18484125410
18484132734
18484140729
18484148969
18484156904
18484164716
18484171491
18484179975
18484186445
18484195173
18484203901
18484211957
18484219892
18484225507
18484234052
18484239606
18484249433
18484256269
18484265058
18484272016
18484279584
18484284101
18484293439
18484301434
18484307172
18484316815
18484322369
18484330304
18484338910
18484347150
18484353864
18484361005
18484367474
18484376569
18484383771
18484391705
18484399823
18484407635
18484415387
18484425702
18484433636
18484440106
18484450116
18484458905
18484465130
18484475262
18484481915
18484489361
18484495587
18484504803
18484509381
18484519329
18484524884
18484534893
18484542828
18484548504
18484557171
18484563030
18484571820
18484577496
18484586102
18484592938
18484601116
18484607830
18484617535
18484622356
18484633038
18484637554
18484648418
18484657635
18484665813
18484675640
18484682598
18484692486
18484700542
18484708904
18484717815
18484726238
18484735454
18484741558
18484749309
18484757183
18484764934
18484772014
18484782879
18484787822
18484797161
18484801738
18484811870
18484816875
18484827068
18484832317
18484843730
18484850200
18484857585
18484866191
18484872295
18484880107
18484888957
18484897807
18484905437
18484912517
18484918254
18484927593
18484936015
18484943340
18484951579
18484959758
18484967326
18484973857
18484981120
18484987102
18484998027
18485007060
18485013652
18485023479
18485029460
18485037456
18485045451
18485052836
18485058879
18485071208
18485079203
18485085673
18485094340
18485100383
18485106852
18485116801
18485125163
18485132548
18485140422
18485147868
18485154582
18485162699
18485170939
18485178935
18485186869
18485195170
18485201640
18485209269
18485217265
18485224162
18485232096
18485239237
18485246683
18485255412
18485262064
18485269755
18485278300
18485286051
18485293497
18485301432
18485308512
18485314860
18485322794
18485330179
18485339396
18485346048
18485352762
18485360697
18485369120
18485376993
18485385416
18485389750
18485399515
18485409952
18485414652
18485423868
18485432779
18485440287
18485450907
18485456644
18485465921
18485474039
18485481729
18485488687
18485495889
18485507120
18485514566
18485520425
18485528299
18485534280
18485542276
18485552835
18485560587
18485571817
18485579202
18485585794
18485592813
18485598245
18485606424
18485611978
18485619058
18485624368
18485630655
18485636758
18485645303
18485651223
18485657632
18485664590
18485669778
18485676675
18485682046
18485690530
18485697183
18485703530
18485708902
18485715921
18485721292
18485728860
18485732644
18485740823
18485744729
18485752175
18485758584
18485764871
18485768716
18485776711
18485780618
18485788979
18485795266
18485800149
18485807290
18485813760
18485818887
18485825662
18485832742
18485839455
18485845376
18485851907
18485858315
18485864785
18485870949
18485876137
18485883828
18485889138
18485896096
18485902688
18485909096
18485916360
18485922036
18485929238
18485935463
18485942849
18485949502
18485955300
18485961770
18485967568
18485974343
18485980080
18485987832
18485993752
18486000954
18486006813
18486013405
18486017250
18486025185
18486029274
18486036904
18486044960
18486052529
18486059059
18486066933
18486073952
18486078774
18486085243
18486092140
18486100746
18486106789
18486114723
18486122170
18486129433
18486135658
18486140053
18486149879
18486157753
18486165016
18486169838
18486179359
18486184120
18486192482
18486198952
18486206276
18486213112
18486222877
18486229652
18486237221
18486243690
18486251503
18486259803
18486265663
18486274696
18486282081
18486287941
18486294960
18486303138
18486310463
18486318153
18486324928
18486330970
18486339698
18486346168
18486354408
18486362464
18486367957
18486375160
18486379798
18486389808
18486394386
18486404029
18486408973
18486418128
18486425147
18486432349
18486438819
18486447181
18486454261
18486460975
18486469581
18486476905
18486484107
18486491614
18486497352
18486505347
18486511634
18486519202
18486527564
18486533851
18486541907
18486550025
18486557349
18486564307
18486572242
18486579566
18486585975
18486593848
18486599585
18486607154
18486615210
18486620093
18486630164
18486634864
18486643775
18486651282
18486657508
18486664466
18486673071
18486679846
18486687537
18486694922
18486703223
18486709631
18486717139
18486723364
18486731848
18486738257
18486746191
18486751990
18486759680
18486765845
18486774939
18486783545
18486790991
18486798743
18486804297
18486813452
18486818091
18486828100
18486832617
18486843298
18486851050
18486859289
18486863928
18486873449
18486880163
18486887732
18486895239
18486904699
18486911962
18486919165
18486925512
18486934362
18486942297
18486950353
18486957678
18486965429
18486970861
18486981115
18486986242
18486993261
18487000402
18487007299
18487012975
18487021032
18487026647
18487032751
18487039831
18487045995
18487051672
18487063024
18487066869
18487074926
18487080907
18487088232
18487092016
18487099950
18487107030
18487113439
18487118993
18487125280
18487130285
18487138158
18487146032
18487151464
18487157995
18487164525
18487170873
18487177221
18487183324
18487190160
18487197118
18487202123
18487210363
18487216222
18487223973
18487229344
18487236241
18487241735
18487248326
18487255773
18487261388
18487267491
18487273656
18487279088
18487284825
18487290074
18487296605
18487303258
18487308507
18487314427
18487319554
18487324864
18487330602
18487335912
18487342686
18487348790
18487354405
18487360448
18487365941
18487370640
18487377537
18487382908
18487390416
18487393895
18487401890
18487407506
18487413426
18487418736
18487424717
18487432469
18487436986
18487444615
18487449864
18487456517
18487461216
18487467381
18487472508
18487481053
18487487584
18487493565
18487500401
18487505040
18487512059
18487518894
18487525486
18487532383
18487537754
18487544529
18487550877
18487556126
18487563816
18487569798
18487578526
18487582493
18487590183
18487596714
18487602818
18487610203
18487616612
18487623814
18487630161
18487636875
18487641453
18487647984
18487654148
18487661228
18487668308
18487674900
18487680393
18487688267
18487694187
18487700413
18487706272
18487712314
18487718662
18487725254
18487732029
18487738254
18487744480
18487750522
18487756992
18487763096
18487770115
18487777439
18487783481
18487788425
18487795261
18487802341
18487809238
18487814914
18487824192
18487831027
18487836765
18487841892
18487849643
18487855869
18487862460
18487867099
18487875949
18487882175
18487888217
18487894870
18487900913
18487907199
18487913242
18487920444
18487925510
18487933017
18487940036
18487946567
18487953525
18487959445
18487965121
18487973544
18487977084
18487989535
18487997348
18488002841
18488009860
18488016269
18488021884
18488028171
18488034396
18488039645
18488047397
18488055087
18488061801
18488069369
18488078769
18488084811
18488091403
18488096713
18488103793
18488109347
18488118563
18488123873
18488131625
18488136996
18488144381
18488150118
18488157809
18488166049
18488174471
18488180941
18488188326
18488195956
18488203036
18488210665
18488217806
18488226229
18488228976
18488240816
18488245577
18488255221
18488260653
18488268221
18488272677
18488282442
18488287508
18488296663
18488303988
18488312349
18488319613
18488326693
18488333284
18488340548
18488349337
18488355623
18488361788
18488371737
18488377657
18488384981
18488393282
18488399874
18488406160
18488415438
18488421419
18488429170
18488437410
18488443025
18488450594
18488455354
18488466585
18488472322
18488481050
18488488863
18488498323
18488506746
18488514558
18488521516
18488530244
18488537324
18488546541
18488555330
18488562959
18488569673
18488578584
18488587434
18488595918
18488602693
18488608125
18488618867
18488629487
18488638887
18488646150
18488652620
18488660371
18488666108
18488678193
18488684541
18488693330
18488697602
18488705720
18488711824
18488719453
18488725740
18488732148
18488739717
18488745332
18488752839
18488758515
18488765107
18488770356
18488778474
18488782441
18488790681
18488797639
18488803010
18488809724
18488815888
18488822785
18488827546
18488836457
18488841340
18488848176
18488854890
18488860749
18488865327
18488872285
18488879548
18488886445
18488893464
18488899811
18488905060
18488912018
18488919159
18488925019
18488932343
18488938508
18488945221
18488950715
18488957245
18488963471
18488968293
18488974945
18488980561
18488985871
18488992707
18488998444
18489001923
18489009857
18489016632
18489022736
18489027863
18489033539
18489040680
18489045502
18489051422
18489057587
18489063568
18489068512
18489075592
18489081390
18489087189
18489093048
18489098297
18489104157
18489109833
18489118011
18489123138
18489129303
18489134735
18489142792
18489149811
18489155670
18489159576
18489169525
18489176178
18489182037
18489187408
18489192962
18489199798
18489205108
18489213226
18489219452
18489224640
18489229889
18489237213
18489242218
18489249481
18489256256
18489262664
18489269195
18489275543
18489282013
18489288482
18489295440
18489300445
18489309661
18489314666
18489321990
18489328643
18489334258
18489341094
18489347625
18489353179
18489361053
18489368072
18489374664
18489380889
18489387298
18489393707
18489400115
18489407806
18489414581
18489422576
18489427764
18489434539
18489441619
18489448943
18489454864
18489462737
18489468169
18489473968
18489481658
18489488250
18489494475
18489500945
18489505218
18489514434
18489518828
18489528899
18489535491
18489542022
18489548247
18489554656
18489563262
18489593962
18489600249
18489608061
18489615691
18489621855
18489630339
18489638335
18489646208
18489652068
18489658598
18489664092
18489671843
18489675688
18489683501
18489690398
18489697661
18489703886
18489709196
18489716704
18489722990
18489731657
18489737639
18489746062
18489753630
18489761626
18489768950
18489778105
18489786894
18489795134
18489802702
18489811796
18489819548
18489827238
18489834623
18489840605
18489849028
18489855986
18489863920
18489872526
18489879972
18489886625
18489894255
18489901457
18489907804
18489917570
18489923735
18489933866
18489940275
18489947294
18489953520
18489960905
18489967252
18489975980
18489981291
18489991972
18489999235
18490006559
18490014555
18490021207
18490030363
18490036161
18490044828
18490051298
18490058500
18490065397
18490073514
18490080228
18490089078
18490096586
18490104398
18490111295
18490119169
18490127408
18490133268
18490142118
18490149442
18490157071
18490164579
18490173795
18490182340
18490189176
18490196439
18490205228
18490213285
18490219571
18490227567
18490235501
18490241605
18490249417
18490257474
18490265897
18490274625
18490281155
18490288174
18490296536
18490303983
18490311002
18490320340
18490329129
18490336575
18490342984
18490348782
18490353177
18490361722
18490369595
18490376736
18490381985
18490389798
18490395718
18490402066
18490408474
18490413968
18490420437
18490426541
18490430569
18490438443
18490445401
18490451687
18490460476
18490466824
18490474697
18490481350
18490487454
18490494595
18490501492
18490508633
18490515530
18490522183
18490529751
18490535916
18490543423
18490547268
18490555691
18490562527
18490567715
18490574246
18490580166
18490585659
18490594021
18490599209
18490606228
18490610867
18490616909
18490623806
18490628506
18490634792
18490641079
18490645351
18490651638
18490657131
18490663479
18490669704
18490675869
18490681667
18490687160
18490694607
18490701198
18490706569
18490713405
18490718044
18490724331
18490730922
18490736232
18490741787
18490746364
18490754726
18490759548
18490767665
18490771328
18490779933
18490786708
18490794338
18490800014
18490805873
18490811489
18490830593
18490835658
18490844447
18490850368
18490856471
18490862575
18490869228
18490875636
18490883388
18490890407
18490896388
18490903102
18490910609
18490916164
18490923793
18490931605
18490938136
18490944545
18490950282
18490957057
18490964381
18490972072
18490978358
18490983668
18490992274
18490996486
18491004725
18491012721
18491020472
18491026515
18491033900
18491040553
18491044398
18491052333
18491060145
18491068141
18491075160
18491079066
18491087428
18491094020
18491098719
18491105372
18491113612
18491121119
18491125331
18491133143
18491139796
18491146205
18491153468
18491159144
18491167323
18491173182
18491179224
18491186366
18491192713
18491198878
18491207301
18491213099
18491218775
18491227747
18491236475
18491241175
18491247950
18491255030
18491263087
18491267237
18491276819
18491283533
18491288660
18491296351
18491303553
18491310328
18491317286
18491322413
18491329737
18491336023
18491344873
18491351892
18491358423
18491364344
18491371851
18491378382
18491383509
18491391687
18491399073
18491406885
18491413416
18491419397
18491426355
18491433618
18491440759
18491446985
18491456812
18491465357
18491472681
18491479883
18491489038
18491496790
18491505457
18491512842
18491523035
18491531030
18491538415
18491547571
18491553979
18491562707
18491568872
18491578821
18491586206
18491593591
18491603845
18491615197
18491623132
18491629846
18491641443
18491648339
18491657006
18491666223
18491672448
18491677331
18491687097
18491696130
18491704919
18491712548
18491717492
18491725976
18491733361
18491740930
18491747094
18491757531
18491763024
18491773583
18491782372
18491789513
18491797814
18491807885
18491817162
18491825158
18491831750
18491838891
18491847192
18491855126
18491863732
18491871606
18491877892
18491886193
18491892479
18491900536
18491906762
18491913537
18491921532
18491930809
18491936852
18491944603
18491952233
18491956749
18491964196
18491970970
18491978234
18491983177
18491990380
18491994408
18492002892
18492009667
18492016442
18492023522
18492028710
18492036034
18492041893
18492048729
18492055565
18492063133
18492069115
18492075218
18492081139
18492087914
18492094505
18492100243
18492105370
18492113853
18492119041
18492125877
18492131859
18492136925
18492145653
18492151207
18492156944
18492163719
18492169090
18492174461
18492181846
18492188011
18492193565
18492199669
18492206138
18492211876
18492217369
18492224876
18492232200
18492237632
18492244835
18492250572
18492256919
18492262962
18492269126
18492275535
18492281394
18492288414
18492294761
18492300010
18492306175
18492310874
18492318687
18492324363
18492330406
18492336570
18492341148
18492349937
18492355125
18492362510
18492371970
18492377769
18492384971
18492390708
18492396323
18492404014
18492409568
18492415488
18492421409
18492428550
18492433555
18492442100
18492449973
18492456809
18492465659
18492471763
18492480918
18492487510
18492493857
18492500449
18492508506
18492515464
18492521811
18492527854
18492533774
18492541831
18492546836
18492555686
18492562827
18492569175
18492575034
18492579978
18492587424
18492592795
18492601279
18492607688
18492613974
18492620383
18492626242
18492632346
18492639182
18492646018
18492651999
18492660300
18492666220
18492672995
18492678244
18492685263
18492691550
18492698996
18492703085
18492712241
18492719076
18492725485
18492731222
18492736532
18492743429
18492748862
18492755636
18492762839
18492768576
18492776510
18492782492
18492789511
18492796408
18492803488
18492810995
18492817709
18492824057
18492829977
18492837423
18492852194
18492857992
18492865133
18492871908
18492877767
18492886312
18492894186
18492900167
18492907186
18492913717
18492919271
18492925924
18492933431
18492939718
18492946798
18492953146
18492959737
18492967062
18492972494
18492979269
18492986898
18492993246
18492999105
18493005209
18493012106
18493018880
18493024007
18493031209
18493038473
18493045614
18493052389
18493058858
18493063680
18493071309
18493076681
18493085164
18493089132
18493097677
18493106099
18493111898
18493119283
18493125997
18493137716
18493145528
18493154439
18493159505
18493168599
18493172872
18493183614
18493190206
18493197896
18493205953
18493212483
18493223531
18493229756
18493237019
18493244466
18493253011
18493262044
18493269368
18493275288
18493282796
18493290791
18493299458
18493305257
18493313313
18493319783
18493326070
18493333760
18493339802
18493348286
18493356831
18493364400
18493373494
18493379353
18493387166
18493392842
18493402119
18493410298
18493420552
18493425862
18493435566
18493440815
18493450642
18493455952
18493466633
18493474507
18493483296
18493492024
18493498921
18493507282
18493516499
18493522846
18493531635
18493540058
18493546528
18493552815
18493559101
18493566120
18493572163
18493578388
18493585529
18493593220
18493599445
18493605000
18493610249
18493618244
18493624348
18493630634
18493636555
18493642658
18493649738
18493654377
18493661640
18493667621
18493674640
18493678364
18493687214
18493693012
18493697651
18493703876
18493711078
18493716571
18493721515
18493730487
18493735920
18493743244
18493750507
18493756794
18493762531
18493769855
18493775409
18493782062
18493786762
18493793415
18493800189
18493805927
18493811725
18493816486
18493823688
18493828327
18493835590
18493841632
18493847308
18493852985
18493858173
18493865314
18493870685
18493876849
18493883807
18493888324
18493895648
18493901019
18493907550
18493913409
18493921283
18493926471
18493934100
18493939654
18493945941
18493951678
18493958941
18493965289
18493971210
18493976825
18493983600
18493989581
18493994647
18494002154
18494008807
18494015277
18494022052
18494029803
18494036273
18494043170
18494049639
18494058429
18494063922
18494072100
18494078387
18494087664
18494093524
18494101214
18494107257
18494113665
18494122454
18494126666
18494135027
18494142718
18494147662
18494157183
18494165179
18494175372
18494188006
18494197100
18494208392
18494219622
18494231035
18494239886
18494249224
18494261187
18494273699
18494283465
18494290972
18494301775
18494309221
18494319658
18494326860
18494340410
18494350420
18494359392
18494369463
18494375444
18494387529
18494397905
18494408525
18494417864
18494428179
18494437944
18494446916
18494457719
18494467058
18494476823
18494485612
18494495317
18494503313
18494512895
18494523027
18494530229
18494539384
18494549638
18494558977
18494567033
18494575822
18494586625
18494595231
18494603532
18494613176
18494621049
18494631547
18494640824
18494650102
18494655839
18494668901
18494674760
18494687455
18494697709
18494707292
18494715959
18494725358
18494732865
18494742997
18494752458
18494759965
18494772599
18494790543
18494807755
18494831071
18494849991
18494868607
18494888871
18494907731
18494927689
18494947098
18494965714
18494978348
18494987442
18494996964
18495007157
18495024124
18495045364
18495064224
18495081619
18495091507
18495102310
18495111710
18495123184
18495135269
18495143814
18495154861
18495163955
18495174942
18495184158
18495194473
18495204055
18495213638
18495224319
18495233780
18495244155
18495254959
18495264968
18495274673
18495281936
18495292129
18495301895
18495313857
18495323135
18495334915
18495342361
18495352065
18495359329
18495370498
18495379104
18495388869
18495398818
18495411330
18495422011
18495431167
18495439162
18495448012
18495458571
18495466506
18495477920
18495488967
18495498061
18495507766
18495516982
18495526564
18495534987
18495546584
18495556288
18495566176
18495575392
18495584670
18495591017
18495603591
18495611586
18495622756
18495628493
18495641737
18495651564
18495660597
18495668776
18495678114
18495688368
18495698317
18495708449
18495715956
18495726637
18495734572
18495745497
18495754347
18495762221
18495773634
18495782423
18495788099
18495799879
18495810377
18495819960
18495827894
18495837110
18495847059
18495857008
18495866224
18495876051
18495887953
18495896375
18495906324
18495918348
18495926893
18495937025
18495946363
18495955396
18495964368
18495973463
18495983350
18495992750
18495998914
18496004102
18496011060
18496017896
18496023633
18496029432
18496035535
18496044385
18496048108
18496055677
18496062085
18496068433
18496074964
18496081495
18496087110
18496093580
18496099256
18496103772
18496109388
18496114392
18496121289
18496128125
18496135083
18496141797
18496147534
18496153333
18496159680
18496166394
18496170667
18496177808
18496183301
18496189832
18496193189
18496200330
18496206250
18496212964
18496218640
18496224622
18496231519
18496236951
18496244092
18496250928
18496256482
18496260938
18496269177
18496274304
18496280896
18496286755
18496294995
18496301526
18496309033
18496315381
18496323376
18496329358
18496336011
18496341565
18496349682
18496353711
18496362988
18496368542
18496376782
18496383679
18496391003
18496398205
18496404248
18496411267
18496418591
18496425183
18496432446
18496440441
18496445996
18496453198
18496460339
18496466259
18496472851
18496480664
18496486706
18496495678
18496502148
18496509228
18496515881
18496523876
18496531506
18496541576
18496545849
18496553478
18496558971
18496565929
18496571484
18496579052
18496587353
18496594189
18496601147
18496606457
18496613659
18496620312
18496626537
18496631542
18496639171
18496646435
18496654125
18496660045
18496667858
18496673595
18496681102
18496689159
18496694957
18496702770
18496709789
18496716076
18496723705
18496729992
18496736766
18496745067
18496750927
18496756298
18496762279
18496767650
18496773876
18496779186
18496786022
18496791515
18496798107
18496805980
18496811962
18496817516
18496825206
18496831432
18496839122
18496845897
18496853893
18496862071
18496869579
18496874522
18496883128
18496887645
18496897166
18496905833
18496913524
18496921031
18496928050
18496935313
18496942943
18496950633
18496957713
18496964610
18496971202
18496977488
18496985118
18496992198
18497000010
18497006114
18497013499
18497020884
18497028270
18497033885
18497042002
18497049082
18497056346
18497061167
18497069895
18497076914
18497084727
18497090952
18497098643
18497105113
18497113780
18497120432
18497126780
18497135386
18497141428
18497149363
18497155955
18497161997
18497171336
18497176890
18497185496
18497193308
18497200754
18497208872
18497216074
18497223887
18497230540
18497238596
18497244578
18497253550
18497258738
18497269907
18497274729
18497284922
18497290903
18497299021
18497306345
18497312204
18497319223
18497327646
18497333811
18497342539
18497349741
18497357675
18497364389
18497371591
18497381174
18497389231
18497396433
18497404428
18497410898
18497421030
18497427133
18497435129
18497441965
18497451730
18497460641
18497463266
18497474680
18497479990
18497488046
18497495798
18497500803
18497505380
18497515878
18497521188
18497527231
18497534372
18497539010
18497542917
18497550912
18497559823
18497565011
18497571237
18497576059
18497582284
18497588449
18497594064
18497600717
18497608468
18497612436
18497620492
18497624154
18497632272
18497638253
18497644174
18497652658
18497657662
18497664987
18497672067
18497678170
18497683236
18497690011
18497695687
18497706674
18497711923
18497718820
18497724984
18497731881
18497737374
18497746285
18497753365
18497758187
18497765206
18497769845
18497777047
18497782235
18497789010
18497795174
18497800912
18497807381
18497813973
18497819893
18497825936
18497832650
18497839303
18497845711
18497850899
18497857918
18497862801
18497869698
18497875557
18497882576
18497886788
18497894967
18497901741
18497907662
18497912972
18497917305
18497924446
18497929146
18497936470
18497941475
18497948921
18497955696
18497961617
18497966377
18497972603
18497978523
18497984749
18497988411
18497995491
18498001717
18498006233
18498013497
18498020332
18498025887
18498032295
18498038948
18498045296
18498051277
18498056709
18498062996
18498070808
18498077278
18498083198
18498091560
18498098274
18498104622
18498111397
18498118477
18498124519
18498131965
18498138191
18498143928
18498150093
18498157051
18498161079
18498168647
18498175544
18498182686
18498190132
18498195747
18498203193
18498210395
18498217781
18498223396
18498231391
18498237251
18498244453
18498249336
18498256477
18498261421
18498267524
18498273933
18498282051
18498287605
18498296272
18498302680
18498309638
18498317512
18498324287
18498330940
18498337959
18498345771
18498352668
18498358955
18498365485
18498370734
18498378486
18498384894
18498389899
18498395393
18498402778
18498408942
18498414741
18498420173
18498426703
18498432380
18498440375
18498447394
18498453986
18498458198
18498466987
18498471198
18498480109
18498486579
18498493842
18498500129
18498507453
18498514289
18498521979
18498528327
18498535590
18498542365
18498550177
18498556281
18498564093
18498571356
18498577704
18498584113
18498589728
18498597235
18498604743
18498610907
18498616766
18498624701
18498630805
18498637091
18498642767
18498650946
18498657721
18498663336
18498669562
18498678168
18498682257
18498691229
18498699835
18498707098
18498712591
18498719305
18498726935
18498733099
18498739691
18498748663
18498754645
18498762579
18498770575
18498778082
18498783331
18498791327
18498799932
18498806952
18498812994
18498822271
18498830328
18498836737
18498843206
18498847967
18498855596
18498864202
18498871282
18498876715
18498886236
18498892278
18498899786
18498908331
18498916631
18498921941
18498933416
18498938726
18498949346
18498954595
18498964605
18498971624
18498980840
18498985601
18498996343
18499002752
18499010808
18499017888
18499024419
18499033697
18499040471
18499048406
18499056463
18499064885
18499074224
18499082952
18499089360
18499097783
18499105657
18499108831
18499121221
18499129277
18499136785
18499142217
18499155461
18499161138
18499171880
18499179082
18499187993
18499190679
18499202641
18499209660
18499217961
18499225774
18499232732
18499239018
18499244145
18499249944
18499257268
18499263615
18499269658
18499277165
18499281316
18499288884
18499294499
18499300847
18499306340
18499313176
18499319890
18499325322
18499333195
18499339543
18499345036
18499351079
18499357914
18499364628
18499369877
18499376713
18499382878
18499389225
18499395268
18499401371
18499409245
18499415348
18499419987
18499428959
18499434758
18499441166
18499448063
18499452580
18499459843
18499467106
18499472355
18499477848
18499484440
18499489506
18499495976
18499502445
18499508305
18499514530
18499521427
18499527592
18499532230
18499539249
18499545170
18499550480
18499557377
18499563175
18499569950
18499575565
18499581608
18499586857
18499593754
18499599369
18499605411
18499610782
18499616581
18499623051
18499629032
18499635196
18499642154
18499648502
18499655033
18499659488
18499666568
18499673710
18499678714
18499683902
18499690555
18499696231
18499702579
18499709232
18499715763
18499721988
18499727420
18499734989
18499738895
18499746952
18499754703
18499761722
18499768253
18499774845
18499782779
18499788455
18499794742
18499801883
18499810062
18499817020
18499823001
18499829410
18499834964
18499843204
18499848087
18499857608
18499864627
18499871341
18499878116
18499883609
18499890323
18499896915
18499902896
18499908938
18499916019
18499920352
18499928714
18499934451
18499940860
18499948916
18499956851
18499961978
18499968570
18499974856
18499980716
18499987979
18499993838
18500000369
18500007449
18500012820
18500021426
18500027102
18500033938
18500039920
18500048098
18500054751
18500060183
18500066897
18500073306
18500080020
18500087954
18500093569
18500099978
18500107546
18500114321
18500120425
18500129336
18500135439
18500143130
18500149722
18500157107
18500162783
18500170290
18500176760
18500181948
18500188418
18500195132
18500202090
18500209109
18500215944
18500222536
18500228151
18500233706
18500242251
18500248537
18500254763
18500261171
18500266604
18500274233
18500281313
18500288393
18500295595
18500302492
18500308290
18500316835
18500324160
18500330812
18500338076
18500344362
18500352053
18500361147
18500369570
18500377504
18500385378
18500392946
18500402040
18500409242
18500415468
18500425722
18500432497
18500441103
18500447816
18500455019
18500462099
18500469789
18500477785
18500484254
18500491701
18500497743
18500507814
18500514650
18500523805
18500530275
18500537050
18500545656
18500551454
18500560914
18500568605
18500576356
18500582826
18500590516
18500596986
18500605836
18500611818
18500622071
18500627931
18500637940
18500645753
18500652406
18500661195
18500668824
18500678224
18500685304
18500692933
18500699769
18500707703
18500714539
18500722413
18500729127
18500738343
18500746461
18500754639
18500762391
18500769166
18500774232
18500784180
18500791444
18500797730
18500808900
18500816041
18500824097
18500831544
18500838685
18500845215
18500852784
18500860474
18500866333
18500872254
18500876709
18500883912
18500890870
18500897705
18500903992
18500910279
18500916993
18500921997
18500928833
18500934998
18500942627
18500949463
18500954041
18500962342
18500967407
18500973938
18500979736
18500987000
18500994080
18500999268
18501007019
18501012878
18501019287
18501025818
18501033386
18501038513
18501045105
18501053650
18501059692
18501064575
18501070557
18501076294
18501084656
18501090210
18501097107
18501101684
18501109558
18501115967
18501120666
18501128967
18501133728
18501141052
18501147155
18501151367
18501158264
18501163818
18501170898
18501177795
18501182006
18501188964
18501195678
18501200744
18501206359
18501213928
18501218872
18501225585
18501231506
18501236145
18501244201
18501250060
18501257324
18501263244
18501269287
18501275085
18501280639
18501287963
18501294128
18501299011
18501307617
18501312743
18501318298
18501325622
18501332153
18501340026
18501346069
18501352294
18501358520
18501364074
18501372558
18501379516
18501386840
18501390990
18501399962
18501406249
18501412292
18501419250
18501426269
18501433776
18501440917
18501447204
18501453673
18501460753
18501466369
18501473449
18501480651
18501486754
18501493834
18501499877
18501505858
18501514342
18501520629
18501528563
18501535094
18501541442
18501548644
18501553527
18501561705
18501567442
18501575682
18501581481
18501588072
18501594237
18501602477
18501609313
18501616576
18501623778
18501629637
18501636534
18501644713
18501649840
18501657652
18501664000
18501670042
18501676878
18501684386
18501690367
18501695555
18501703428
18501708800
18501716673
18501722777
18501729307
18501736021
18501742735
18501749632
18501754026
18501762205
18501769529
18501775633
18501781675
18501789610
18501797178
18501803831
18501810484
18501819029
18501824949
18501833372
18501837828
18501849241
18501856504
18501862486
18501869688
18501875425
18501883543
18501888365
18501896909
18501904600
18501910764
18501919248
18501925779
18501932188
18501938047
18501945554
18501954954
18501962095
18501969846
18501975828
18501983579
18501989500
18501998716
18502006162
18502013486
18502019895
18502028440
18502035825
18502041501
18502048887
18502057431
18502065183
18502073240
18502080381
18502088498
18502094480
18502100888
18502109494
18502115049
18502123838
18502131650
18502139524
18502146970
18502153378
18502162045
18502170163
18502178342
18502185300
18502192624
18502199948
18502206357
18502215939
18502223264
18502231320
18502238034
18502247739
18502253476
18502262692
18502268063
18502278744
18502284299
18502294125
18502299679
18502310422
18502313840
18502325131
18502330563
18502340756
18502349240
18502356137
18502366330
18502373471
18502380673
18502387448
18502396359
18502403195
18502413693
18502418820
18502428219
18502432614
18502440731
18502447750
18502454708
18502461910
18502467220
18502473568
18502477413
18502486446
18502493649
18502498470
18502505978
18502513180
18502519283
18502525875
18502531124
18502537472
18502542660
18502551083
18502557003
18502563290
18502568905
18502575802
18502580929
18502586361
18502593746
18502599788
18502606808
18502613888
18502619076
18502625606
18502632137
18502638424
18502644100
18502650570
18502656307
18502661678
18502668453
18502674556
18502679561
18502685787
18502691829
18502696773
18502703182
18502708431
18502717586
18502724971
18502729183
18502736812
18502741451
18502749507
18502757015
18502762752
18502768611
18502773860
18502781368
18502787532
18502793697
18502799129
18502805049
18502811641
18502817134
18502822993
18502830379
18502835689
18502843623
18502850581
18502856990
18502862971
18502869624
18502875545
18502882808
18502887752
18502895869
18502902339
18502908381
18502914424
18502922542
18502928035
18502933223
18502941829
18502946467
18502954036
18502960017
18502966853
18502974849
18502980952
18502988032
18502994563
18503001887
18503008113
18503012873
18503022090
18503027583
18503036189
18503041377
18503050227
18503056941
18503062861
18503072749
18503078730
18503086054
18503092890
18503098139
18503105036
18503110957
18503118342
18503125483
18503132441
18503140070
18503144099
18503152705
18503159724
18503166498
18503172907
18503180475
18503186640
18503193293
18503197443
18503205927
18503212397
18503219538
18503225947
18503231989
18503238215
18503246576
18503252924
18503261164
18503267817
18503274408
18503281244
18503286859
18503293940
18503300104
18503307489
18503314264
18503320429
18503327631
18503334955
18503342645
18503349542
18503354181
18503362726
18503369745
18503379266
18503387567
18503394891
18503402155
18503409235
18503417535
18503424860
18503431146
18503438348
18503447015
18503454584
18503462091
18503469232
18503477045
18503485040
18503492303
18503499750
18503507867
18503516168
18503522577
18503529657
18503536432
18503544000
18503550958
18503557550
18503564325
18503573297
18503578546
18503589410
18503598138
18503606195
18503613397
18503620843
18503629449
18503634454
18503643304
18503650811
18503657891
18503665948
18503673882
18503682305
18503686822
18503696893
18503704949
18503713311
18503719537
18503726128
18503735039
18503742364
18503750848
18503757989
18503766656
18503773614
18503780633
18503790948
18503796013
18503805840
18503815301
18503820916
18503830010
18503837029
18503846062
18503851372
18503861138
18503871025
18503877678
18503887322
18503895806
18503904473
18503912224
18503920708
18503928704
18503937004
18503942436
18503951164
18503959648
18503966179
18503974541
18503982720
18503990593
18503999077
18504004997
18504012383
18504019768
18504026848
18504033440
18504041069
18504048393
18504059257
18504064628
18504071525
18504075798
18504086174
18504093010
18504098625
18504105827
18504111992
18504117912
18504125297
18504131584
18504137382
18504143425
18504150139
18504155265
18504162773
18504166801
18504174797
18504183097
18504189567
18504194999
18504200004
18504207511
18504215507
18504223014
18504228630
18504233634
18504241203
18504247245
18504252433
18504258903
18504264091
18504270988
18504276969
18504283195
18504289542
18504294242
18504306144
18504311576
18504317619
18504323844
18504329887
18504335380
18504338981
18504346793
18504354117
18504360221
18504365531
18504370658
18504378287
18504384147
18504389335
18504396232
18504400626
18504407523
18504413199
18504421317
18504427543
18504433646
18504440299
18504446769
18504452018
18504457328
18504464469
18504470694
18504476432
18504483573
18504490042
18504496634
18504503043
18504508780
18504513663
18504521231
18504528372
18504534781
18504540152
18504546622
18504552420
18504559622
18504566275
18504573660
18504579398
18504585257
18504593924
18504598074
18504606192
18504612235
18504619620
18504627432
18504634817
18504640921
18504645865
18504653494
18504659170
18504668082
18504674795
18504682181
18504688162
18504694754
18504700796
18504708853
18504714895
18504721548
18504727530
18504735769
18504742422
18504749075
18504753042
18504761282
18504765249
18504773123
18504780203
18504786917
18504792776
18504799612
18504805349
18504812246
18504816336
18504825491
18504833303
18504840139
18504847769
18504853445
18504860525
18504868032
18504875112
18504881582
18504888113
18504894033
18504901113
18504908682
18504915456
18504920827
18504926382
18504933523
18504939748
18504945425
18504953847
18504957998
18504965932
18504972280
18504978078
18504984182
18504992360
18504999257
18505006276
18505013479
18505019277
18505026357
18505033803
18505038198
18505047719
18505052419
18505061391
18505065908
18505075917
18505080495
18505089894
18505097036
18505104726
18505109059
18505117482
18505121694
18505129323
18505136342
18505142568
18505148854
18505157765
18505164906
18505170766
18505176869
18505183400
18505189198
18505198903
18505205861
18505212697
18505219167
18505226369
18505232960
18505241383
18505247304
18505255116
18505261342
18505269276
18505277638
18505285206
18505293568
18505299428
18505307179
18505314564
18505321522
18505326405
18505338734
18505346791
18505352650
18505360157
18505368885
18505375477
18505382191
18505389393
18505399098
18505403981
18505413502
18505420521
18505427906
18505434315
18505441700
18505447987
18505456043
18505462208
18505470997
18505477223
18505485706
18505492909
18505502064
18505508900
18505512012
18505525623
18505532215
18505541920
18505549732
18505556080
18505564381
18505572620
18505578113
18505588733
18505595691
18505602344
18505608936
18505618885
18505625232
18505633655
18505643970
18505651416
18505658069
18505666736
18505675891
18505682849
18505690906
18505698291
18505704029
18505708728
18505719287
18505724231
18505732044
18505738208
18505746204
18505752673
18505759326
18505763355
18505772144
18505778552
18505785205
18505791431
18505798145
18505804248
18505810901
18505817126
18505823047
18505827991
18505833911
18505840137
18505846179
18505851550
18505857837
18505864673
18505869556
18505877490
18505882495
18505889392
18505896533
18505901843
18505909045
18505914477
18505921740
18505927539
18505932299
18505939624
18505946643
18505952502
18505958239
18505963855
18505968920
18505975146
18505980334
18505986926
18505992358
18505999682
18506006457
18506012622
18506016406
18506023425
18506029284
18506035204
18506040942
18506047228
18506053820
18506060229
18506065844
18506070178
18506076952
18506081774
18506088061
18506094164
18506100695
18506107043
18506111742
18506117602
18506123705
18506128466
18506134508
18506140307
18506146593
18506152087
18506157885
18506164294
18506169237
18506175829
18506180285
18506187914
18506193102
18506199755
18506206591
18506213488
18506218859
18506224291
18506232592
18506237841
18506243212
18506249743
18506255175
18506262133
18506268480
18506275011
18506283434
18506290575
18506297289
18506304674
18506310594
18506317858
18506324632
18506331041
18506337999
18506343309
18506351244
18506355211
18506366258
18506372972
18506379198
18506384996
18506392015
18506399767
18506404832
18506412218
18506417711
18506425035
18506430894
18506438219
18506444261
18506451158
18506455125
18506463548
18506471055
18506478197
18506484300
18506490770
18506497484
18506502305
18506509019
18506515977
18506522874
18506529100
18506537706
18506543870
18506549119
18506555162
18506563340
18506569078
18506576646
18506583909
18506590257
18506597947
18506603257
18506609910
18506616807
18506623399
18506631150
18506638230
18506644700
18506650742
18506656297
18506665086
18506669968
18506678941
18506685349
18506692002
18506699632
18506706406
18506712022
18506717454
18506724717
18506730881
18506738450
18506745408
18506752366
18506757432
18506764512
18506771287
18506778245
18506786912
18506794663
18506802292
18506808274
18506815781
18506821152
18506828476
18506835312
18506841233
18506848069
18506855576
18506860764
18506868637
18506874009
18506882981
18506892197
18506899887
18506906479
18506914841
18506921799
18506930039
18506935044
18506945603
18506952438
18506959458
18506966171
18506974228
18506981125
18506989548
18506998337
18507005600
18507012680
18507020065
18507029465
18507036362
18507043320
18507051864
18507058517
18507067673
18507074814
18507084396
18507091720
18507100815
18507107589
18507116440
18507122909
18507130356
18507137069
18507146286
18507153549
18507161605
18507169052
18507176437
18507180770
18507190719
18507195480
18507207076
18507214096
18507221969
18507227706
18507236984
18507241622
18507252609
18507262130
18507270614
18507276778
18507284713
18507292892
18507301009
18507308273
18507316817
18507327315
18507335860
18507343978
18507354537
18507362411
18507368941
18507379073
18507385543
18507397078
18507403731
18507412520
18507418624
18507427169
18507432540
18507441207
18507446273
18507455916
18507462203
18507468856
18507472335
18507480696
18507484359
18507493209
18507500228
18507507064
18507513045
18507519332
18507524703
18507531233
18507537947
18507543196
18507551497
18507558882
18507565291
18507571700
18507577925
18507583418
18507591109
18507598677
18507602644
18507610396
18507614546
18507624373
18507630354
18507636092
18507643904
18507648970
18507655195
18507662703
18507668257
18507673994
18507679304
18507687605
18507691878
18507698530
18507703108
18507709883
18507717146
18507722395
18507730085
18507734724
18507742170
18507747175
18507753340
18507757856
18507765058
18507772139
18507777693
18507783979
18507789045
18507795393
18507801435
18507807417
18507812300
18507819746
18507826460
18507832197
18507838239
18507843977
18507850202
18507855390
18507863691
18507867475
18507875349
18507881940
18507887434
18507893354
18507899946
18507907575
18507911054
18507918928
18507925336
18507932355
18507937421
18507943281
18507951642
18507956891
18507964338
18507970136
18507976972
18507984052
18507990400
18507997602
18508004682
18508011945
18508017316
18508023969
18508029096
18508036237
18508041791
18508051191
18508057904
18508064252
18508070966
18508077252
18508083539
18508090497
18508098859
18508104413
18508111493
18508117291
18508123517
18508129498
18508136273
18508144452
18508151410
18508157208
18508163739
18508169537
18508176556
18508184308
18508188275
18508198529
18508205243
18508211713
18508218426
18508225201
18508231061
18508238202
18508244977
18508250165
18508257672
18508262738
18508270794
18508276715
18508283978
18508292096
18508296978
18508304364
18508311017
18508317059
18508323956
18508330975
18508336651
18508346234
18508352215
18508358380
18508364666
18508370953
18508378155
18508385296
18508391888
18508399884
18508405438
18508410626
18508418194
18508424175
18508431439
18508439312
18508445782
18508453106
18508460674
18508466595
18508473431
18508478619
18508486126
18508493084
18508499248
18508507793
18508514385
18508521954
18508529217
18508536419
18508543255
18508550091
18508557293
18508564068
18508571392
18508576641
18508585918
18508591167
18508600811
18508607036
18508615093
18508621318
18508630108
18508636394
18508643108
18508652080
18508660503
18508667217
18508674663
18508681011
18508690166
18508697307
18508704692
18508709697
18508721050
18508725749
18508735515
18508740032
18508749919
18508757488
18508764873
18508773479
18508781535
18508790080
18508798198
18508807292
18508814128
18508823466
18508830363
18508838969
18508845256
18508854350
18508858867
18508868754
18508875957
18508882853
18508889689
18508898417
18508906413
18508914286
18508918986
18508929606
18508938029
18508946330
18508951823
18508962687
18508971904
18508978129
18508989482
18508996073
18509004740
18509012675
18509020304
18509028849
18509036967
18509042948
18509051066
18509059184
18509067423
18509073588
18509083109
18509090617
18509096964
18509103922
18509108683
18509116679
18509123881
18509128397
18509136942
18509142435
18509150126
18509158488
18509164469
18509171366
18509178385
18509183695
18509190775
18509197794
18509203775
18509209574
18509212992
18509221170
18509229837
18509235270
18509242838
18509247965
18509254679
18509262003
18509268289
18509272318
18509282328
18509288919
18509294718
18509302103
18509308695
18509314676
18509322855
18509328409
18509334268
18509339761
18509342935
18509350443
18509357095
18509361185
18509368692
18509375406
18509380899
18509386087
18509392618
18509398050
18509404581
18509412515
18509417215
18509422891
18509429544
18509435037
18509440408
18509445779
18509452249
18509457803
18509464761
18509469461
18509475931
18509480386
18509487710
18509491067
18509500345
18509505594
18509510843
18509516580
18509522744
18509529885
18509534951
18509542031
18509548989
18509554605
18509560525
18509566201
18509572976
18509579263
18509586465
18509593484
18509599160
18509606362
18509610757
18509618264
18509623269
18509631814
18509636758
18509643777
18509649758
18509658425
18509664834
18509669534
18509678506
18509683938
18509691628
18509696694
18509704324
18509708108
18509715981
18509721413
18509731057
18509737343
18509743508
18509749673
18509755715
18509761818
18509768960
18509776711
18509782998
18509790139
18509796669
18509802956
18509809182
18509816262
18509826149
18509831643
18509838906
18509844399
18509852455
18509856423
18509865395
18509873268
18509880348
18509887673
18509894814
18509900856
18509909279
18509916664
18509922829
18509930641
18509937294
18509945839
18509954384
18509959511
18509966042
18509973183
18509980141
18509985451
18509995644
18510001869
18510008705
18510015724
18510021400
18510030739
18510038002
18510044594
18510052101
18510058632
18510067238
18510074074
18510082557
18510086647
18510096534
18510100563
18510109535
18510116676
18510124427
18510131507
18510137245
18510145546
18510153480
18510160438
18510166786
18510172706
18510181434
18510185340
18510193641
18510197547
18510206397
18510210304
18510220252
18510226722
18510233070
18510241004
18510246131
18510253639
18510260597
18510266151
18510271827
18510280860
18510288428
18510295997
18510300513
18510310340
18510314857
18510323707
18510330665
18510338355
18510342994
18510352332
18510360267
18510368018
18510373877
18510382239
18510390052
18510395850
18510403540
18510411109
18510417090
18510424659
18510432410
18510439917
18510449805
18510455664
18510463660
18510472449
18510479224
18510487586
18510494605
18510501624
18510510230
18510517127
18510525305
18510532202
18510540747
18510547949
18510555396
18510562537
18510572119
18510576758
18510586462
18510591162
18510600439
18510605017
18510614661
18510622961
18510628760
18510636816
18510645056
18510651221
18510660193
18510665442
18510674719
18510682593
18510691992
18510697241
18510707495
18510715124
18510723669
18510730627
18510737463
18510747106
18510754858
18510759619
18510767797
18510775061
18510781774
18510787695
18510794714
18510802587
18510807775
18510814916
18510818578
18510826635
18510832800
18510838781
18510846716
18510853368
18510858556
18510865026
18510871008
18510876134
18510883703
18510889684
18510896520
18510902563
18510908544
18510914709
18510921056
18510927221
18510933996
18510942418
18510947729
18510954564
18510961156
18510967565
18510972570
18510978368
18510983800
18510991063
18510996496
18511003698
18511009374
18511015050
18511021642
18511027440
18511034093
18511040746
18511047155
18511051915
18511058934
18511064305
18511070470
18511076757
18511083043
18511088292
18511093663
18511100682
18511105321
18511112279
18511118993
18511124730
18511131261
18511137608
18511143346
18511148656
18511157506
18511161290
18511168553
18511176549
18511181187
18511187718
18511193455
18511200658
18511207005
18511212987
18511218602
18511224339
18511231602
18511238438
18511243870
18511249058
18511256260
18511262791
18511268712
18511274754
18511280736
18511286656
18511292454
18511300511
18511306065
18511313145
18511319127
18511327610
18511331517
18511340489
18511348240
18511355686
18511361485
18511368260
18511374058
18511382603
18511388157
18511393894
18511401463
18511409092
18511415379
18511420262
18511426731
18511433689
18511438877
18511447117
18511454319
18511460362
18511467258
18511473240
18511478550
18511487034
18511491062
18511499973
18511506016
18511512363
18511519443
18511524937
18511533420
18511538364
18511547092
18511552585
18511558994
18511564365
18511571384
18511576877
18511584934
18511589267
18511598850
18511606296
18511613437
18511619053
18511625949
18511631992
18511637485
18511645053
18511650363
18511657688
18511665012
18511671298
18511677341
18511684421
18511693271
18511698276
18511705600
18511711398
18511718662
18511724338
18511732578
18511739597
18511747836
18511754794
18511761569
18511767856
18511775485
18511783298
18511789951
18511798984
18511805759
18511811679
18511817599
18511826022
18511830295
18511839450
18511843722
18511851840
18511859775
18511867099
18511874423
18511879794
18511886813
18511893954
18511902621
18511910006
18511916476
18511922519
18511930697
18511936923
18511944735
18511952059
18511960665
18511967257
18511975314
18511981845
18511988619
18511995455
18512005221
18512012484
18512022616
18512027682
18512036288
18512042880
18512051974
18512059420
18512065707
18512072237
18512080294
18512086703
18512095736
18512100436
18512109041
18512116549
18512124239
18512129000
18512138033
18512146273
18512152315
18512159884
18512166842
18512173433
18512183016
18512191744
18512197969
18512202547
18512214022
18512218721
18512228060
18512235994
18512242464
18512250582
18512259188
18512264681
18512276094
18512281221
18512290804
18512297884
18512305391
18512312715
18512322420
18512329561
18512337007
18512344331
18512353548
18512361177
18512371370
18512379243
18512386507
18512396150
18512403108
18512409029
18512416780
18512424531
18512430147
18512438875
18512447542
18512451692
18512460115
18512466951
18512473787
18512481294
18512488984
18512495759
18512501497
18512509797
18512516145
18512522309
18512527742
18512534516
18512541047
18512547151
18512552949
18512558992
18512564790
18512571321
18512577668
18512583650
18512591828
18512597138
18512604279
18512610078
18512616120
18512619965
18512627839
18512635224
18512640229
18512647370
18512653840
18512660493
18512665192
18512671479
18512678376
18512685151
18512690949
18512697236
18512704316
18512710297
18512715974
18512722687
18512728242
18512733552
18512740693
18512746308
18512751801
18512758088
18512762421
18512769501
18512775605
18512780793
18512786896
18512796235
18512802338
18512808075
18512815583
18512820160
18512826508
18512830780
18512836457
18512842560
18512848297
18512853913
18512862030
18512865326
18512872406
18512877838
18512884674
18512890167
18512897797
18512905731
18512911591
18512917572
18512922150
18512928558
18512935211
18512940521
18512947723
18512954132
18512960480
18512966583
18512971588
18512978851
18512984955
18512991547
18512998566
18513004974
18513009308
18513017181
18513023285
18513031952
18513036285
18513044830
18513051727
18513058441
18513060882
18513070343
18513077667
18513083099
18513087555
18513096038
18513100555
18513109039
18513115142
18513122161
18513128997
18513134613
18513141754
18513148773
18513156707
18513161895
18513168731
18513175872
18513181487
18513188690
18513194610
18513199920
18513207733
18513215057
18513220123
18513227081
18513232452
18513239593
18513246001
18513252288
18513261077
18513266875
18513273955
18513279998
18513289092
18513295989
18513303313
18513310638
18513317412
18513323760
18513330413
18513337493
18513344024
18513349639
18513356292
18513363433
18513370147
18513377166
18513382476
18513390227
18513397063
18513402800
18513409636
18513416716
18513423796
18513430205
18513435149
18513442473
18513449553
18513456389
18513462065
18513469939
18513475493
18513483061
18513490874
18513497344
18513502837
18513510832
18513518034
18513526152
18513532439
18513541960
18513548430
18513555998
18513562346
18513571257
18513577238
18513585478
18513591704
18513598479
18513604521
18513612944
18513618559
18513625578
18513630888
18513641020
18513647123
18513653593
18513659636
18513667082
18513674955
18513681303
18513687529
18513698271
18513705107
18513712980
18513721586
18513728910
18513735441
18513743986
18513750212
18513760221
18513767118
18513773832
18513782194
18513790678
18513796781
18513803373
18513811125
18513819181
18513825041
18513832731
18513838956
18513846830
18513855253
18513860197
18513869535
18513877225
18513882963
18513889860
18513897794
18513904691
18513912504
18513918973
18513926969
18513934293
18513940519
18513950590
18513956876
18513963468
18513972135
18513980436
18513987638
18513994596
18514003141
18514009549
18514014798
18514024625
18514031949
18514040006
18514047330
18514056790
18514061307
18514072354
18514078885
18514087064
18514093961
18514102384
18514108670
18514118314
18514125577
18514131314
18514142056
18514147305
18514155484
18514161649
18514170193
18514177029
18514182095
18514191617
18514196988
18514203519
18514210538
18514214322
18514223416
18514230496
18514237454
18514244107
18514250577
18514252591
18514262112
18514268460
18514274929
18514281277
18514286404
18514294949
18514300320
18514307339
18514314541
18514320950
18514326382
18514333401
18514338589
18514345791
18514352993
18514359524
18514366055
18514372647
18514378445
18514385342
18514392605
18514399136
18514405422
18514410305
18514416592
18514422878
18514426785
18514435329
18514439358
18514448391
18514453335
18514460781
18514466824
18514471767
18514477932
18514484585
18514490993
18514496426
18514501125
18514506740
18514513332
18514517788
18514524502
18514529568
18514536037
18514543239
18514548244
18514553371
18514559536
18514564357
18514571376
18514574855
18514582668
18514586086
18514594753
18514600612
18514606777
18514613247
18514619472
18514626430
18514632961
18514638271
18514643215
18514650051
18514655117
18514661037
18514666835
18514674282
18514680812
18514687648
18514691921
18514700160
18514707240
18514712611
18514720668
18514727382
18514734279
18514740810
18514747707
18514753932
18514759731
18514766078
18514774257
18514779689
18514786464
18514791896
18514798183
18514804896
18514811671
18514817348
18514824122
18514830043
18514838283
18514844874
18514851710
18514855433
18514864467
18514868556
18514878627
18514885157
18514891383
18514896693
18514902919
18514909510
18514915553
18514923060
18514927943
18514934535
18514941249
18514947352
18514954005
18514959803
18514964442
18514972804
18514978724
18514986537
18514991969
18514998316
18515003626
18515011073
18515016810
18515026453
18515032435
18515038599
18515045435
18515050318
18515057886
18515064356
18515072108
18515077723
18515085657
18515090479
18515097559
18515104334
18515109644
18515116785
18515124293
18515129847
18515137110
18515142969
18515150232
18515153956
18515162317
18515166468
18515176966
18515183252
18515189905
18515196863
18515204065
18515210230
18515217371
18515226038
18515231653
18515239282
18515246546
18515252527
18515259363
18515266748
18515272058
18515279688
18515286829
18515293909
18515299097
18515306177
18515312830
18515319971
18515325403
18515334741
18515340662
18515348169
18515353723
18515360803
18515366296
18515374231
18515379968
18515391321
18515397302
18515405542
18515411218
18515420434
18515426416
18515435632
18515441308
18515451623
18515457788
18515465417
18515472680
18515479577
18515486901
18515493188
18515501001
18515509912
18515518212
18515524926
18515530542
18515538415
18515545495
18515552758
18515558251
18515569177
18515577661
18515585168
18515594933
18515602136
18515609033
18515619042
18515623925
18515635156
18515639855
18515649377
18515657433
18515666100
18515675072
18515683190
18515689477
18515701623
18515708459
18515716698
18515725426
18515734398
18515742638
18515751183
18515762291
18515769494
18515778710
18515789330
18515798180
18515805382
18515813988
18515823143
18515831688
18515837792
18515846276
18515852684
18515862084
18515868065
18515877342
18515883202
18515888390
18515898827
18515905846
18515912926
18515917137
18515925133
18515931297
18515936913
18515940819
18515950279
18515956444
18515962608
18515968407
18515974693
18515981102
18515987327
18515994774
18515999534
18516006798
18516013573
18516019554
18516026390
18516032371
18516038048
18516045860
18516052391
18516058616
18516064293
18516070274
18516073875
18516081810
18516088707
18516094688
18516098411
18516106529
18516112266
18516118003
18516124290
18516130760
18516138938
18516145652
18516151573
18516156516
18516162437
18516168785
18516174400
18516179588
18516187522
18516193076
18516201194
18516204856
18516211326
18516217368
18516222678
18516229758
18516234397
18516240073
18516245689
18516252586
18516258811
18516264243
18516269004
18516275596
18516280540
18516287498
18516293784
18516299216
18516305137
18516310386
18516317039
18516323325
18516328879
18516334556
18516339133
18516345298
18516351401
18516356528
18516364646
18516372153
18516377951
18516383323
18516389548
18516396811
18516403708
18516410971
18516416892
18516426352
18516433737
18516440634
18516448142
18516454428
18516461386
18516466269
18516473960
18516479392
18516487570
18516492941
18516499960
18516507773
18516514060
18516519492
18516525900
18516531393
18516538962
18516544455
18516551169
18516556845
18516563010
18516569540
18516577353
18516581442
18516590109
18516594137
18516602499
18516606894
18516614645
18516621359
18516627768
18516633932
18516638754
18516646444
18516651754
18516660238
18516665670
18516673727
18516679159
18516686544
18516693624
18516700949
18516710104
18516717123
18516722921
18516730062
18516735739
18516743795
18516747885
18516755697
18516763571
18516770529
18516777364
18516784322
18516791036
18516798177
18516803915
18516810995
18516818136
18516825338
18516831747
18516838766
18516845541
18516852315
18516857931
18516864584
18516871542
18516876302
18516883749
18516888692
18516895406
18516901998
18516908529
18516913839
18516920797
18516927755
18516932821
18516939473
18516946126
18516951436
18516959310
18516964925
18516974813
18516980428
18516987813
18516995259
18517002401
18517008382
18517016317
18517024190
18517032735
18517038533
18517046956
18517053487
18517062398
18517068685
18517076192
18517083516
18517091939
18517097920
18517106099
18517111531
18517119222
18517124532
18517131917
18517138203
18517147847
18517153706
18517160298
18517168660
18517175252
18517183369
18517190938
18517198811
18517204793
18517213948
18517218831
18517229329
18517234150
18517243855
18517248127
18517257588
18517264790
18517274800
18517283467
18517289143
18517294331
18517305622
18517310444
18517319111
18517325764
18517336384
18517341999
18517352253
18517357929
18517368305
18517372578
18517383320
18517392902
18517401081
18517406635
18517414082
18517423054
18517428608
18517435505
18517443256
18517452167
18517459736
18517467487
18517473225
18517479389
18517488056
18517495685
18517501911
18517508442
18517517658
18517525348
18517532856
18517539631
18517547138
18517556476
18517563556
18517569660
18517578449
18517585102
18517593158
18517601764
18517609272
18517615436
18517623004
18517629962
18517636798
18517643817
18517650531
18517657062
18517662738
18517668598
18517674701
18517680682
18517688434
18517693134
18517699786
18517706134
18517712177
18517716937
18517723468
18517728717
18517736163
18517741840
18517748492
18517753863
18517761249
18517767047
18517774005
18517780109
18517788959
18517795550
18517801898
18517808185
18517812640
18517818194
18517824542
18517831561
18517838153
18517844928
18517851275
18517857013
18517861590
18517868853
18517875323
18517881732
18517887103
18517893206
18517899493
18517905230
18517910418
18517917620
18517923419
18517930560
18517934283
18517941973
18517948260
18517952410
18517958819
18517964495
18517973284
18517978045
18517984820
18517991778
18517997759
18518006304
18518011370
18518019366
18518025042
18518031512
18518039080
18518044695
18518050188
18518056109
18518062212
18518068987
18518074969
18518081377
