17858473081
17858476682
17858479977
17858483579
17858486752
17858490659
17858494138
17858497983
17858501950
17858506100
17858510312
17858514584
17858518307
17858523556
17858528317
17858533871
17858538266
17858544858
17858550229
17858556821
17858563229
17858569089
17858576108
17858583127
17858589596
17858596493
17858602597
17858610714
17858617306
17858624691
17858634579
17858640988
17858646969
17858656247
17858664303
17858670773
17858679562
17858687252
17858694332
17858701412
17858709957
17858718136
17858724545
17858733639
17858742001
17858750729
17858757931
17858766415
17858770992
17858780880
17858788693
17858794796
17858802242
17858811092
17858816952
17858825436
17858832638
17858840389
17858847225
17858852840
17858861263
17858869747
17858876583
17858883907
17858891781
17858901607
17858908565
17858917720
17858923275
17858930416
17858935848
17858945369
17858951595
17858961299
17858969661
17858975032
17858984859
17858993526
17859001583
17859009822
17859017330
17859027767
17859035823
17859043819
17859052669
17859062557
17859069759
17859077937
17859087154
17859094417
17859103511
17859111995
17859120601
17859128291
17859136165
17859142146
17859153071
17859161189
17859169368
17859176265
17859184993
17859192988
17859200862
17859213252
17859223933
17859232417
17859241755
17859254451
17859263911
17859273677
17859281794
17859288691
17859295527
17859301936
17859309626
17859317500
17859325068
17859335261
17859345759
17859354609
17859363886
17859373286
17859379206
17859388483
17859396296
17859406245
17859412958
17859418818
17859428706
17859438105
17859445917
17859452692
17859460383
17859468012
17859474482
17859483271
17859491999
17859498896
17859508478
17859515619
17859521723
17859529291
17859541803
17859549433
17859555963
17859565424
17859572626
17859580683
17859588922
17859597711
17859603815
17859612909
17859619745
17859627313
17859634699
17859644220
17859654108
17859661249
17859669305
17859674982
17859685053
17859692011
17859699884
17859707941
17859713434
17859724054
17859730829
17859739130
17859748956
17859757257
17859764581
17859771539
17859780267
17859788934
17859796014
17859805108
17859813836
17859821405
17859830194
17859838189
17859844354
17859852716
17859860833
17859869744
17859878350
17859887017
17859895989
17859907830
17859918694
17859929193
17859940301
17859950250
17859956292
17859965936
17859971307
17859981744
17859990228
17859997124
17860006707
17860014031
17860023125
17860031670
17860042351
17860051201
17860058404
17860065728
17860071709
17860079949
17860087700
17860096856
17860104363
17860109734
17860119805
17860126152
17860135796
17860144341
17860152703
17860160759
17860168145
17860175286
17860183037
17860191521
17860199517
17860207024
17860215141
17860221062
17860231682
17860237969
17860248222
17860254570
17860262199
17860270439
17860276360
17860285515
17860293266
17860302910
17860311882
17860318352
17860329521
17860334709
17860346733
17860353935
17860361931
17860371513
17860379875
17860386772
17860393974
17860402580
17860411552
17860423881
17860431511
17860441764
17860449089
17860457878
17860465385
17860474296
17860481620
17860489494
17860496940
17860507621
17860515312
17860524223
17860533134
17860540397
17860551078
17860558646
17860567741
17860577201
17860587760
17860599967
17860609794
17860624015
17860630179
17860639884
17860648978
17860655875
17860663444
17860671561
17860679007
17860687797
17860695975
17860704398
17860710379
17860720572
17860726615
17860733878
17860742789
17860747977
17860756217
17860761710
17860771659
17860776908
17860785575
17860795218
17860804068
17860811331
17860818472
17860826163
17860831046
17860839652
17860846243
17860853323
17860859061
17860865836
17860872549
17860878714
17860884085
17860891531
17860899344
17860904776
17860912711
17860918265
17860925772
17860930472
17860937186
17860944266
17860949515
17860955374
17860962149
17860965811
17860974417
17860978262
17860985525
17860991995
17860997488
17861004934
17861010244
17861017202
17861023977
17861028616
17861036001
17861042959
17861050894
17861056753
17861063833
17861070852
17861076162
17861083486
17861089529
17861097341
17861104971
17861112295
17861119741
17861126882
17861132681
17861140188
17861147695
17861154348
17861161977
17861168630
17861176626
17861184194
17861192983
17861199575
17861205862
17861213186
17861221975
17861228261
17861235952
17861244863
17861252370
17861261953
17861269155
17861279714
17861287649
17861293813
17861303273
17861309377
17861317922
17861322011
17861332204
17861338735
17861346730
17861352895
17861358876
17861363637
17861375783
17861383168
17861389821
17861398610
17861406484
17861411855
17861419972
17861425832
17861432790
17861440785
17861448415
17861456105
17861463490
17861471547
17861478566
17861487050
17861493703
17861497609
17861508717
17861513112
17861522633
17861529042
17861537221
17861541127
17861549550
17861555531
17861565297
17861571583
17861580555
17861586598
17861595570
17861601307
17861609303
17861621205
17861627491
17861636036
17861642201
17861647267
17861657704
17861664723
17861673146
17861679127
17861687062
17861696644
17861704212
17861711720
17861717701
17861726429
17861732166
17861740040
17861746693
17861754505
17861763599
17861771412
17861777576
17861785633
17861792286
17861799610
17861808094
17861817493
17861824695
17861832264
17861840870
17861847889
17861854542
17861860767
17861869678
17861875782
17861886524
17861890918
17861901294
17861907154
17861915393
17861921070
17861929554
17861937671
17861945972
17861952320
17861960559
17861968799
17861975086
17861982715
17861988819
17861998218
17862007251
17862013965
17862020618
17862030200
17862039600
17862049243
17862056567
17862066211
17862077319
17862083667
17862091479
17862099109
17862104602
17862113391
17862120776
17862126391
17862135364
17862144031
17862150317
17862157214
17862164050
17862170520
17862176318
17862182177
17862189746
17862194384
17862201342
17862205737
17862213672
17862217944
17862224902
17862231372
17862238208
17862244555
17862249865
17862255419
17862261706
17862267932
17862273669
17862280322
17862286608
17862292529
17862298571
17862304919
17862309435
17862316210
17862320666
17862329272
17862332629
17862340563
17862346240
17862351183
17862355456
17862362841
17862368517
17862375536
17862381762
17862387743
17862394213
17862399828
17862405993
17862411608
17862418444
17862422900
17862428637
17862434557
17862440783
17862446093
17862451830
17862456835
17862463183
17862469164
17862474291
17862479784
17862484972
17862490709
17862495043
17862503283
17862507677
17862514452
17862519274
17862526720
17862530870
17862536730
17862545031
17862549608
17862556383
17862562609
17862568163
17862574327
17862579027
17862587084
17862593431
17862598802
17862604418
17862609300
17862616930
17862624010
17862628893
17862637743
17862643541
17862651354
17862656175
17862662889
17862669115
17862677171
17862685655
17862691087
17862698656
17862703783
17862709947
17862716478
17862722093
17862727342
17862736436
17862742052
17862749071
17862754442
17862761033
17862766221
17862771715
17862779649
17862786424
17862793260
17862799669
17862806627
17862811692
17862819383
17862824266
17862831895
17862839769
17862845933
17862850877
17862858628
17862865220
17862871385
17862878831
17862884568
17862890550
17862897630
17862903428
17862910081
17862915818
17862922105
17862927537
17862933091
17862939744
17862946092
17862951402
17862958970
17862965257
17862973130
17862979111
17862983994
17862991441
17862996506
17863003464
17863008469
17863016038
17863023545
17863029648
17863036118
17863043198
17863046433
17863055588
17863061570
17863068589
17863073227
17863079941
17863085923
17863093186
17863098191
17863105271
17863112290
17863117417
17863124863
17863130783
17863135910
17863142075
17863148850
17863153672
17863160263
17863166916
17863174118
17863179734
17863189072
17863196640
17863204636
17863210251
17863218491
17863227585
17863235336
17863241684
17863249191
17863256699
17863264816
17863272690
17863280624
17863289047
17863294113
17863302597
17863309799
17863316391
17863322006
17863330978
17863336471
17863345260
17863351974
17863358078
17863363693
17863374069
17863380295
17863388168
17863395065
17863401474
17863407272
17863416671
17863420395
17863429611
17863434860
17863445358
17863452316
17863460495
17863467453
17863473800
17863478988
17863487106
17863495345
17863501937
17863507919
17863516403
17863522140
17863531539
17863538131
17863545028
17863550582
17863560104
17863566146
17863573837
17863579574
17863589584
17863595748
17863603438
17863610946
17863617049
17863625228
17863634139
17863640548
17863648055
17863655440
17863660994
17863668685
17863675094
17863683883
17863690963
17863699141
17863704085
17863712447
17863718062
17863726180
17863732833
17863740401
17863747908
17863754744
17863762129
17863768599
17863775008
17863782759
17863789717
17863795516
17863802046
17863807051
17863812850
17863818709
17863824812
17863829512
17863836165
17863842879
17863848860
17863853194
17863859358
17863863814
17863871504
17863876631
17863884138
17863890120
17863895308
17863901533
17863908919
17863916487
17863923445
17863929671
17863935408
17863943342
17863950056
17863955855
17863963423
17863970930
17863976118
17863983503
17863988936
17863996809
17864003157
17864009260
17864015059
17864022505
17864028669
17864035383
17864043196
17864049421
17864055647
17864059797
17864066023
17864070539
17864078047
17864082624
17864089216
17864093611
17864102094
17864107404
17864113386
17864117597
17864123945
17864129743
17864135786
17864142194
17864146894
17864152998
17864157026
17864163923
17864168501
17864175214
17864180036
17864185773
17864190900
17864197370
17864202131
17864208234
17864213239
17864219892
17864226362
17864232892
17864238447
17864244489
17864250104
17864257917
17864263410
17864269269
17864275983
17864282880
17864288617
17864294965
17864302045
17864308942
17864316083
17864323590
17864329145
17864336713
17864343183
17864351178
17864358014
17864363080
17864371320
17864377240
17864382428
17864387067
17864394940
17864400861
17864408490
17864412885
17864419660
17864426007
17864432111
17864438214
17864443158
17864449139
17864457257
17864464703
17864471905
17864478436
17864485394
17864490399
17864496930
17864503400
17864508526
17864516705
17864522259
17864529889
17864537640
17864543744
17864551068
17864558087
17864565045
17864572430
17864577923
17864584820
17864586956
17864595501
17864601300
17864608014
17864613568
17864620587
17864628277
17864633892
17864642193
17864646832
17864653607
17864660382
17864665936
17864671063
17864679608
17864685833
17864692120
17864700176
17864706158
17864712200
17864718975
17864725506
17864730145
17864735333
17864742230
17864747845
17864754742
17864760845
17864767376
17864772625
17864778728
17864783733
17864790874
17864797893
17864802715
17864809063
17864815410
17864821270
17864827740
17864834392
17864839641
17864848186
17864854412
17864862652
17864869915
17864876751
17864882854
17864888836
17864894024
17864904155
17864908672
17864917278
17864923870
17864931987
17864937969
17864944133
17864951152
17864959819
17864966777
17864973003
17864979961
17864986125
17864992595
17865000102
17865007915
17865013103
17865020183
17865027812
17865033366
17865042339
17865049541
17865056743
17865065959
17865074260
17865080974
17865090922
17865096416
17865104777
17865109599
17865118510
17865124248
17865132487
17865139812
17865145671
17865152263
17865161357
17865171061
17865179545
17865190104
17865200969
17865207255
17865213359
17865219584
17865227275
17865234050
17865241740
17865249308
17865257792
17865264506
17865271769
17865280131
17865289591
17865296183
17865303629
17865311808
17865319254
17865326518
17865332926
17865340434
17865347086
17865354838
17865363078
17865373026
17865382670
17865390177
17865394450
17865402506
17865406290
17865412699
17865418436
17865424906
17865429301
17865435770
17865442423
17865449686
17865455912
17865462565
17865467997
17865475687
17865482645
17865487406
17865496744
17865502543
17865508036
17865512613
17865519388
17865526712
17865532755
17865539774
17865546305
17865552652
17865558267
17865561807
17865569376
17865573831
17865580362
17865586160
17865591959
17865597574
17865603433
17865608316
17865614298
17865619241
17865624735
17865631570
17865637003
17865641763
17865647134
17865653726
17865660013
17865666116
17865671243
17865676492
17865681924
17865687356
17865692056
17865698160
17865704446
17865710916
17865717691
17865723123
17865728250
17865732828
17865739114
17865744241
17865750345
17865756997
17865764627
17865774392
17865780923
17865787027
17865796670
17865802774
17865808328
17865814248
17865819925
17865824258
17865831826
17865838723
17865844949
17865850320
17865857766
17865865090
17865872476
17865878945
17865883950
17865890298
17865895608
17865902871
17865913125
17865917947
17865924722
17865932168
17865941811
17865947305
17865952981
17865959389
17865965310
17865970620
17865979287
17865984414
17865991006
17865994668
17866002297
17866007058
17866013711
17866022256
17866028542
17866033974
17866040322
17866045632
17866053078
17866059121
17866066018
17866072182
17866079140
17866085610
17866092385
17866099221
17866104836
17866111122
17866118203
17866125222
17866130837
17866137673
17866143349
17866151711
17866159157
17866164711
17866171120
17866178200
17866185890
17866191322
17866197426
17866204628
17866210121
17866216469
17866224037
17866229042
17866237160
17866241798
17866249062
17866255775
17866261269
17866267555
17866274391
17866279701
17866287331
17866293983
17866300270
17866306434
17866312721
17866320289
17866326210
17866332924
17866339332
17866346901
17866354042
17866359474
17866370887
17866381080
17866390052
17866396217
17866402992
17866410316
17866417091
17866422279
17866428504
17866435462
17866442604
17866449867
17866457130
17866469459
17866474647
17866479957
17866487037
17866494911
17866502174
17866509803
17866516700
17866522926
17866529639
17866535194
17866542152
17866547645
17866555762
17866562049
17866567054
17866575233
17866583289
17866589088
17866596168
17866603248
17866610328
17866615638
17866622474
17866629371
17866637366
17866643348
17866650733
17866659156
17866665015
17866670752
17866677955
17866684485
17866692054
17866699012
17866706275
17866713538
17866720984
17866727515
17866735388
17866741919
17866749243
17866756751
17866762549
17866770545
17866776099
17866783972
17866789527
17866797095
17866804419
17866812171
17866817969
17866825659
17866831213
17866840796
17866846594
17866854651
17866860266
17866868262
17866874121
17866881384
17866889197
17866895666
17866901343
17866910071
17866915686
17866923804
17866929541
17866936682
17866944861
17866951147
17866956518
17866963720
17866968481
17866976111
17866984472
17866992041
17867001501
17867010534
17867019628
17867027990
17867033544
17867038854
17867047033
17867052709
17867058447
17867064672
17867071264
17867076452
17867082433
17867090612
17867097692
17867103552
17867111242
17867115820
17867123266
17867128515
17867134924
17867141637
17867147863
17867152319
17867158971
17867165319
17867171239
17867178319
17867182531
17867190588
17867196081
17867201940
17867207982
17867213293
17867219640
17867223974
17867230687
17867234777
17867241552
17867246984
17867253026
17867259618
17867264928
17867271520
17867277501
17867283788
17867290380
17867296910
17867303075
17867307408
17867314061
17867318883
17867325353
17867331151
17867336949
17867342198
17867348119
17867353856
17867359044
17867364964
17867372045
17867378331
17867383641
17867389378
17867396153
17867401830
17867407262
17867412999
17867419774
17867424107
17867432225
17867435826
17867443639
17867449071
17867455418
17867462743
17867469029
17867475316
17867483189
17867489293
17867494176
17867502232
17867505833
17867515355
17867520115
17867529088
17867536290
17867541050
17867553135
17867563267
17867568394
17867577610
17867588108
17867593113
17867599583
17867608128
17867612828
17867619541
17867624302
17867632481
17867637974
17867645664
17867656712
17867663426
17867671482
17867677525
17867684483
17867691075
17867695957
17867703465
17867709812
17867716404
17867721104
17867728733
17867734409
17867741306
17867748325
17867754551
17867759067
17867767246
17867774143
17867778965
17867786533
17867793064
17867801487
17867808384
17867813083
17867820591
17867828220
17867833774
17867840244
17867847690
17867854953
17867861240
17867867832
17867875156
17867880466
17867885593
17867895420
17867900608
17867908725
17867915683
17867921848
17867928623
17867933567
17867942234
17867948825
17867955722
17867961460
17867968479
17867975803
17867982456
17867988315
17867994357
17868001010
17868006686
17868014865
17868024081
17868031039
17868037692
17868047824
17868055637
17868062900
17868066867
17868077365
17868081332
17868090793
17868097262
17868106845
17868117770
17868127719
17868136020
17868143771
17868152377
17868162692
17868170199
17868179416
17868186007
17868195834
17868204623
17868212985
17868224642
17868234103
17868241915
17868250888
17868256686
17868266512
17868275363
17868281893
17868288424
17868298068
17868307040
17868315829
17868322787
17868330904
17868338595
17868345980
17868354281
17868363253
17868369967
17868377535
17868386080
17868395846
17868403658
17868410860
17868418551
17868426607
17868434847
17868440401
17868450228
17868459749
17868466097
17868473970
17868481722
17868487764
17868495699
17868504549
17868510469
17868519503
17868527681
17868534517
17868542513
17868550325
17868557649
17868564974
17868570162
17868579622
17868584566
17868592134
17868597017
17868603914
17868610323
17868615328
17868623323
17868629305
17868635103
17868640901
17868647249
17868652864
17868659090
17868663789
17868673250
17868677888
17868684175
17868691011
17868696382
17868702485
17868708650
17868715425
17868722261
17868727449
17868731721
17868739778
17868745576
17868751802
17868758882
17868765962
17868771516
17868777253
17868783845
17868788118
17868795869
17868801912
17868807893
17868813996
17868820039
17868827119
17868832002
17868841279
17868848237
17868856965
17868864350
17868871369
17868876618
17868884248
17868889497
17868897004
17868901704
17868908173
17868914094
17868919953
17868926118
17868933259
17868939667
17868946198
17868952302
17868958283
17868962678
17868971162
17868977570
17868983369
17868990143
17868994782
17869002717
17869008820
17869015412
17869021699
17869028718
17869035798
17869040192
17869048005
17869050995
17869059784
17869065888
17869073029
17869078644
17869084809
17869092621
17869097687
17869105255
17869111237
17869118317
17869123566
17869130768
17869137543
17869143769
17869150482
17869155609
17869163239
17869170319
17869177155
17869183930
17869190338
17869197968
17869204987
17869210602
17869215241
17869222626
17869228302
17869236542
17869242462
17869250336
17869257416
17869263885
17869270294
17869277069
17869284393
17869289886
17869296478
17869303070
17869309112
17869313812
17869321869
17869327301
17869334381
17869339386
17869346039
17869351288
17869358307
17869362701
17869370453
17869376312
17869384124
17869390228
17869398284
17869406280
17869411895
17869423370
17869429534
17869440093
17869449371
17869459625
17869467132
17869472930
17869479461
17869485687
17869491180
17869498260
17869505767
17869511138
17869520965
17869527801
17869536468
17869542815
17869549590
17869555694
17869561248
17869568450
17869574126
17869581817
17869588409
17869595489
17869601409
17869607574
17869613677
17869618255
17869639312
17869649077
17869655974
17869662017
17869666961
17869673980
17869681060
17869686980
17869691741
17869698760
17869703459
17869709746
17869714446
17869723052
17869726775
17869735686
17869739348
17869749480
17869755461
17869761321
17869766509
17869772856
17869780058
17869785979
17869791472
17869798552
17869805998
17869811858
17869817046
17869823882
17869829008
17869837309
17869842985
17869850920
17869856963
17869863371
17869870146
17869876433
17869882292
17869890349
17869896513
17869905241
17869911223
17869920805
17869927397
17869935637
17869941557
17869948637
17869956266
17869961882
17869969633
17869977385
17869983549
17869990446
17870000334
17870007353
17870013517
17870019804
17870029631
17870035795
17870044462
17870050199
17870059355
17870067289
17870076811
17870089384
17870094328
17870106901
17870113615
17870117948
17870128873
17870136625
17870142423
17870149503
17870155057
17870162076
17870166654
17870171598
17870178129
17870185087
17870191129
17870200040
17870205350
17870211637
17870217130
17870222257
17870228360
17870235196
17870241910
17870248502
17870253995
17870261319
17870267240
17870274320
17870281461
17870286161
17870292813
17870299283
17870305875
17870311490
17870317044
17870323575
17870330716
17870336576
17870343839
17870350308
17870355741
17870363675
17870374356
17870381864
17870386990
17870393582
17870399869
17870406522
17870411343
17870418301
17870423367
17870430508
17870436124
17870440823
17870446927
17870451688
17870456876
17870463223
17870468594
17870475125
17870480435
17870485623
17870491299
17870496731
17870502408
17870506985
17870514615
17870519742
17870526516
17870529629
17870538052
17870543667
17870548550
17870556912
17870563015
17870568081
17870573269
17870579373
17870583889
17870591763
17870597012
17870603604
17870608486
17870614712
17870622402
17870627835
17870634121
17870639248
17870647915
17870654812
17870662258
17870669827
17870677029
17870682705
17870691128
17870700039
17870705654
17870711269
17870718349
17870724941
17870729641
17870736538
17870744411
17870750698
17870756985
17870764248
17870773769
17870782436
17870789333
17870795864
17870802273
17870808864
17870816311
17870821132
17870829128
17870834194
17870843105
17870848598
17870855861
17870862148
17870869289
17870876064
17870882412
17870890651
17870895717
17870903957
17870908840
17870917507
17870923061
17870930446
17870936550
17870942958
17870949367
17870955287
17870961208
17870967067
17870973659
17870980617
17870989162
17870995082
17871001796
17871006862
17871013271
17871019862
17871026759
17871035121
17871039943
17871047694
17871054286
17871060939
17871067592
17871073878
17871081996
17871088344
17871094508
17871100612
17871107448
17871113795
17871120387
17871127955
17871133937
17871138514
17871145533
17871152797
17871157374
17871165370
17871170375
17871180384
17871186915
17871193080
17871198085
17871204554
17871211695
17871216883
17871225978
17871234767
17871240870
17871248622
17871255946
17871261378
17871271449
17871280482
17871286646
17871296778
17871303980
17871312403
17871320704
17871327418
17871334620
17871341273
17871347864
17871355067
17871363001
17871368311
17871377161
17871386988
17871395228
17871402857
17871412806
17871418238
17871426905
17871434351
17871441919
17871450464
17871457788
17871465723
17871473230
17871479639
17871487207
17871495569
17871503260
17871509790
17871517115
17871523950
17871531030
17871538660
17871543909
17871551599
17871561121
17871569116
17871575708
17871583948
17871590601
17871598535
17871607629
17871616724
17871625146
17871635095
17871642725
17871649927
17871658166
17871665002
17871669885
17871679285
17871688623
17871696069
17871704126
17871711328
17871720117
17871728601
17871734887
17871743188
17871749719
17871759729
17871764062
17871774316
17871777734
17871787683
17871793237
17871800073
17871806848
17871813195
17871817956
17871823144
17871829186
17871833398
17871840234
17871846276
17871852990
17871857263
17871863366
17871869897
17871875573
17871880761
17871886376
17871892602
17871896752
17871903466
17871908471
17871914941
17871920861
17871926659
17871933923
17871940209
17871948510
17871956444
17871961877
17871970421
17871977196
17871986352
17871993737
17871999108
17872005517
17872012475
17872015343
17872024682
17872030114
17872035485
17872043236
17872050133
17872056542
17872062279
17872069542
17872075646
17872081993
17872087365
17872093712
17872100487
17872104821
17872109886
17872117516
17872122887
17872128136
17872132652
17872137901
17872144127
17872150231
17872156761
17872160668
17872166893
17872172875
17872179466
17872184837
17872190331
17872196739
17872202538
17872207665
17872214745
17872221458
17872228722
17872234276
17872240929
17872246361
17872252708
17872260216
17872266929
17872273460
17872280601
17872288292
17872294884
17872301414
17872307213
17872315819
17872322349
17872328697
17872334373
17872342003
17872347252
17872355430
17872361839
17872368736
17872374778
17872381065
17872388633
17872397361
17872404930
17872409934
17872416770
17872421897
17872428550
17872433738
17872442039
17872446739
17872453330
17872461204
17872466148
17872473106
17872481101
17872487632
17872495322
17872506065
17872515159
17872521079
17872529807
17872538840
17872544883
17872551353
17872557334
17872564231
17872568442
17872576682
17872584006
17872593589
17872600059
17872606528
17872613425
17872621360
17872628379
17872634787
17872641745
17872647361
17872653342
17872659873
17872667136
17872674399
17872680503
17872687766
17872692038
17872699790
17872704734
17872714011
17872719199
17872726157
17872733542
17872739646
17872745688
17872750510
17872759238
17872766013
17872772421
17872777792
17872785483
17872792380
17872798911
17872806052
17872813071
17872818686
17872825400
17872831747
17872838766
17872842917
17872850729
17872858847
17872866476
17872873862
17872880026
17872886923
17872893393
17872903402
17872910299
17872918417
17872928488
17872935202
17872941366
17872952169
17872959860
17872968161
17872976461
17872983358
17872990316
17872998434
17873005209
17873011434
17873017599
17873025228
17873031149
17873039938
17873045919
17873052694
17873060384
17873066244
17873073507
17873082235
17873089498
17873095663
17873103170
17873110433
17873116476
17873124471
17873130758
17873137044
17873143270
17873150350
17873156270
17873161947
17873168600
17873173726
17873182393
17873189412
17873195821
17873205526
17873210897
17873217672
17873223958
17873231099
17873236593
17873245626
17873253926
17873260091
17873266378
17873273152
17873280110
17873288167
17873294454
17873304158
17873310872
17873316365
17873324544
17873331502
17873338399
17873345662
17873353108
17873358785
17873362752
17873369405
17873374104
17873382893
17873389058
17873394673
17873401509
17873406880
17873410359
17873418172
17873425252
17873432576
17873437947
17873445271
17873452656
17873457478
17873463826
17873469685
17873476582
17873481892
17873489338
17873495808
17873500569
17873508320
17873513569
17873519978
17873525105
17873531697
17873537617
17873543415
17873548848
17873554402
17873560200
17873566243
17873572468
17873578633
17873586140
17873591633
17873597187
17873604084
17873609944
17873615620
17873620930
17873626545
17873632343
17873636189
17873643818
17873650837
17873659321
17873665791
17873672810
17873678974
17873688740
17873695515
17873702229
17873707783
17873714252
17873720112
17873725727
17873731220
17873737385
17873745869
17873754291
17873760151
17873766071
17873774250
17873781452
17873787678
17873794636
17873799946
17873806843
17873812824
17873820270
17873826801
17873833454
17873839496
17873844989
17873851276
17873858478
17873864826
17873873066
17873879901
17873885639
17873890583
17873896686
17873904926
17873911945
17873918048
17873924274
17873929706
17873934589
17873942706
17873947528
17873954547
17873960407
17873967731
17873973407
17873978290
17873987567
17873992084
17874000385
17874010394
17874015033
17874024432
17874030170
17874036151
17874044574
17874052692
17874057818
17874065692
17874073138
17874079364
17874087604
17874095050
17874100299
17874106891
17874113055
17874121112
17874126788
17874133136
17874140887
17874147601
17874155658
17874159198
17874170916
17874177569
17874183734
17874192584
17874200091
17874206500
17874215228
17874223284
17874231158
17874238360
17874248187
17874254778
17874262347
17874268267
17874275347
17874282305
17874289080
17874296160
17874300982
17874310259
17874313921
17874324908
17874332598
17874339129
17874345843
17874350909
17874359759
17874367022
17874373125
17874379717
17874388018
17874392901
17874400164
17874406389
17874411028
17874418902
17874423967
17874432573
17874439043
17874446367
17874452410
17874459551
17874466143
17874472551
17874481096
17874488298
17874494890
17874501726
17874509172
17874514604
17874522295
17874528093
17874537370
17874543291
17874552568
17874558611
17874566484
17874573381
17874579973
17874587724
17874596758
17874603777
17874612444
17874617570
17874626054
17874633379
17874641862
17874649919
17874659074
17874665727
17874674150
17874680314
17874689164
17874695573
17874704362
17874714372
17874722368
17874728776
17874736833
17874744096
17874751725
17874758805
17874768388
17874776689
17874782792
17874791032
17874799394
17874807511
17874814103
17874821916
17874830583
17874836991
17874845231
17874852616
17874861100
17874869279
17874877457
17874884232
17874892472
17874901322
17874913468
17874920487
17874927262
17874934159
17874942338
17874947343
17874955582
17874961564
17874967179
17874973160
17874980179
17874987198
17874994401
17875001664
17875006363
17875014969
17875021927
17875027420
17875034073
17875041397
17875048172
17875054459
17875060379
17875064896
17875073258
17875079178
17875086136
17875092789
17875099686
17875106278
17875112564
17875119278
17875124466
17875131851
17875137955
17875145096
17875150955
17875157913
17875164139
17875169327
17875175736
17875180374
17875188126
17875194168
17875200088
17875206253
17875212357
17875217850
17875224258
17875231522
17875236099
17875242447
17875247391
17875253494
17875259476
17875264602
17875271622
17875276016
17875282303
17875288040
17875293594
17875298843
17875304825
17875311416
17875317215
17875322830
17875328628
17875334365
17875338882
17875346328
17875351821
17875358047
17875361160
17875369583
17875375137
17875381668
17875387405
17875393264
17875400161
17875405349
17875412185
17875416519
17875422500
17875427078
17875435256
17875442092
17875449233
17875454971
17875462600
17875469192
17875477126
17875486465
17875495376
17875500930
17875510757
17875517043
17875523269
17875529372
17875537063
17875543716
17875551101
17875555617
17875562331
17875571120
17875576125
17875584731
17875591506
17875597976
17875605117
17875610610
17875617934
17875624892
17875629775
17875638137
17875645644
17875650954
17875657424
17875664016
17875670546
17875675185
17875683974
17875689833
17875695632
17875702101
17875707472
17875712599
17875719069
17875724196
17875729445
17875737196
17875742873
17875749098
17875755446
17875759657
17875766676
17875773329
17875781447
17875789015
17875795973
17875800490
17875808302
17875814650
17875822096
17875827406
17875834547
17875842055
17875848891
17875855116
17875861708
17875867506
17875874159
17875880507
17875888014
17875893446
17875898207
17875906080
17875912062
17875918165
17875924208
17875931654
17875938002
17875945509
17875951612
17875957594
17875964308
17875970167
17875976332
17875983778
17875989454
17875997450
17876005995
17876011732
17876019422
17876028150
17876034315
17876042371
17876048353
17876056471
17876065260
17876072950
17876081495
17876087171
17876095594
17876104139
17876114942
17876123121
17876129407
17876136793
17876145215
17876152723
17876160047
17876168958
17876177747
17876185865
17876193433
17876199476
17876208326
17876216993
17876223279
17876234510
17876240308
17876247998
17876256238
17876263623
17876271680
17876279981
17876285535
17876294873
17876302930
17876309522
17876315320
17876322583
17876327954
17876337720
17876344373
17876352368
17876358045
17876367566
17876374402
17876383374
17876389478
17876399121
17876407422
17876414441
17876422986
17876430371
17876438916
17876445569
17876453930
17876459790
17876469067
17876475903
17876485180
17876493908
17876501599
17876509289
17876518811
17876527722
17876535168
17876543591
17876553112
17876559216
17876568188
17876576245
17876583020
17876590954
17876599072
17876606091
17876612927
17876620190
17876626782
17876633862
17876638500
17876645886
17876651135
17876659374
17876664135
17876672863
17876677990
17876684765
17876690746
17876697826
17876704784
17876711010
17876716991
17876723339
17876729504
17876735790
17876743786
17876751354
17876758800
17876763561
17876772350
17876779308
17876785534
17876791454
17876798229
17876805431
17876810192
17876819286
17876825145
17876831798
17876837780
17876844493
17876852550
17876858715
17876865123
17876871593
17876878673
17876883678
17876889842
17876896556
17876902049
17876907726
17876914928
17876919872
17876925609
17876933055
17876938060
17876945934
17876951854
17876957958
17876964122
17876970042
17876976329
17876981944
17876989635
17876994823
17877000865
17877007884
17877014354
17877026561
17877040660
17877049449
17877056468
17877062633
17877071422
17877076549
17877085215
17877093089
17877101207
17877108531
17877115550
17877123240
17877129222
17877135142
17877142039
17877148631
17877153758
17877160655
17877166331
17877173045
17877178172
17877187022
17877193003
17877200389
17877207041
17877214488
17877221018
17877227061
17877233470
17877242503
17877247569
17877254588
17877259592
17877266612
17877274302
17877280650
17877286936
17877293589
17877299448
17877305735
17877313425
17877318186
17877324900
17877331309
17877337717
17877344126
17877350657
17877358591
17877366648
17877373789
17877379648
17877386179
17877393625
17877400644
17877408030
17877415842
17877422800
17877431711
17877436960
17877445139
17877456369
17877461801
17877471384
17877478098
17877484567
17877493173
17877501596
17877509104
17877514353
17877521433
17877527963
17877535288
17877540292
17877548654
17877556833
17877563547
17877570566
17877576181
17877584116
17877591379
17877598215
17877602121
17877610666
17877617685
17877625436
17877632822
17877640451
17877648202
17877654672
17877661264
17877667611
17877674447
17877681527
17877687448
17877694101
17877700753
17877707345
17877715097
17877719918
17877729440
17877735482
17877743478
17877750985
17877758981
17877766244
17877772225
17877779977
17877784921
17877792733
17877799630
17877806222
17877812997
17877819711
17877826119
17877832406
17877838937
17877847115
17877852303
17877860299
17877868478
17877875130
17877881478
17877891671
17877897652
17877904855
17877912301
17877920846
17877927621
17877937325
17877945260
17877953377
17877961129
17877969002
17877975106
17877982735
17877990304
17877999093
17878004952
17878014473
17878020089
17878028817
17878034371
17878042733
17878049019
17878058602
17878064583
17878070931
17878077645
17878084481
17878091622
17878098458
17878106026
17878113167
17878120308
17878129402
17878135323
17878145638
17878154182
17878161751
17878170845
17878180428
17878188606
17878195625
17878203255
17878211616
17878218086
17878225166
17878233223
17878239815
17878247566
17878253242
17878261604
17878269539
17878275459
17878286018
17878292854
17878300483
17878308174
17878317024
17878323982
17878330391
17878341072
17878346260
17878354560
17878359931
17878367500
17878373481
17878380989
17878387641
17878393867
17878400337
17878406318
17878412422
17878418952
17878424445
17878431587
17878438239
17878443794
17878450691
17878456611
17878463569
17878471259
17878476081
17878483833
17878488532
17878496345
17878501166
17878509223
17878514228
17878522834
17878531013
17878537116
17878543342
17878549445
17878555854
17878561957
17878566901
17878573981
17878580512
17878585151
17878591376
17878596930
17878603888
17878608954
17878615363
17878621100
17878627143
17878632514
17878638678
17878645819
17878651801
17878657599
17878664008
17878670355
17878676642
17878681464
17878687262
17878693366
17878698187
17878704108
17878711859
17878717413
17878722601
17878728095
17878735175
17878739813
17878746954
17878758734
17878765387
17878772101
17878777838
17878784430
17878791754
17878798468
17878805609
17878811957
17878817145
17878822516
17878830572
17878837103
17878843451
17878849676
17878855780
17878863897
17878869330
17878877691
17878882940
17878890448
17878895697
17878905279
17878911993
17878917669
17878923773
17878930914
17878937872
17878944464
17878951300
17878957769
17878964666
17878971563
17878978338
17878985357
17878992010
17878999151
17879007696
17879013067
17879020391
17879027044
17879033697
17879038641
17879047002
17879054205
17879059759
17879066778
17879073919
17879079412
17879086553
17879092107
17879099493
17879106145
17879112920
17879119146
17879125677
17879132207
17879138799
17879145818
17879152593
17879159185
17879166021
17879173345
17879179876
17879186651
17879191594
17879199224
17879204168
17879212285
17879217168
17879224797
17879229619
17879237432
17879242253
17879249456
17879257146
17879262761
17879268743
17879275762
17879282353
17879288030
17879295659
17879302190
17879310185
17879316655
17879323125
17879329595
17879337041
17879341740
17879350285
17879357365
17879363408
17879369206
17879377080
17879383916
17879390813
17879398564
17879403691
17879414860
17879420293
17879428288
17879436040
17879444218
17879449894
17879456303
17879465275
17879471928
17879477787
17879484868
17879490544
17879496281
17879503666
17879512150
17879518742
17879525517
17879532475
17879539067
17879545780
17879552189
17879559147
17879567509
17879573368
17879580754
17879586613
17879594914
17879601933
17879608891
17879616947
17879623600
17879631474
17879637760
17879643009
17879651676
17879657047
17879665531
17879671452
17879680607
17879686771
17879695011
17879701542
17879707767
17879712955
17879722904
17879730655
17879737247
17879744144
17879752933
17879760563
17879767582
17879773502
17879781986
17879788028
17879797062
17879803287
17879812320
17879818241
17879828434
17879834842
17879843753
17879849979
17879859806
17879866641
17879875492
17879882633
17879891239
17879899234
17879906131
17879914737
17879922061
17879930667
17879938602
17879944644
17879953128
17879960941
17879968204
17879974368
17879982242
17879987002
17879995425
17880000857
17880009402
17880014346
17880021670
17880030337
17880036502
17880042727
17880049563
17880055972
17880060672
17880068728
17880074160
17880081363
17880090945
17880097171
17880103946
17880110720
17880118594
17880124270
17880131411
17880138674
17880144107
17880148623
17880156741
17880161990
17880168826
17880175173
17880182437
17880189334
17880196475
17880201235
17880208926
17880215762
17880221987
17880229067
17880234805
17880240237
17880246096
17880253115
17880257510
17880264773
17880271059
17880276247
17880282778
17880288821
17880295168
17880300722
17880305727
17880311709
17880318545
17880324160
17880330569
17880334780
17880342043
17880347109
17880353335
17880358828
17880365358
17880371706
17880377382
17880382998
17880388430
17880394167
17880399904
17880407290
17880411440
17880418215
17880422792
17880432131
17880438295
17880443972
17880450746
17880456606
17880463747
17880469850
17880475405
17880481081
17880488466
17880493654
17880503175
17880509462
17880516115
17880519533
17880527834
17880535280
17880541750
17880549928
17880556581
17880563295
17880569826
17880575807
17880582521
17880590333
17880595705
17880604372
17880622377
17880629884
17880636293
17880643312
17880650880
17880657106
17880664369
17880670839
17880676820
17880683290
17880691957
17880702638
17880709657
17880715882
17880723085
17880729859
17880734742
17880743836
17880748963
17880758668
17880765016
17880770509
17880776368
17880783448
17880790956
17880798341
17880804566
17880812074
17880818971
17880825379
17880832459
17880839356
17880845887
17880853516
17880860780
17880865906
17880873963
17880881104
17880886658
17880893861
17880899415
17880904298
17880912842
17880919373
17880926697
17880931275
17880938294
17880943726
17880950867
17880957886
17880965149
17880972046
17880978943
17880986084
17880992920
17880999512
17881006226
17881014038
17881019043
17881025940
17881032410
17881039917
17881044617
17881052429
17881058777
17881065979
17881071778
17881079163
17881085327
17881092896
17881099915
17881106934
17881113831
17881120422
17881126465
17881132813
17881139099
17881145935
17881153015
17881160645
17881169006
17881176636
17881183899
17881191589
17881198913
17881204346
17881213074
17881219482
17881227661
17881235840
17881242065
17881249023
17881257019
17881261108
17881271423
17881281006
17881287964
17881294799
17881302124
17881309509
17881317260
17881323730
17881331543
17881340576
17881348876
17881359558
17881368041
17881378173
17881387451
17881397704
17881405822
17881413879
17881421508
17881427734
17881434936
17881440978
17881447326
17881454650
17881461364
17881469115
17881475646
17881482543
17881488830
17881495177
17881501769
17881508239
17881514709
17881521300
17881528319
17881536071
17881542296
17881549071
17881556518
17881564269
17881569945
17881579100
17881584899
17881594115
17881600035
17881607726
17881615905
17881625609
17881631407
17881639586
17881645262
17881654235
17881659423
17881666381
17881673583
17881680541
17881685851
17881693114
17881699217
17881704588
17881710387
17881717284
17881724547
17881731810
17881738158
17881744810
17881752013
17881758665
17881764891
17881770995
17881776854
17881782896
17881789183
17881795347
17881801939
17881806639
17881815245
17881820921
17881828306
17881835020
17881840391
17881845030
17881853026
17881859190
17881866148
17881872984
17881880247
17881886839
17881893492
17881898497
17881905943
17881911436
17881920530
17881927305
17881933226
17881939146
17881944700
17881950743
17881954832
17881962339
17881969419
17881974180
17881979490
17881987180
17881992002
17882000242
17882006040
17882011961
17882019346
17882024351
17882033567
17882041990
17882046201
17882053587
17882060911
17882067380
17882071470
17882078916
17882083005
17882091001
17882096860
17882102537
17882111265
17882117124
17882123716
17882130613
17882136960
17882142576
17882148130
17882154844
17882161313
17882164853
17882173459
17882179868
17882186033
17882192136
17882198728
17882205930
17882210508
17882218198
17882222898
17882231565
17882237424
17882248532
17882258664
17882266782
17882273374
17882282834
17882292111
17882303403
17882315305
17882328000
17882336850
17882346371
17882354123
17882365720
17882372372
17882383847
17882394101
17882404233
17882413937
17882421322
17882429257
17882438107
17882447629
17882456967
17882467953
17882477230
17882487240
17882495053
17882505185
17882514584
17882522763
17882531246
17882544064
17882554257
17882563534
17882574825
17882585690
17882596615
17882608700
17882615414
17882627071
17882633968
17882645748
17882654110
17882666439
17882676205
17882685543
17882695248
17882705685
17882713253
17882722164
17882734798
17882745174
17882752620
17882765255
17882773189
17882782894
17882790096
17882802669
17882811397
17882822017
17882830013
17882840999
17882851009
17882858455
17882869075
17882878597
17882887569
17882897090
17882905086
17882914485
17882925838
17882933528
17882943904
17882950984
17882962642
17882969783
17882980525
17882987788
17882999873
17883008662
17883017085
17883026851
17883037410
17883045161
17883055598
17883065974
17883075068
17883082637
17883091121
17883100459
17883109309
17883120661
17883128657
17883139949
17883151667
17883160822
17883170405
17883178828
17883188715
17883196650
17883209284
17883218012
17883228022
17883237299
17883247065
17883256770
17883265192
17883274103
17883284052
17883294672
17883305231
17883314326
17883322382
17883333002
17883342524
17883351740
17883359003
17883372675
17883382013
17883392206
17883399775
17883410150
17883419855
17883428949
17883439081
17883448541
17883458002
17883467462
17883475702
17883485590
17883495355
17883505060
17883516229
17883523187
17883535272
17883543939
17883554437
17883562799
17883573907
17883582757
17883594720
17883604547
17883613946
17883623163
17883632562
17883645074
17883654290
17883664727
17883685601
17883697137
17883712823
17883723382
17883732965
17883737481
17883748651
17883753961
17883760797
17883767083
17883772454
17883779901
17883789178
17883795770
17883803216
17883808099
17883814874
17883819573
17883828240
17883835320
17883840936
17883846185
17883853020
17883858941
17883864617
17883870782
17883877740
17883883355
17883890130
17883895013
17883901848
17883908501
17883914666
17883918755
17883925774
17883933220
17883939019
17883943902
17883949639
17883955803
17883960015
17883966546
17883971367
17883978081
17883982354
17883989678
17883995171
17884000542
17884006096
17884012322
17884018853
17884023735
17884030083
17884035942
17884042290
17884047966
17884054680
17884059929
17884065605
17884071037
17884077080
17884083367
17884089409
17884095329
17884100945
17884107231
17884111565
17884117668
17884123100
17884128532
17884134331
17884140861
17884147087
17884152702
17884156975
17884163017
17884168816
17884174492
17884180595
17884186699
17884194389
17884201103
17884207634
17884212761
17884220451
17884227287
17884234550
17884242607
17884248832
17884255119
17884261589
17884273979
17884280082
17884287468
17884291618
17884300895
17884307853
17884313407
17884320182
17884325492
17884333976
17884340263
17884348564
17884355766
17884360893
17884370292
17884377189
17884384818
17884391959
17884397331
17884405631
17884410697
17884417655
17884424491
17884431815
17884437125
17884444816
17884451041
17884457938
17884464408
17884473136
17884478202
17884485831
17884491691
17884497794
17884504813
17884511588
17884520255
17884526908
17884535331
17884542411
17884549491
17884556449
17884563346
17884570182
17884575431
17884584037
17884590689
17884597586
17884604056
17884611747
17884616263
17884625174
17884632559
17884637381
17884645499
17884650199
17884658743
17884664359
17884671805
17884679007
17884687308
17884694815
17884700064
17884708426
17884713980
17884721793
17884727713
17884734549
17884741202
17884748099
17884755179
17884761587
17884768179
17884774588
17884781790
17884788077
17884795035
17884802664
17884808706
17884814383
17884822256
17884828909
17884835562
17884841971
17884849661
17884858694
17884864553
17884872366
17884880545
17884891653
17884902151
17884908926
17884915701
17884923880
17884931631
17884939443
17884947012
17884953420
17884959890
17884966421
17884973989
17884982961
17884989858
17884997610
17885005300
17885013845
17885020193
17885027090
17885031972
17885041067
17885047231
17885052785
17885059011
17885066518
17885072011
17885080251
17885086294
17885094716
17885103139
17885108449
17885114614
17885121145
17885128713
17885133779
17885141652
17885148610
17885154470
17885160817
17885166860
17885173330
17885180227
17885185414
17885194448
17885200124
17885209218
17885216237
17885222097
17885226979
17885234670
17885242604
17885249135
17885257070
17885265676
17885274098
17885281850
17885288747
17885297414
17885305348
17885313466
17885320119
17885327870
17885334950
17885342824
17885348622
17885357838
17885365102
17885372670
17885379628
17885386281
17885393422
17885398121
17885406117
17885409657
17885418385
17885424061
17885433522
17885440236
17885445973
17885453907
17885458851
17885465870
17885473683
17885479237
17885486622
17885492421
17885496876
17885502796
17885511708
17885518910
17885524525
17885530201
17885536976
17885544361
17885551930
17885558582
17885565968
17885572132
17885578358
17885585011
17885589527
17885597096
17885604298
17885609242
17885616016
17885620960
17885628040
17885632740
17885640064
17885645679
17885651722
17885656361
17885662342
17885668445
17885674610
17885679249
17885687366
17885693592
17885697681
17885704639
17885709278
17885716846
17885720081
17885728199
17885733936
17885739978
17885746265
17885752491
17885757435
17885762806
17885768604
17885774280
17885780201
17885784473
17885792041
17885797534
17885804004
17885809497
17885814502
17885821033
17885827381
17885834766
17885840869
17885845508
17885851550
17885858142
17885863208
17885870105
17885874683
17885881397
17885887561
17885893909
17885898242
17885905750
17885913989
17885921069
17885929492
17885935474
17885945483
17885950915
17885958362
17885963306
17885970203
17885976794
17885983325
17885988391
17885994922
17886002002
17886009387
17886015796
17886021533
17886030383
17886033984
17886042834
17886046008
17886054858
17886061572
17886067248
17886075000
17886081225
17886087268
17886095202
17886101977
17886108447
17886112841
17886120410
17886128100
17886133410
17886141223
17886146716
17886155200
17886161791
17886168810
17886173449
17886180407
17886185412
17886192553
17886198168
17886206957
17886213732
17886218798
17886226244
17886231371
17886240649
17886245898
17886252917
17886257799
17886264452
17886271471
17886276964
17886283068
17886288927
17886296557
17886302782
17886308764
17886315416
17886321337
17886327440
17886333849
17886340319
17886346911
17886352770
17886360765
17886365221
17886372545
17886377245
17886384325
17886389208
17886397142
17886404100
17886410631
17886416368
17886423265
17886429430
17886436693
17886445726
17886456468
17886464098
17886473009
17886485094
17886493272
17886503587
17886509019
17886519701
17886530809
17886538988
17886546190
17886556871
17886568651
17886575426
17886581163
17886588914
17886596300
17886601854
17886608751
17886614366
17886621324
17886628465
17886635240
17886640550
17886646470
17886653184
17886657640
17886665025
17886669542
17886676377
17886681138
17886689256
17886694017
17886701951
17886707322
17886714219
17886720017
17886727586
17886734727
17886740647
17886747972
17886756089
17886761887
17886770005
17886777635
17886785264
17886790696
17886797898
17886805283
17886811875
17886818406
17886823838
17886830308
17886837754
17886844712
17886850144
17886859360
17886865464
17886871689
17886877244
17886885850
17886894822
17886900925
17886906296
17886915207
17886921250
17886927170
17886932358
17886939499
17886944870
17886952256
17886957505
17886965195
17886971848
17886980576
17886987107
17886993515
17886999070
17887007431
17887012985
17887017990
17887022568
17887030625
17887036362
17887042099
17887048020
17887054672
17887060593
17887066330
17887070969
17887077438
17887083420
17887089890
17887095505
17887101852
17887108200
17887112717
17887118759
17887123642
17887130356
17887135055
17887141403
17887145981
17887153427
17887158188
17887165085
17887169723
17887178451
17887185470
17887191879
17887197250
17887203720
17887209396
17887215378
17887220199
17887226669
17887235153
17887239669
17887245773
17887251632
17887258285
17887262741
17887269516
17887273971
17887282699
17887287582
17887293624
17887298995
17887304061
17887309799
17887315597
17887322738
17887327194
17887334396
17887339523
17887346542
17887350692
17887357406
17887363021
17887368514
17887375716
17887381637
17887387313
17887394393
17887400253
17887407699
17887414596
17887420333
17887426253
17887433028
17887439193
17887444564
17887449508
17887458480
17887464522
17887469771
17887475936
17887481490
17887488265
17887494552
17887502059
17887506698
17887513900
17887520736
17887525924
17887532882
17887538558
17887545394
17887552474
17887558577
17887563521
17887569075
17887575667
17887581832
17887587142
17887594405
17887600997
17887608077
17887614791
17887620772
17887627547
17887634688
17887639998
17887648238
17887653731
17887661116
17887668013
17887675154
17887680464
17887687666
17887692915
17887701582
17887707014
17887712386
17887718977
17887724348
17887729475
17887736250
17887742293
17887749129
17887755904
17887760908
17887766585
17887773298
17887778792
17887785750
17887790632
17887798140
17887804732
17887811751
17887819563
17887824690
17887832502
17887837385
17887846663
17887851606
17887859053
17887863752
17887872602
17887878767
17887885847
17887892073
17887899153
17887903486
17887910688
17887917646
17887924726
17887929609
17887936811
17887944685
17887951521
17887958357
17887965254
17887972089
17887978681
17887985517
17887993147
17888001386
17888007124
17888015424
17888021833
17888028974
17888035322
17888041303
17888047651
17888055036
17888061750
17888068952
17888075910
17888082929
17888089887
17888096723
17888103498
17888110334
17888116803
17888121869
17888128766
17888135724
17888140668
17888147382
17888155011
17888160749
17888169110
17888172712
17888183759
17888191266
17888198651
17888206525
17888215192
17888218915
17888231061
17888238446
17888245038
17888252912
17888260053
17888268536
17888275433
17888282208
17888290692
17888294720
17888305096
17888308820
17888319440
17888323773
17888333905
17888340497
17888347027
17888352765
17888360455
17888367962
17888378155
17888384625
17888392621
17888398419
17888407025
17888413434
17888421124
17888427838
17888435711
17888447796
17888454754
17888460369
17888470501
17888474346
17888484417
17888488385
17888498760
17888505841
17888512371
17888519146
17888527020
17888533673
17888539776
17888547955
17888554119
17888561016
17888569195
17888574688
17888582928
17888589703
17888595806
17888602032
17888610394
17888618145
17888626629
17888634075
17888640667
17888647686
17888656048
17888659832
17888669292
17888675640
17888683208
17888690410
17888697429
17888704876
17888711529
17888716655
17888725383
17888732219
17888736980
17888743999
17888750225
17888756450
17888762981
17888769939
17888773845
17888782817
17888789104
17888795574
17888801616
17888807414
17888813457
17888819316
17888826274
17888832317
17888837566
17888843181
17888850139
17888854717
17888861919
17888866924
17888875407
17888881145
17888887431
17888892009
17888898357
17888904643
17888910319
17888917644
17888921733
17888928508
17888932414
17888938212
17888944377
17888949138
17888956096
17888962199
17888967509
17888972880
17888978251
17888984965
17888990031
17888995830
17889002604
17889007731
17889013347
17889019023
17889023600
17889028300
17889034709
17889043071
17889048564
17889053874
17889059489
17889065776
17889071696
17889076091
17889082560
17889088908
17889094584
17889100444
17889106425
17889112284
17889118571
17889124369
17889131754
17889136454
17889143229
17889149149
17889155192
17889160014
17889166239
17889172892
17889179179
17889186259
17889192118
17889198100
17889203959
17889210429
17889215372
17889223917
17889229899
17889238016
17889243143
17889249857
17889256510
17889264261
17889272501
17889279581
17889285319
17889291483
17889297892
17889304239
17889311014
17889317850
17889325113
17889330607
17889337320
17889343058
17889350199
17889356363
17889363749
17889372171
17889378458
17889384195
17889390177
17889397501
17889402078
17889408487
17889414774
17889421427
17889426431
17889434000
17889438577
17889446146
17889451883
17889458963
17889465982
17889473123
17889479532
17889485513
17889491617
17889497720
17889504312
17889510965
17889518594
17889523477
17889530130
17889534891
17889543008
17889548013
17889555948
17889561136
17889569375
17889575418
17889582315
17889587869
17889595254
17889601480
17889607889
17889614908
17889621255
17889627176
17889633462
17889640054
17889646402
17889653238
17889660012
17889667947
17889673623
17889680154
17889685098
17889691812
17889697244
17889704019
17889711099
17889717813
17889724221
17889731790
17889737466
17889743386
17889749246
17889756020
17889764748
17889769814
17889777627
17889783303
17889790505
17889796059
17889802407
17889808083
17889816933
17889824868
17889830910
17889836220
17889843667
17889850564
17889858498
17889862954
17889873025
17889881203
17889888894
17889896279
17889903908
17889911110
17889918435
17889926125
17889933022
17889937966
17889944619
17889951393
17889958290
17889964943
17889975197
17889983803
17889989174
17889997231
17890002419
17890010964
17890015969
17890023232
17890028969
17890038796
17890045326
17890051064
17890057350
17890064491
17890070473
17890076210
17890086098
17890091469
17890097694
17890105446
17890114357
17890122658
17890128334
17890135841
17890144081
17890151893
17890158790
17890166054
17890172951
17890178383
17890185463
17890192909
17890202553
17890209999
17890216163
17890223549
17890229957
17890237526
17890245643
17890251747
17890260475
17890268043
17890274696
17890281349
17890287757
17890293434
17890299598
17890304359
17890312049
17890318702
17890323707
17890330421
17890335426
17890340614
17890347022
17890353370
17890360328
17890366737
17890372474
17890377235
17890382850
17890388526
17890394447
17890402381
17890406959
17890414588
17890419410
17890426246
17890430762
17890439673
17890446143
17890452979
17890459388
17890465674
17890471900
17890477942
17890482947
17890491797
17890498816
17890503821
17890511390
17890519019
17890524512
17890531348
17890537513
17890545813
17890551429
17890557471
17890563025
17890569617
17890573828
17890580420
17890587439
17890592444
17890598303
17890604346
17890610327
17890615759
17890622717
17890626990
17890634314
17890638648
17890645789
17890651770
17890658850
17890664771
17890670081
17890675818
17890681799
17890687781
17890693335
17890698584
17890702734
17890710364
17890715979
17890722388
17890728247
17890733862
17890739844
17890745703
17890752051
17890757910
17890766089
17890771216
17890779089
17890784033
17890790197
17890796362
17890802649
17890811255
17890816137
17890822851
17890827490
17890835058
17890842199
17890847876
17890855078
17890862646
17890867956
17890875524
17890883032
17890889807
17890895727
17890902502
17890907934
17890914160
17890921057
17890927038
17890932958
17890938329
17890945593
17890950964
17890959203
17890964330
17890971532
17890976415
17890983678
17890989355
17890996008
17891001867
17891008947
17891015478
17891022375
17891028722
17891034521
17891040136
17891046117
17891053930
17891060155
17891065648
17891071569
17891079503
17891084447
17891092687
17891098729
17891105565
17891112035
17891121984
17891130101
17891135717
17891145238
17891152745
17891159764
17891165746
17891171849
17891177465
17891183263
17891189183
17891197423
17891205052
17891212621
17891218480
17891223546
17891235143
17891238439
17891247655
17891255284
17891261937
17891268773
17891275487
17891281895
17891287755
17891293675
17891300450
17891308812
17891314305
17891320897
17891325963
17891332677
17891338841
17891344029
17891352635
17891358922
17891364049
17891370701
17891375401
17891381993
17891387974
17891395115
17891402256
17891408543
17891414647
17891421788
17891427403
17891432225
17891442356
17891451268
17891458348
17891463414
17891471043
17891477757
17891484959
17891491246
17891496128
17891505772
17891512974
17891518467
17891524937
17891531590
17891538059
17891544163
17891556858
17891564426
17891569859
17891577732
17891583103
17891591099
17891596409
17891604282
17891609714
17891621433
17891625523
17891634189
17891642795
17891649570
17891655308
17891663608
17891669956
17891680332
17891686191
17891694919
17891700840
17891708652
17891715793
17891722263
17891729709
17891739048
17891745212
17891753025
17891759006
17891768039
17891773532
17891783176
17891789524
17891797641
17891804050
17891814670
17891821384
17891829746
17891836948
17891843723
17891849460
17891858920
17891862888
17891874484
17891878146
17891889377
17891896152
17891904819
17891908542
17891918979
17891925387
17891931979
17891938205
17891943393
17891949435
17891956210
17891962741
17891968966
17891975924
17891980685
17891987765
17891993991
17892000216
17892005282
17892013644
17892020480
17892025546
17892029879
17892037448
17892043063
17892048129
17892057284
17892063510
17892068820
17892074557
17892082003
17892086642
17892093478
17892098239
17892105990
17892112704
17892117770
17892123873
17892128817
17892136080
17892141818
17892149142
17892155245
17892161715
17892167880
17892173678
17892179049
17892184847
17892189059
17892196322
17892202181
17892206881
17892211214
17892217806
17892222811
17892228670
17892236971
17892242586
17892247469
17892252474
17892258761
17892262728
17892269442
17892274080
17892282503
17892286593
17892292513
17892297823
17892305391
17892310213
17892315584
17892323275
17892327608
17892334871
17892339876
17892346285
17892351595
17892357881
17892365450
17892371309
17892377535
17892383943
17892391085
17892395662
17892404085
17892409822
17892416292
17892421663
17892429109
17892434114
17892440401
17892447298
17892454012
17892460420
17892465608
17892474031
17892478609
17892486543
17892491609
17892498262
17892504365
17892511507
17892517854
17892523653
17892529756
17892535676
17892541963
17892548372
17892554597
17892561067
17892567048
17892573457
17892578889
17892586091
17892591707
17892599153
17892606843
17892612581
17892620759
17892627595
17892634004
17892642610
17892651277
17892659944
17892666352
17892673982
17892680207
17892687287
17892694428
17892701325
17892707612
17892712800
17892719819
17892726594
17892734162
17892739777
17892748017
17892753816
17892760957
17892768220
17892774079
17892779206
17892786591
17892792207
17892797700
17892802399
17892809296
17892816743
17892822968
17892829011
17892836457
17892843171
17892850556
17892857331
17892863007
17892870575
17892877533
17892884552
17892890168
17892897736
17892903473
17892910675
17892915436
17892921845
17892928070
17892934601
17892939850
17892949555
17892956574
17892962555
17892969147
17892975067
17892981171
