17962224951
17962228674
17962232336
17962235571
17962239172
17962242712
17962245947
17962250159
17962254431
17962261511
17962270544
17962276282
17962281653
17962287695
17962295935
17962301977
17962308386
17962314734
17962319555
17962327795
17962332495
17962338598
17962344702
17962350683
17962356787
17962365210
17962371130
17962379858
17962387365
17962393469
17962401953
17962410009
17962417578
17962423864
17962432592
17962440588
17962448522
17962455297
17962463110
17962469213
17962478246
17962485571
17962492101
17962502538
17962508947
17962517736
17962524694
17962532018
17962540502
17962549474
17962556921
17962563817
17962573278
17962578344
17962588537
17962595861
17962604101
17962613012
17962619298
17962629491
17962633458
17962641759
17962654454
17962661107
17962671422
17962675817
17962685949
17962693456
17962701879
17962710851
17962717992
17962725743
17962734227
17962742650
17962750585
17962757359
17962767980
17962774449
17962781651
17962790562
17962796361
17962804723
17962812047
17962818822
17962827733
17962836583
17962843846
17962850804
17962857396
17962866307
17962874974
17962881749
17962887608
17962897313
17962905675
17962911351
17962919896
17962931797
17962941075
17962948826
17962960911
17962968907
17962977940
17962985997
17962995091
17963003392
17963011997
17963020848
17963028050
17963036106
17963044163
17963051060
17963059788
17963066441
17963074314
17963082920
17963090305
17963098423
17963106602
17963113377
17963121677
17963130283
17963136326
17963145725
17963153049
17963160313
17963169163
17963174717
17963182957
17963192234
17963199253
17963207187
17963214695
17963223362
17963228977
17963238132
17963244358
17963252414
17963261997
17963269138
17963277195
17963285129
17963292331
17963301670
17963308994
17963316013
17963323398
17963333164
17963340427
17963349216
17963356235
17963365512
17963370578
17963381992
17963390537
17963398593
17963408603
17963415439
17963424960
17963433627
17963441562
17963450534
17963457370
17963465854
17963474582
17963483493
17963490695
17963501010
17963509372
17963517428
17963525546
17963533542
17963541964
17963551364
17963560397
17963565402
17963576205
17963584750
17963592623
17963601168
17963609103
17963619601
17963625643
17963634921
17963641451
17963650424
17963657687
17963666903
17963674471
17963685030
17963695345
17963704501
17963712740
17963721835
17963731417
17963739840
17963746187
17963752535
17963762850
17963770174
17963775545
17963783419
17963790377
17963801485
17963806063
17963815401
17963819674
17963829317
17963833834
17963844332
17963853243
17963861055
17963869783
17963876314
17963885713
17963892488
17963901277
17963911287
17963919405
17963926119
17963933565
17963942110
17963948091
17963953584
17963969087
17963977632
17963984285
17963992647
17963998994
17964007173
17964013277
17964022432
17964027254
17964040010
17964046236
17964053743
17964061494
17964068635
17964076814
17964084138
17964093171
17964101594
17964108003
17964116853
17964124604
17964131318
17964140535
17964147004
17964157502
17964165681
17964174653
17964182954
17964191377
17964201570
17964208711
17964218720
17964223481
17964234712
17964239655
17964250642
17964259980
17964266389
17964275117
17964283295
17964291657
17964299653
17964306611
17964314667
17964319428
17964330109
17964339814
17964347993
17964355195
17964361725
17964370453
17964378144
17964385468
17964393708
17964401459
17964412690
17964421296
17964429657
17964439301
17964446686
17964460358
17964468903
17964478119
17964484894
17964492707
17964500214
17964508820
17964516693
17964525482
17964532990
17964541413
17964549591
17964558197
17964565399
17964573761
17964580536
17964588470
17964595734
17964603973
17964611481
17964620941
17964630279
17964634552
17964645538
17964650787
17964658905
17964663483
17964675445
17964683014
17964690460
17964697296
17964704559
17964712799
17964719024
17964726165
17964735504
17964744537
17964753021
17964760589
17964765045
17964776580
17964784454
17964792327
17964800994
17964808746
17964814971
17964820159
17964826995
17964832244
17964839813
17964847442
17964854217
17964860809
17964865875
17964872833
17964878997
17964885162
17964890655
17964898284
17964904815
17964910735
17964915801
17964921661
17964928924
17964934722
17964942290
17964947784
17964955047
17964961272
17964966826
17964973479
17964979766
17964986114
17964994780
17965001616
17965008452
17965015715
17965022551
17965031096
17965037566
17965043853
17965050139
17965058684
17965063018
17965072722
17965077422
17965086516
17965098113
17965105803
17965116789
17965127532
17965137785
17965152556
17965159697
17965167815
17965174773
17965178557
17965187163
17965194609
17965201506
17965209990
17965218352
17965224821
17965230620
17965237089
17965242705
17965249602
17965255949
17965263701
17965270354
17965278410
17965284880
17965291777
17965297880
17965304594
17965312285
17965318144
17965323942
17965330229
17965337370
17965343168
17965349028
17965355803
17965363920
17965370268
17965376860
17965383024
17965389189
17965395964
17965402006
17965411955
17965418119
17965426725
17965432585
17965441129
17965446867
17965457060
17965464628
17965471037
17965476774
17965486112
17965492277
17965497953
17965505827
17965513578
17965519620
17965527921
17965536222
17965544218
17965550687
17965555265
17965564664
17965571439
17965579862
17965584623
17965593046
17965597806
17965608793
17965615934
17965621549
17965628019
17965636686
17965641446
17965650602
17965657254
17965665494
17965672513
17965680509
17965686856
17965693204
17965699735
17965707120
17965715360
17965722989
17965731107
17965738431
17965747037
17965753934
17965760342
17965769070
17965775723
17965782925
17965793118
17965798123
17965814175
17965823086
17965831570
17965840848
17965848782
17965856290
17965864041
17965876553
17965885220
17965894314
17965904263
17965912503
17965921048
17965927884
17965936184
17965944424
17965947354
17965958279
17965963467
17965974087
17965979824
17965988796
17965993862
17966004055
17966011196
17966020352
17966025234
17966033535
17966041531
17966050625
17966056912
17966064724
17966070522
17966079006
17966085415
17966092129
17966099697
17966106106
17966111599
17966118069
17966123623
17966130459
17966136074
17966142971
17966148952
17966155361
17966161098
17966168789
17966175075
17966181301
17966187649
17966192287
17966197963
17966205959
17966212368
17966218837
17966223964
17966230007
17966235927
17966242824
17966249111
17966254482
17966261501
17966268703
17966276332
17966280300
17966291957
17966301113
17966309596
17966315151
17966322841
17966329799
17966335170
17966340724
17966347194
17966354091
17966358669
17966363857
17966368434
17966375880
17966383083
17966388759
17966396083
17966400783
17966409877
17966416225
17966421352
17966427821
17966432216
17966438258
17966443873
17966448939
17966454188
17966462001
17966468043
17966475306
17966482203
17966488612
17966493983
17966500453
17966506556
17966514003
17966520106
17966524928
17966530726
17966535609
17966542201
17966547084
17966554408
17966558314
17966566554
17966573207
17966579310
17966585292
17966589503
17966595790
17966602320
17966607936
17966614894
17966620448
17966627955
17966633387
17966639246
17966644068
17966649561
17966657801
17966663783
17966670008
17966675440
17966681544
17966685328
17966694239
17966701136
17966707728
17966714259
17966719508
17966727503
17966735010
17966740687
17966748377
17966754236
17966761194
17966766627
17966773279
17966780054
17966786158
17966793238
17966799402
17966807886
17966812281
17966820643
17966827295
17966833460
17966839075
17966846704
17966853479
17966859034
17966866968
17966873804
17966879969
17966886621
17966892237
17966899317
17966906702
17966913660
17966919519
17966924768
17966930261
17966935327
17966942041
17966947534
17966954492
17966959802
17966967004
17966973108
17966979578
17966983972
17966992761
17966999902
17967006555
17967013635
17967020532
17967027124
17967033655
17967039270
17967046472
17967052453
17967058313
17967065515
17967071252
17967077966
17967083947
17967092431
17967101281
17967108728
17967114587
17967121545
17967128625
17967136254
17967143029
17967149377
17967155847
17967161157
17967168664
17967174523
17967180566
17967184350
17967192040
17967199304
17967206262
17967213098
17967218041
17967224511
17967231347
17967236779
17967243798
17967250207
17967256249
17967263879
17967269799
17967276513
17967282189
17967287865
17967295495
17967300805
17967308617
17967315209
17967321618
17967328698
17967335168
17967343590
17967350243
17967359459
17967365868
17967372033
17967377953
17967385949
17967392540
17967397728
17967403527
17967412133
17967416649
17967425194
17967432763
17967441796
17967448754
17967456383
17967463646
17967473595
17967480370
17967485741
17967491478
17967500817
17967506310
17967513268
17967519066
17967528404
17967537621
17967545067
17967551964
17967559959
17967565819
17967573631
17967579491
17967587364
17967595299
17967602318
17967610680
17967618004
17967623924
17967632225
17967637840
17967645531
17967653343
17967661461
17967668175
17967677818
17967685203
17967692772
17967700706
17967708885
17967716697
17967723106
17967728355
17967736778
17967742393
17967751670
17967763389
17967772727
17967778831
17967786888
17967794700
17967801841
17967810386
17967815452
17967821250
17967827232
17967832786
17967840171
17967845969
17967852500
17967857993
17967865073
17967868552
17967875877
17967879539
17967889243
17967896567
17967903281
17967909446
17967914512
17967919944
17967924644
17967931296
17967935874
17967943442
17967948813
17967954612
17967960593
17967966880
17967970237
17967977317
17967983481
17967989646
17967995688
17968000327
17968006430
17968013083
17968018393
17968024802
17968029929
17968035422
17968042197
17968048117
17968054282
17968060202
17968066001
17968071738
17968076987
17968082785
17968086997
17968093344
17968098899
17968103171
17968109274
17968115439
17968120810
17968126792
17968132041
17968138876
17968143576
17968149680
17968156149
17968162436
17968167990
17968175742
17968180807
17968185080
17968192038
17968196493
17968203879
17968208700
17968216330
17968222372
17968228842
17968234518
17968241293
17968247214
17968255270
17968261557
17968268088
17968273947
17968280661
17968287436
17968292502
17968299643
17968306112
17968314901
17968319662
17968330343
17968339804
17968351828
17968361288
17968370077
17968378195
17968383871
17968389059
17968397116
17968404501
17968411459
17968415365
17968425253
17968431356
17968437643
17968443624
17968451009
17968458822
17968463583
17968469747
17968476217
17968482931
17968489095
17968496297
17968502157
17968510458
17968516134
17968522787
17968528463
17968536214
17968542989
17968549764
17968554098
17968562826
17968566793
17968576925
17968582906
17968589803
17968593953
17968603780
17968610067
17968617147
17968623311
17968630147
17968637654
17968645162
17968651448
17968659200
17968665792
17968669759
17968677999
17968684590
17968690999
17968697652
17968704061
17968710591
17968717122
17968724263
17968729573
17968737203
17968744038
17968750447
17968757039
17968765035
17968769978
17968778340
17968783772
17968790425
17968797383
17968805867
17968810139
17968818745
17968824666
17968832051
17968838032
17968847127
17968855855
17968862629
17968868428
17968877461
17968883870
17968891133
17968899067
17968906514
17968913411
17968919819
17968927388
17968933369
17968941548
17968947468
17968955281
17968962178
17968976338
17968983601
17968989887
17968997334
17969005879
17969013813
17969020954
17969030110
17969036335
17969044819
17969051960
17969057636
17969063740
17969072163
17969078266
17969086567
17969090900
17969099873
17969105610
17969113605
17969119221
17969127033
17969132892
17969141987
17969146137
17969155048
17969162739
17969170002
17969177204
17969185627
17969192341
17969199787
17969207843
17969213703
17969221271
17969228717
17969235614
17969243366
17969252582
17969258869
17969267353
17969273273
17969282489
17969288471
17969296832
17969305438
17969312152
17969317584
17969325641
17969333637
17969341388
17969348712
17969357074
17969361469
17969372516
17969378741
17969384723
17969391437
17969396136
17969403216
17969410235
17969416156
17969421649
17969429034
17969435565
17969442340
17969448810
17969455218
17969461932
17969468585
17969474994
17969479632
17969486529
17969493121
17969498553
17969505145
17969511859
17969517291
17969524554
17969530230
17969536517
17969544207
17969549578
17969554644
17969563433
17969570635
17969576983
17969580889
17969589800
17969594622
17969601519
17969607318
17969612872
17969619219
17969627886
17969635333
17969640154
17969648394
17969659930
17969665240
17969671831
17969678789
17969684893
17969691790
17969698016
17969703875
17969709063
17969715533
17969720904
17969728045
17969732989
17969738665
17969745989
17969752093
17969758257
17969763323
17969769915
17969774798
17969782000
17969788897
17969794756
17969800493
17969806292
17969812700
17969818499
17969824053
17969830400
17969837236
17969840898
17969849260
17969855242
17969860979
17969867021
17969872576
17969879900
17969884355
17969890886
17969897295
17969902910
17969909258
17969914201
17969920732
17969929521
17969935808
17969942033
17969948686
17969955400
17969962236
17969969316
17969975236
17969982194
17969989213
17969995134
17970002092
17970007646
17970015764
17970022905
17970031022
17970038347
17970043718
17970052141
17970057878
17970064775
17970070695
17970078080
17970083329
17970089372
17970094560
17970100541
17970106462
17970114824
17970121476
17970127580
17970133805
17970138627
17970144609
17970151322
17970158647
17970165422
17970171952
17970178666
17970184403
17970191117
17970198075
17970203324
17970211808
17970218034
17970226334
17970233964
17970242265
17970250810
17970256608
17970264970
17970272599
17970279618
17970285905
17970292069
17970298600
17970303849
17970310563
17970317704
17970325699
17970330887
17970337296
17970344132
17970350724
17970356461
17970363419
17970369523
17970378251
17970384598
17970389908
17970395646
17970403397
17970409623
17970416458
17970423844
17970429032
17970436417
17970443314
17970450455
17970455155
17970461808
17970467972
17970474869
17970481705
17970488724
17970494217
17970501114
17970509354
17970516129
17970521744
17970530045
17970538040
17970544815
17970550369
17970559341
17970565262
17970571304
17970579178
17970586014
17970592117
17970598648
17970604935
17970611832
17970619644
17970625870
17970634109
17970641311
17970647659
17970655105
17970662307
17970670181
17970676651
17970683487
17970689102
17970698990
17970705215
17970712295
17970718155
17970727005
17970733291
17970740493
17970746597
17970754531
17970763442
17970771926
17970778152
17970785354
17970794143
17970801406
17970810073
17970817825
17970825027
17970834182
17970838699
17970849136
17970856765
17970864516
17970869643
17970879531
17970888076
17970894790
17970903579
17970910232
17970919387
17970927993
17970934646
17970943496
17970952712
17970961806
17970969924
17970977675
17970985000
17970990432
17970999465
17971005019
17971012099
17971017775
17971024855
17971031874
17971038588
17971044081
17971051161
17971057875
17971064467
17971070754
17971077040
17971082961
17971090041
17971093947
17971105361
17971112563
17971118483
17971125197
17971131545
17971138319
17971143080
17971151381
17971156447
17971163527
17971170119
17971176527
17971182997
17971189772
17971197035
17971203383
17971210707
17971216505
17971223463
17971229201
17971236036
17971242140
17971250258
17971255507
17971261183
17971266920
17971270399
17971278700
17971284620
17971290541
17971296278
17971302015
17971307386
17971312941
17971318373
17971324537
17971331190
17971336256
17971342298
17971347120
17971353956
17971359083
17971366468
17971372450
17971378248
17971384596
17971390272
17971395460
17971401441
17971407728
17971413587
17971420728
17971425489
17971432325
17971437086
17971444166
17971448988
17971456739
17971463270
17971469862
17971476270
17971482313
17971488233
17971494031
17971500440
17971506360
17971512525
17971519971
17971526441
17971533826
17971540784
17971546216
17971554090
17971560193
17971567457
17971571790
17971581556
17971588880
17971594678
17971601514
17971606763
17971613843
17971620374
17971627759
17971636975
17971644239
17971649488
17971657727
17971664624
17971671643
17971678418
17971686597
17971693433
17971700513
17971708936
17971714307
17971722180
17971728894
17971735730
17971740796
17971748914
17971753857
17971760815
17971767834
17971773999
17971781079
17971788098
17971793652
17971801404
17971806653
17971814221
17971819714
17971826245
17971831799
17971840039
17971844067
17971851941
17971857373
17971865246
17971870862
17971878125
17971884716
17971892590
17971896618
17971904309
17971910900
17971917492
17971924511
17971931591
17971938549
17971944897
17971951489
17971957897
17971964550
17971971020
17971977978
17971982983
17971990063
17971996533
17972003063
17972009594
17972016674
17972023632
17972029064
17972036205
17972042675
17972049816
17972056347
17972061901
17972068859
17972076794
17972085522
17972092296
17972100597
17972105297
17972113048
17972116955
17972127270
17972133495
17972140819
17972149669
17972155346
17972164379
17972170604
17972178112
17972186779
17972195751
17972202343
17972213878
17972219738
17972226879
17972234630
17972241710
17972248302
17972254833
17972262767
17972267833
17972276317
17972283885
17972289684
17972297679
17972304698
17972310802
17972320079
17972326244
17972334850
17972341014
17972348521
17972354625
17972362498
17972368480
17972375743
17972381724
17972390025
17972395885
17972404429
17972410472
17972417430
17972423350
17972432750
17972437022
17972445689
17972451915
17972460765
17972468699
17972476695
17972484446
17972491099
17972497325
17972506724
17972513194
17972520640
17972527415
17972536875
17972543894
17972551829
17972558604
17972566661
17972574839
17972583201
17972590037
17972596690
17972605052
17972611826
17972617625
17972627268
17972633006
17972641367
17972647837
17972656016
17972664011
17972673045
17972678782
17972687876
17972693674
17972701060
17972708384
17972716074
17972722727
17972730723
17972738413
17972744883
17972752268
17972758555
17972764780
17972771372
17972777842
17972783823
17972791697
17972796457
17972803293
17972810251
17972815744
17972822641
17972829172
17972834665
17972842111
17972847360
17972854990
17972860483
17972868479
17972872446
17972882700
17972886606
17972895090
17972902414
17972909433
17972917429
17972923105
17972931528
17972937997
17972943674
17972950021
17972956003
17972962228
17972968454
17972974618
17972981454
17972986642
17972992746
17972997507
17973004587
17973010690
17973016366
17973019906
17973028879
17973034189
17973039804
17973046457
17973050912
17973058297
17973062692
17973070321
17973075082
17973081552
17973086923
17973092721
17973097360
17973103280
17973109811
17973114694
17973121347
17973127572
17973133309
17973139108
17973144357
17973150277
17973157113
17973162728
17973169503
17973174935
17973181405
17973187020
17973194405
17973200692
17973206063
17973211923
17973217843
17973223153
17973229623
17973236581
17973241769
17973248605
17973254464
17973259957
17973264779
17973271188
17973276009
17973282723
17973288277
17973294564
17973299874
17973307747
17973311898
17973319893
17973325631
17973333138
17973340706
17973347237
17973351082
17973359627
17973366341
17973371468
17973378121
17973384346
17973392159
17973397835
17973405220
17973412117
17973418709
17973423836
17973431038
17973438301
17973444649
17973449959
17973456490
17973462715
17973469429
17973475716
17973484688
17973490608
17973497872
17973505196
17973512398
17973519295
17973526131
17973532967
17973540962
17973547188
17973552498
17973558968
17973564644
17973570930
17973576301
17973583443
17973590217
17973597359
17973604072
17973609566
17973615486
17973622139
17973628547
17973633674
17973641121
17973648079
17973654121
17973661018
17973667610
17973674568
17973681648
17973687141
17973695320
17973700264
17973706855
17973713813
17973719306
17973724189
17973731819
17973737678
17973744514
17973750007
17973757331
17973764839
17973771858
17973778022
17973784736
17973790840
17973800056
17973805854
17973814033
17973818061
17973830146
17973836005
17973844917
17973853095
17973859992
17973867499
17973872626
17973880073
17973886542
17973892890
17973899421
17973908088
17973913642
17973920478
17973927802
17973934882
17973939948
17973947455
17973952521
17973962409
17973968695
17973976569
17973982123
17973989386
17973994941
17974001410
17974007148
17974016852
17974021369
17974031012
17974037665
17974044989
17974053473
17974060431
17974064948
17974074103
17974080023
17974089545
17974097907
17974103339
17974112311
17974121832
17974129828
17974139593
17974146674
17974153387
17974160712
17974164557
17974174383
17974183417
17974191595
17974200812
17974206305
17974213629
17974221319
17974228216
17974236090
17974244330
17974250555
17974258001
17974263922
17974272162
17974278204
17974286077
17974292852
17974302191
17974306524
17974314520
17974321417
17974329046
17974336370
17974343878
17974348150
17974357366
17974364507
17974371282
17974375005
17974383367
17974388799
17974395879
17974402410
17974408636
17974416021
17974420660
17974427740
17974431951
17974439031
17974443487
17974451238
17974456487
17974463201
17974467901
17974474554
17974479925
17974486150
17974492437
17974500677
17974505865
17974511602
17974517095
17974522893
17974530767
17974537847
17974543950
17974549260
17974556218
17974562200
17974566594
17974571355
17974578618
17974582219
17974592168
17974597966
17974603643
17974608586
17974614751
17974620977
17974626714
17974634526
17974640447
17974645513
17974649846
17974656743
17974661504
17974668523
17974674748
17974681218
17974689214
17974696172
17974704594
17974712346
17974719670
17974727788
17974734685
17974740300
17974745976
17974752202
17974758488
17974764958
17974773015
17974779179
17974786259
17974792912
17974798833
17974805974
17974811467
17974818364
17974825078
17974830876
17974836552
17974842412
17974847722
17974854924
17974862065
17974868046
17974873906
17974879521
17974886174
17974892460
17974897648
17974903813
17974911137
17974916691
17974923161
17974930546
17974937077
17974941777
17974950138
17974957096
17974963505
17974969914
17974976689
17974982914
17974987980
17974994999
17975002140
17975008976
17975014347
17975022038
17975025578
17975033695
17975039555
17975045597
17975052982
17975060795
17975067203
17975071842
17975079410
17975085819
17975091373
17975098026
17975104191
17975111576
17975116459
17975123600
17975130069
17975135868
17975141544
17975147953
17975154361
17975161197
17975167606
17975173771
17975179508
17975185917
17975192630
17975198673
17975206546
17975211673
17975216922
17975225162
17975231327
17975238468
17975246219
17975252750
17975259525
17975265811
17975272281
17975277469
17975285343
17975291385
17975299014
17975305789
17975311771
17975316837
17975323428
17975328738
17975338016
17975346561
17975353458
17975360538
17975368167
17975375308
17975381106
17975387881
17975396548
17975403750
17975410159
17975419009
17975423160
17975431155
17975437747
17975443850
17975447757
17975455447
17975461612
17975468081
17975474246
17975481448
17975487979
17975494876
17975501223
17975506045
17975513125
17975520510
17975527285
17975533328
17975540469
17975546328
17975553530
17975559817
17975566958
17975573123
17975582339
17975586977
17975596011
17975602786
17975610964
17975617312
17975625124
17975629336
17975637514
17975644106
17975650027
17975656313
17975663760
17975669619
17975676150
17975681887
17975688906
17975694704
17975702883
17975710268
17975719301
17975724795
17975733950
17975738955
17975748110
17975752932
17975762087
17975771486
17975777163
17975784365
17975791445
17975799257
17975806765
17975813906
17975821901
17975829836
17975836672
17975844179
17975852419
17975857912
17975865846
17975872926
17975878359
17975890199
17975896181
17975906557
17975914369
17975920412
17975926576
17975935487
17975942201
17975951234
17975958864
17975966920
17975973207
17975979860
17975985841
17975992067
17976000551
17976007203
17976014467
17976020082
17976026429
17976030336
17976040407
17976047364
17976053468
17976059633
17976066041
17976072755
17976079408
17976085023
17976090089
17976098329
17976103822
17976110536
17976115357
17976122804
17976126405
17976135560
17976143312
17976149415
17976155946
17976160340
17976167848
17976172242
17976179139
17976185975
17976193543
17976199281
17976204285
17976209168
17976215638
17976220399
17976227906
17976234864
17976240418
17976246461
17976252320
17976257508
17976263245
17976268372
17976274842
17976280640
17976285401
17976292115
17976297852
17976303406
17976308838
17976313965
17976322266
17976328187
17976334107
17976338440
17976343750
17976348206
17976354737
17976362244
17976369385
17976374756
17976382019
17976388123
17976392945
17976400269
17976408570
17976414612
17976420594
17976426148
17976432007
17976438355
17976444763
17976450318
17976457764
17976463318
17976469177
17976476441
17976484009
17976490723
17976496948
17976504211
17976510620
17976516846
17976522827
17976528809
17976536377
17976543396
17976549255
17976555847
17976562195
17976568481
17976574524
17976579895
17976587219
17976596924
17976603637
17976609558
17976616943
17976626037
17976632751
17976650390
17976666259
17976676757
17976681518
17976690856
17976695007
17976702880
17976706604
17976714782
17976720825
17976727661
17976734313
17976739623
17976746948
17976752136
17976762084
17976767333
17976778137
17976785339
17976793762
17976799072
17976805358
17976811156
17976818725
17976823852
17976830871
17976834655
17976842040
17976848022
17976854247
17976861754
17976867919
17976874389
17976881103
17976887694
17976895141
17976901061
17976906493
17976914184
17976920470
17976926513
17976932677
17976939513
17976946227
17976952514
17976958129
17976964171
17976970641
17976977965
17976984313
17976991149
17976999266
17977006530
17977012389
17977018981
17977025511
17977033507
17977040770
17977048338
17977055358
17977062071
17977069029
17977074339
17977084349
17977090758
17977096068
17977101134
17977111632
17977120055
17977125304
17977132994
17977138731
17977146849
17977153258
17977160643
17977166380
17977176268
17977181517
17977191099
17977198485
17977204039
17977213926
17977221312
17977228026
17977232847
17977242857
17977251768
17977259764
17977267881
17977272703
17977283750
17977292417
17977300474
17977305235
17977315672
17977322630
17977330076
17977336424
17977343138
17977349485
17977354734
17977362669
17977367796
17977375547
17977380796
17977387449
17977395322
17977401609
17977406919
17977414243
17977419431
17977427244
17977432981
17977440794
17977446653
17977454160
17977462644
17977465269
17977481382
17977490964
17977497800
17977505979
17977512082
17977519834
17977527280
17977533506
17977541806
17977551084
17977557492
17977564267
17977571653
17977580991
17977587522
17977595212
17977602475
17977605588
17977615964
17977622129
17977628476
17977634763
17977640439
17977646359
17977652951
17977659421
17977665158
17977671140
17977676206
17977683164
17977688474
17977695004
17977700803
17977708005
17977714719
17977720578
17977726071
17977734677
17977738827
17977746213
17977753781
17977758725
17977765256
17977771237
17977776852
17977783871
17977789425
17977796200
17977802670
17977807248
17977814145
17977818600
17977825192
17977829770
17977836483
17977843808
17977851315
17977857357
17977862728
17977867611
17977873471
17977878231
17977885311
17977889523
17977899655
17977906063
17977915463
17977923275
17977930660
17977937557
17977946285
17977953304
17977957760
17977964657
17977967953
17977976254
17977982418
17977988583
17977995602
17978000423
17978006893
17978013424
17978018551
17978024837
17978029537
17978036617
17978042843
17978049007
17978055416
17978060543
17978067379
17978074276
17978079586
17978085506
17978091060
17978097652
17978103939
17978110470
17978117367
17978122799
17978129390
17978135555
17978141597
17978146419
17978154903
17978160762
17978167049
17978174495
17978181026
17978187374
17978192623
17978201046
17978206966
17978214229
17978221248
17978227352
17978234981
17978243587
17978250301
17978257503
17978264644
17978268611
17978277400
17978285945
17978291744
17978300288
17978306941
17978313899
17978318965
17978325069
17978333003
17978340022
17978345759
17978353694
17978357783
17978366023
17978372920
17978377986
17978385798
17978394587
17978399409
17978407771
17978413875
17978420405
17978427485
17978433101
17978442195
17978449458
17978456111
17978464106
17978471125
17978479487
17978489131
17978494624
17978503169
17978509944
17978515986
17978522761
17978528987
17978535273
17978542048
17978548701
17978554316
17978562495
17978569941
17978576350
17978582331
17978588435
17978595637
17978600764
17978609126
17978614375
17978621882
17978627009
17978634638
17978641413
17978647578
17978655024
17978661677
17978669794
17978676691
17978683039
17978689692
17978695612
17978704645
17978711176
17978717768
17978725947
17978732843
17978740229
17978746698
17978754267
17978761652
17978768000
17978775019
17978782953
17978789179
17978796991
17978801508
17978810419
17978815912
17978823725
17978832331
17978838861
17978848871
17978856683
17978863580
17978870966
17978878717
17978886346
17978893610
17978903986
17978908380
17978917718
17978925775
17978932977
17978938592
17978945489
17978955194
17978960870
17978970819
17978975458
17978985528
17978992669
17978999261
17979007745
17979013421
17979022332
17979028924
17979036126
17979046258
17979053460
17979065301
17979073541
17979083856
17979093438
17979101983
17979117181
17979125054
17979130731
17979136773
17979142999
17979151727
17979159905
17979167291
17979173211
17979180291
17979186639
17979192315
17979200005
17979203606
17979211114
17979216790
17979222527
17979228020
17979234490
17979240716
17979247002
17979253655
17979259942
17979266656
17979270745
17979277764
17979281182
17979289300
17979295769
17979302178
17979308342
17979313469
17979320122
17979326531
17979333672
17979340813
17979346795
17979353753
17979358574
17979365471
17979370232
17979377373
17979384331
17979389885
17979395134
17979401299
17979407891
17979412407
17979418633
17979426018
17979432976
17979439385
17979444451
17979450249
17979456230
17979461113
17979467705
17979472710
17979477593
17979484489
17979490349
17979495476
17979502007
17979508354
17979514152
17979518608
17979525383
17979531792
17979537590
17979542595
17979546989
17979553764
17979558464
17979565361
17979570488
17979576713
17979582329
17979588249
17979595085
17979600273
17979607841
17979612358
17979618705
17979626030
17979633781
17979642265
17979647758
17979655998
17979663261
17979670951
17979678886
17979682182
17979689872
17979696220
17979703239
17979710502
17979717277
17979723503
17979729728
17979736320
17979743644
17979749870
17979757255
17979764091
17979770194
17979776847
17979784354
17979790336
17979795585
17979801627
17979806815
17979812858
17979817985
17979824638
17979830009
17979838431
17979842643
17979850211
17979854117
17979861991
17979865775
17979873527
17979880485
17979887198
17979894889
17979900138
17979908927
17979914298
17979922538
17979927848
17979936454
17979941947
17979949149
17979954581
17979961783
17979967765
17979976310
17979982535
17979990470
17979994620
17980002982
17980009513
17980015738
17980021842
17980028250
17980036734
17980042960
17980049429
17980054251
17980062125
17980067069
17980073355
17980080618
17980086356
17980092886
17980097586
17980104178
17980109854
17980115164
17980122427
17980128775
17980135855
17980140066
17980148916
17980152762
17980161856
17980168570
17980174856
17980182913
17980189322
17980196829
17980201956
17980209524
17980216421
17980223135
17980230825
17980241201
17980247305
17980255300
17980264578
17980270315
17980279714
17980287466
17980296377
17980300527
17980309988
17980315725
17980323416
17980329580
17980337515
17980344900
17980351858
17980358328
17980365225
17980372671
17980379812
17980386160
17980393545
17980401540
17980407156
17980415212
17980422292
17980429861
17980435110
17980442800
17980449880
17980458730
17980465078
17980472463
17980480642
17980488210
17980494619
17980502187
17980510427
17980517873
17980524099
17980532705
17980539052
17980548391
17980555349
17980563893
17980570546
17980579213
17980586354
17980594899
17980601735
17980609487
17980615895
17980624867
17980631520
17980641225
17980650075
17980657643
17980666066
17980672475
17980681508
17980690663
17980697011
17980706593
17980715199
17980723744
17980729542
17980737599
17980745412
17980751759
17980760243
17980771596
17980777821
17980786915
17980792897
17980801320
17980809193
17980816822
17980822499
17980833058
17980838978
17980846852
17980852467
17980861073
17980866932
17980873097
17980878651
17980887745
17980893299
17980899220
17980905018
17980910816
17980918873
17980924061
17980932972
17980940052
17980946583
17980952686
17980960255
17980967396
17980973255
17980982105
17980988026
17980997242
17981001698
17981009449
17981016773
17981023365
17981030140
17981036793
17981042469
17981049000
17981054554
17981061207
17981066883
17981074573
17981080189
17981085438
17981092334
17981098072
17981103687
17981109974
17981115589
17981121631
17981127247
17981132984
17981138599
17981144580
17981150928
17981156604
17981162891
17981170276
17981175098
17981181018
17981185779
17981192615
17981197437
17981204578
17981210620
17981217456
17981222766
17981228687
17981234729
17981240283
17981246448
17981252185
17981258411
17981265003
17981271106
17981276172
17981283496
17981288440
17981296069
17981299792
17981308093
17981311694
17981319446
17981326160
17981332690
17981339465
17981346301
17981351672
17981358447
17981364551
17981370166
17981377246
17981382922
17981389392
17981395007
17981402820
17981408740
17981415088
17981421191
17981426074
17981432055
17981439257
17981446887
17981452746
17981460315
17981467150
17981473071
17981479846
17981487109
17981492297
17981499926
17981506274
17981512805
17981519396
17981526537
17981531420
17981538744
17981546008
17981552416
17981560229
17981568224
17981575549
17981582140
17981587328
17981596484
17981601244
17981612048
17981619494
17981624621
17981632128
17981636950
17981643725
17981648669
17981657152
17981663256
17981671007
17981677111
17981682726
17981688036
17981695543
17981701098
17981706957
17981712389
17981720079
17981726610
17981733629
17981740465
17981747484
17981755419
17981761705
17981767382
17981773607
17981778612
17981784777
17981790819
17981797472
17981803758
17981808519
17981815965
17981821031
17981827013
17981833910
17981839342
17981844957
17981851793
17981857164
17981863634
17981869127
17981875475
17981880846
17981890184
17981894762
17981903978
17981913194
17981918016
17981925035
17981932054
17981939500
17981947313
17981954088
17981959825
17981966295
17981971971
17981980882
17981984849
17981993882
17982001207
17982007859
17982014756
17982020005
17982027330
17982034532
17982040940
17982048143
17982054490
17982063340
17982071153
17982077439
17982086717
17982094346
17982101792
17982107957
17982117234
17982126328
17982133531
17982141404
17982148728
17982155198
17982162888
17982169419
17982175401
17982182847
17982190720
17982199204
17982209336
17982221482
17982227830
17982238267
17982249192
17982259690
17982265305
17982275437
17982282212
17982288804
17982295151
17982301804
17982308640
17982316147
17982324448
17982330429
17982338303
17982343857
17982351731
17982357224
17982364792
17982370590
17982379868
17982387436
17982394028
17982400925
17982407456
17982412705
17982419724
17982429489
17982435410
17982444016
17982449875
17982456772
17982462326
17982469955
17982475876
17982483139
17982489120
17982496139
17982502182
17982507797
17982513351
17982518967
17982526962
17982533554
17982538986
17982544113
17982552109
17982557541
17982563156
17982570114
17982577560
17982583114
17982590316
17982596542
17982601181
17982609115
17982616134
17982622787
17982628952
17982634018
17982641037
17982645980
17982652877
17982659164
17982665267
17982670822
17982676620
17982683212
17982687850
17982695968
17982700790
17982707321
17982712997
17982718917
17982725570
17982730880
17982735641
17982741012
17982748580
17982753097
17982759078
17982764571
17982771285
17982776473
17982781783
17982787887
17982795760
17982802474
17982809615
17982815841
17982821822
17982828231
17982839828
17982847640
17982853744
17982859054
17982865645
17982869857
17982877669
17982883284
17982890304
17982896102
17982901717
17982905257
17982913863
17982920089
17982926925
17982933272
17982939315
17982945296
17982950118
17982957686
17982961714
17982971175
17982975875
17982981673
17982989363
17982994673
17983001753
17983007186
17983013777
17983019576
17983027998
17983034346
17983040633
17983046126
17983053206
17983059554
17983065657
17983072493
17983077437
17983084517
17983091963
17983098006
17983104964
17983111738
17983115645
17983123396
17983129011
17983136946
17983143294
17983149580
17983158064
17983164473
17983171370
17983176619
17983184736
17983189009
17983197615
17983205916
17983212996
17983220808
17983227156
17983233503
17983239668
17983246443
17983252973
17983259931
17983267683
17983275068
17983281172
17983289839
17983295515
17983303999
17983311750
17983318037
17983324507
17983329817
17983336652
17983341535
17983350385
17983355695
17983362165
17983367414
17983375715
17983384809
17983392866
17983399824
17983404401
17983414533
17983422590
17983430952
17983437849
17983443647
17983452192
17983458661
17983464765
17983471601
17983476972
17983484113
17983490400
17983500470
17983503888
17983513593
17983521405
17983526044
17983533551
17983539716
17983547284
17983552655
17983559857
17983566693
17983573102
17983580121
17983585492
17983589459
17983598981
17983604901
17983611127
17983617841
17983624555
17983631268
17983637006
17983645001
17983651166
17983659039
17983665021
17983673505
17983681134
17983688214
17983695660
17983702435
17983709759
17983715008
17983724164
17983729901
17983738446
17983742657
17983751935
17983759259
17983767804
17983774518
17983779767
17983789166
17983796002
17983804669
17983809124
17983819744
17983828045
17983836224
17983843121
17983851483
17983859295
17983867291
17983874981
17983883221
17983891278
17983899456
17983907635
17983913738
17983924358
17983930889
17983939251
17983946087
17983955975
17983962872
17983971233
17983980328
17983988140
17983996258
17984003765
17984011211
17984017315
17984026287
17984032390
17984041851
17984051433
17984058635
17984067241
17984074871
17984080669
17984088970
17984098064
17984105022
17984109172
17984118145
17984124797
17984130901
17984136821
17984143230
17984149639
17984157451
17984163555
17984170207
17984176982
17984182598
17984190349
17984198345
17984204448
17984211162
17984217571
17984225017
17984231548
17984237529
17984244670
17984251689
17984257121
17984264384
17984270488
17984277690
17984283672
17984289775
17984296001
17984301860
17984309062
17984315044
17984320293
17984326457
17984332438
17984339458
17984345012
17984351237
17984357036
17984363383
17984368876
17984375285
17984381938
17984387919
17984392741
17984399760
17984404460
17984411906
17984418803
17984424357
17984432048
17984436747
17984443705
17984448527
17984455119
17984461833
17984469218
17984479533
17984488383
17984498881
17984505961
17984517497
17984525736
17984534953
17984544291
17984556620
17984565409
17984574503
17984581339
17984591288
17984600931
17984609598
17984618693
17984629069
17984637675
17984646403
17984653910
17984663309
17984670572
17984679178
17984687113
17984694620
17984703714
17984712687
17984721903
17984735819
17984744120
17984752054
17984761026
17984769571
17984780069
17984787943
17984795145
17984805338
17984812662
17984820413
17984827921
17984837930
17984847818
17984856363
17984865640
17984872049
17984881082
17984890420
17984899881
17984907144
17984917398
17984926492
17984935403
17984944131
17984953287
17984962076
17984968545
17984979348
17984986367
17984995889
17985006021
17985012490
17985022683
17985029153
17985040017
17985046670
17985055398
17985064981
17985073464
17985080972
17985091043
17985098367
17985107400
17985117165
17985126199
17985134499
17985143411
17985152261
17985161538
17985170205
17985179360
17985187844
17985195168
17985206093
17985211220
17985221474
17985231423
17985239846
17985248452
17985255227
17985263955
17985272561
17985281533
17985291115
17985299355
17985306618
17985316628
17985322853
17985333474
17985340615
17985348244
17985356362
17985365883
17985375771
17985383400
17985395607
17985408486
17985417030
17985428322
17985435097
17985445290
17985452858
17985464088
17985473671
17985484657
17985494911
17985509682
17985518532
17985535682
17985546913
17985560646
17985575844
17985590370
17985601356
17985609840
17985620338
17985630836
17985640358
17985649208
17985659156
17985669227
17985677040
17985687293
17985698829
17985707313
17985717262
17985726112
17985736915
17985746742
17985756751
17985765479
17985777076
17985786536
17985795631
17985805152
17985814673
17985824561
17985836524
17985847815
17985855445
17985864600
17985877356
17985885169
17985896827
17985904700
17985916968
17985927527
17985936927
17985945838
17985955542
17985966345
17985974158
17985987219
17985995215
17986006201
17986015418
17986025061
17986035010
17986042883
17986051550
17986055945
17986064490
17986070593
17986077612
17986084509
17986092017
17986099890
17986105810
17986113257
17986119177
17986126501
17986129919
17986138098
17986146216
17986152380
17986159216
17986164343
17986171057
17986175940
17986183020
17986186804
17986195288
17986201208
17986207006
17986212622
17986219091
17986224707
17986230993
17986237951
17986243017
17986250097
17986253759
17986261877
17986271398
17986280432
17986287390
17986297643
17986306860
17986313207
17986320409
17986326879
17986332800
17986338415
17986343786
17986349767
17986355932
17986361730
17986368505
17986373937
17986379919
17986385778
17986391393
17986397008
17986404211
17986410131
17986413854
17986422155
17986427709
17986432836
17986439916
17986446569
17986452611
17986457189
17986462926
17986468663
17986475072
17986480443
17986485997
17986493077
17986498510
17986503392
17986508153
17986514867
17986520909
17986526830
17986533116
17986540319
17986545446
17986550511
17986557225
17986561193
17986569921
17986576695
17986583409
17986589818
17986595006
17986602574
17986606175
17986613255
17986618993
17986625157
17986632054
17986637669
17986644566
17986650853
17986656224
17986663548
17986669102
17986675389
17986681004
17986689610
17986696385
17986702550
17986709874
17986719578
17986733250
17986739903
17986745823
17986754796
17986760533
17986771275
17986778355
17986783787
17986791722
17986799107
17986806675
17986816624
17986823582
17986832798
17986844456
17986852757
17986862400
17986870335
17986876866
17986884739
17986891697
17986898472
17986904026
17986911350
17986917210
17986922581
17986930943
17986937290
17986943211
17986949863
17986956272
17986963352
17986968418
17986977940
17986984104
17986991001
17986996921
17987003330
17987007603
17987015598
17987022739
17987028843
17987034336
17987040928
17987048008
17987052707
17987060337
17987066379
17987073826
17987077610
17987087192
17987093723
17987098667
17987104892
17987112033
17987118808
17987125400
17987132907
17987138706
17987144809
17987149143
17987157932
17987165073
17987171604
17987178806
17987183933
17987191745
17987196933
17987204318
17987210483
17987218173
17987226230
17987233859
17987241061
17987247287
17987255466
17987261508
17987268832
17987276096
17987282260
17987289218
17987295871
17987300998
17987307590
17987314670
17987320163
17987328036
17987333957
17987342685
17987350314
17987355929
17987365756
17987373752
17987381930
17987389254
17987397433
17987404452
17987412326
17987420321
17987429354
17987439608
17987448336
17987458651
17987467257
17987477694
17987482882
17987492343
17987499667
17987506869
17987515658
17987523348
17987531405
17987537264
17987544894
17987552035
17987558016
17987566805
17987573885
17987580843
17987588778
17987592379
17987600985
17987607882
17987614657
17987623446
17987630648
17987636873
17987644625
17987653536
17987661715
17987669771
17987675875
17987686190
17987692415
17987699862
17987707552
17987715914
17987721163
17987728853
17987733004
17987741609
17987748140
17987755586
17987760835
17987767427
17987774080
17987779085
17987785738
17987792085
17987798189
17987804414
17987810640
17987817110
17987823335
17987830537
17987836946
17987843538
17987849947
17987855867
17987861970
17987867158
17987871431
17987879976
17987885286
17987892671
17987899141
17987904756
17987907930
17987916414
17987924165
17987928743
17987936189
17987942781
17987948396
17987953096
17987958650
17987963350
17987971101
17987976350
17987982454
17987987764
17987993196
17987998811
17988004670
17988011262
17988017732
17988023042
17988029206
17988034272
17988040376
17988045503
17988053315
17988059052
17988065888
17988073091
17988082795
17988090913
17988096833
17988106538
17988115876
17988120942
17988127900
17988134736
17988141022
17988145844
17988151887
17988156892
17988163605
17988169343
17988176911
17988183808
17988189606
17988194489
17988200104
17988208344
17988213166
17988219330
17988225556
17988233735
17988239655
17988245698
17988249543
17988257905
17988262238
17988271271
17988276154
17988284394
17988291535
17988296296
17988304718
17988312287
17988319001
17988324921
17988332062
17988337311
17988343231
17988348541
17988355499
17988360871
17988368744
17988376557
17988383087
17988389679
17988396759
17988402680
17988408905
17988415619
17988420502
17988429108
17988435333
17988441803
17988449188
17988455231
17988460785
17988467865
17988473297
17988480987
17988484772
17988493378
17988499969
17988506683
17988513092
17988518036
17988524994
17988531097
17988536896
17988543182
17988548858
17988555328
17988561859
17988566742
17988575714
17988582000
17988588043
17988595062
17988602203
17988608795
17988614593
17988621978
17988629913
17988633636
17988641082
17988644927
17988652679
17988659210
17988668365
17988679229
17988690337
17988698455
17988708343
17988719573
17988726409
17988732513
17988737945
17988746551
17988752105
17988759551
17988765166
17988772491
17988779876
17988786285
17988792510
17988800078
17988806060
17988812713
17988818450
17988826507
17988830291
17988839080
17988843230
17988851836
17988858794
17988865569
17988872527
17988877349
17988884856
17988890105
17988898101
17988904326
17988908477
17988919097
17988923308
17988935332
17988942412
17988948393
17988952544
17988962187
17988966643
17988976592
17988985014
17988991240
17988999724
17989005888
17989014067
17989019926
17989027007
17989033904
17989040984
17989046721
17989054106
17989059843
17989066374
17989075285
17989081694
17989090178
17989097258
17989107817
17989112456
17989121428
17989126005
17989134794
17989140165
17989150236
17989157133
17989164579
17989170988
17989177458
17989183561
17989192228
17989199614
17989206388
17989212187
17989221769
17989228117
17989237699
17989244108
17989250578
17989257231
17989265959
17989273710
17989281461
17989288297
17989294523
17989302580
17989308439
17989316801
17989322721
17989331815
17989339017
17989344938
17989354398
17989362272
17989371427
17989378690
17989385953
17989396024
17989401822
17989409696
17989415677
17989422941
17989428251
17989435331
17989438932
17989447049
17989452115
17989459623
17989465604
17989472135
17989477567
17989483976
17989491910
17989498746
17989505216
17989511563
17989518216
17989523343
17989530789
17989537931
17989543729
17989549771
17989556119
17989561551
17989567288
17989575833
17989580655
17989586392
17989592557
17989597318
17989603787
17989609525
17989615323
17989620755
17989626859
17989632535
17989637967
17989643216
17989649625
17989655850
17989663052
17989668668
17989673733
17989679043
17989686307
17989692715
17989697659
17989705533
17989712063
17989716275
17989723355
17989727383
17989733792
17989738369
17989746731
17989750332
17989758206
17989764248
17989770108
17989776638
17989782193
17989788662
17989794827
17989800747
17989805386
17989810940
17989817776
17989823269
17989828579
17989835476
17989844448
17989850002
17989856655
17989862026
17989868801
17989874233
17989883083
17989886868
17989895107
17989901821
17989907742
17989914639
17989921658
17989930813
17989939419
17989946011
17989955776
17989962917
17989970669
17989980068
17989985805
17989993191
17989999599
17990004421
17990011501
17990018032
17990023464
17990029629
17990036281
17990042507
17990047939
17990054165
17990060085
17990064968
17990072475
17990079433
17990086086
17990093471
17990100368
17990105800
17990113674
17990119716
17990126613
17990132778
17990139736
17990145961
17990153713
17990159694
17990166896
17990173854
17990180385
17990184474
17990192348
17990196193
17990204982
17990212062
17990217372
17990224086
17990230128
17990236415
17990241237
17990244838
17990254848
17990262355
17990267726
17990275416
17990282374
17990289393
17990294887
17990301906
17990308742
17990314479
17990321559
17990328395
17990335475
17990341761
17990347072
17990354640
17990360133
17990367152
17990372157
17990380397
17990386256
17990393092
17990398463
17990404261
17990411830
17990417567
17990425318
17990432826
17990439356
17990445704
17990451686
17990458705
17990464503
17990471339
17990477625
17990484522
17990490992
17990499598
17990506190
17990512721
17990518519
17990525233
17990531458
17990538172
17990543970
17990554346
17990565089
17990576258
17990587855
17990596583
17990604944
17990613367
17990619837
17990627283
17990633570
17990640711
17990648157
17990656336
17990663538
17990670984
17990678858
17990685022
17990692224
17990699121
17990706446
17990714685
17990720484
17990729395
17990735193
17990744348
17990749842
17990757654
17990765344
17990771997
17990777368
17990786218
17990791528
17990799463
17990804834
17990813623
17990821191
17990828027
17990833459
17990841882
17990847925
17990856958
17990863306
17990873804
17990880151
17990889184
17990895654
17990904626
17990911340
17990921167
17990927331
17990935754
17990944055
17990949243
17990959131
17990965722
17990973474
17990979699
17990986779
17990992639
17991000024
17991005273
17991012536
17991018396
17991024743
17991031640
17991037805
17991044946
17991051476
17991058679
17991063622
17991070764
17991076806
17991082482
17991088586
17991094750
17991101342
17991107507
17991112206
17991119958
17991125085
17991132287
17991137475
17991144677
17991149804
17991155968
17991161156
17991167931
17991172997
17991181054
17991187951
17991194054
17991197594
17991205285
17991211327
17991217492
17991223473
17991233117
17991241417
17991247155
17991253563
17991259850
17991266625
17991273400
17991280175
17991287377
17991293602
17991299157
17991303856
17991311180
17991316551
17991321800
17991326744
17991334007
17991340294
17991345909
17991351952
17991357628
17991363609
17991369774
17991375511
17991381798
17991386742
17991393334
17991399010
17991406029
17991411888
17991415611
17991425377
17991430260
17991436119
17991442284
17991448082
17991455223
17991461998
17991467613
17991474083
17991480614
17991485985
17991493370
17991498375
17991505638
17991513267
17991520469
17991525108
17991533592
17991541282
17991547813
17991554100
17991558860
17991566368
17991572654
17991580772
17991585655
17991593711
17991599449
17991606529
17991614768
17991624961
17991632102
17991637535
17991644920
17991652610
17991659690
17991667869
17991674522
17991681846
17991687888
17991693321
17991701499
17991707664
17991714133
17991720054
17991730308
17991736838
17991743613
17991750449
17991757346
17991763877
17991771201
17991777427
17991783286
17991791099
17991796897
17991804831
17991810264
17991818320
17991825156
17991831931
17991839377
17991846030
17991852927
17991859946
17991867148
17991874411
17991883261
17991890830
17991897605
17991903403
17991912558
17991920310
17991926779
17991932212
17991940756
17991946189
17991953452
17991958945
17991967856
17991974204
17991980795
17991988364
17991994894
17991998801
17992007712
17992015402
17992022177
17992028098
17992035055
17992043112
17992048178
17992055441
17992061789
17992068075
17992074545
17992081137
17992088705
17992096274
17992101828
17992109213
17992114645
17992121847
17992127340
17992136252
17992142843
17992149496
17992155966
17992162313
17992170187
17992176718
17992183187
17992188070
17992197103
17992202230
17992211080
17992216452
17992224813
17992230184
17992237387
17992244955
17992251669
17992259481
17992266866
17992272787
17992279745
17992287191
17992293356
17992301107
17992309652
17992316671
17992323507
17992330282
17992337057
17992343526
17992349081
17992360799
17992367147
17992375509
17992381673
17992390157
17992397115
17992404317
17992413045
17992421834
17992427816
17992436178
17992443807
17992451741
17992457540
17992467000
17992473958
17992482869
17992492269
17992498799
17992507588
17992516133
17992523458
17992533101
17992544148
17992553182
17992560567
17992567708
17992578206
17992588216
17992595113
17992604512
17992616292
17992622212
17992630879
17992638814
17992646443
17992652363
17992661214
17992666585
17992673726
17992680318
17992687153
17992693684
17992700520
17992707173
17992713582
17992718831
17992725789
17992730977
17992738728
17992743977
17992751423
17992757283
17992764180
17992771077
17992777241
17992783223
17992789570
17992795918
17992802388
17992810322
17992817036
17992825154
17992830891
17992837727
17992844502
17992849873
17992856526
17992862812
17992871174
17992877644
17992884113
17992890278
17992894001
17992901630
17992908772
17992915180
17992922199
17992927082
17992933369
17992940021
17992945698
17992951801
17992955952
17992963276
17992969196
17992975727
17992979145
17992986530
17992992695
17992998310
17993005268
17993010273
17993016620
17993023212
17993028949
17993035419
17993041706
17993048969
17993054340
17993061115
17993066852
17993072956
17993077838
17993084980
17993091327
17993096454
17993106037
17993110858
17993116718
17993124042
17993130878
17993137958
17993143024
17993149677
17993154987
17993162982
17993169696
17993177081
17993184711
17993192950
17993199481
17993205280
17993213641
17993220172
17993230365
17993238238
17993245135
17993250995
17993257648
17993265399
17993272418
17993279132
17993286212
17993292987
17993300311
17993306354
17993313312
17993319049
17993326007
17993332538
17993339862
17993346087
17993352008
17993360797
17993366778
17993374285
17993380328
17993388385
17993394488
17993404193
17993411700
17993418536
17993425189
17993431414
17993437457
17993443804
17993450823
17993457293
17993464434
17993471758
17993478045
17993485430
17993491106
17993498614
17993506060
17993511553
17993517779
17993524737
17993531145
17993536516
17993543169
17993548723
17993557390
17993563433
17993570879
17993576800
17993585406
17993589556
17993597796
17993604326
17993612078
17993615984
17993624529
17993630816
17993638933
17993644671
17993651201
17993658525
17993665483
17993672319
17993679460
17993686052
17993690874
17993698564
17993705706
17993712053
17993719744
17993726641
17993732500
17993740373
17993745989
17993752641
17993758440
17993765642
17993772478
17993779680
17993784013
17993792009
17993799272
17993806963
17993815569
17993822160
17993830888
17993840166
17993849199
17993857805
17993863237
17993873247
17993880754
17993886308
17993893266
17993900407
17993907548
17993914872
17993921525
17993927140
17993935197
17993940812
17993948137
17993954057
17993963334
17993970048
17993976518
17993982743
17993990617
17993996904
17994003556
17994011918
17994019303
17994026383
17994034074
17994040788
17994048112
17994055436
17994063493
17994069596
17994076554
17994083512
17994089677
17994095658
17994102860
17994108659
17994116898
17994123917
17994131608
17994140824
17994147599
17994152726
17994163773
17994171891
17994180741
17994185685
17994195939
17994203873
17994212174
17994219315
17994227311
17994233902
17994242203
17994251419
17994259537
17994268570
17994277481
17994283829
17994294144
17994300614
17994308426
17994317398
17994323197
17994332779
17994337601
17994348099
17994353043
17994363236
17994367691
17994376480
17994381241
17994390152
17994396439
17994404190
17994410110
17994416397
17994420059
17994428055
17994434158
17994440384
17994447098
17994453201
17994459061
17994465042
17994471329
17994477493
17994484207
17994490982
17994497329
17994502029
17994509170
17994516433
17994525283
17994532791
17994537918
17994548721
17994556900
17994564468
17994569717
17994578628
17994585464
17994591506
17994596755
17994602859
17994609634
17994615676
17994622085
17994628005
17994633621
17994638442
17994646926
17994652541
17994658462
17994661880
17994669997
17994676894
17994682937
17994689162
17994693801
17994701369
17994706008
17994712478
17994718459
17994724380
17994729262
17994736465
17994741469
17994748672
17994754836
17994760451
17994763808
17994771132
17994778579
17994784682
17994790725
17994796889
17994802871
17994809829
17994815932
17994821547
17994829116
17994834304
17994842788
17994848769
17994854872
17994861098
17994867324
17994874343
17994879409
17994885878
17994891005
17994899428
17994904738
17994912062
17994920607
17994926894
17994932204
17994938490
17994945815
17994955031
17994961989
17994969008
17994975905
17994982924
17994989027
17994996596
17995003065
17995009047
17995017226
17995024611
17995030897
17995038344
17995045485
17995052504
17995059523
17995066298
17995073256
17995080580
17995087111
17995093702
17995100783
17995107924
17995113722
17995120863
17995128676
17995135084
17995141188
17995149244
17995155958
17995167067
17995176832
17995183241
17995192213
17995201551
17995208082
17995214735
17995221327
17995227064
17995233778
17995241407
17995248609
17995255201
17995260145
17995268263
17995273206
17995280592
17995288038
17995295789
17995302015
17995307996
17995313428
17995321851
17995325819
17995334363
17995341993
17995348402
17995355604
17995362562
17995368482
17995375501
17995383069
17995390149
17995397230
17995403699
17995410535
17995415784
17995423658
17995431043
17995437268
17995444776
17995452588
17995458081
17995465039
17995470594
17995478955
17995485181
17995491345
17995498792
17995505811
17995509900
17995517896
17995526074
17995533521
17995539441
17995546582
17995553906
17995561658
17995568860
17995574719
17995582227
17995590100
17995595532
17995603467
17995609143
17995617322
17995623120
17995630994
17995637646
17995644055
17995652722
17995658337
17995666699
17995672497
17995679638
17995687024
17995693493
17995701977
17995710949
17995717907
17995728405
17995734936
17995743054
17995751721
17995757946
17995768627
17995773449
17995784680
17995789746
17995800732
17995808850
17995817394
17995822827
17995833203
17995841564
17995851208
17995859631
17995872143
17995880322
17995888866
17995898266
17995904858
17995913647
17995921581
17995930187
17995936535
17995944897
17995970409
17995975963
17995983776
17995989330
17995999401
17996007030
17996014049
17996020397
17996027721
17996034252
17996041515
17996050914
17996057079
17996065136
17996072032
17996077220
17996083263
17996090282
17996095714
17996103465
17996108959
17996116527
17996121715
17996127635
17996134227
17996139537
17996145336
17996154369
17996158153
17996169261
17996174876
17996180797
17996187755
17996192149
17996200572
17996205821
17996213451
17996218578
17996226329
17996231761
17996237010
17996242564
17996251048
17996255626
17996262767
17996269359
17996275035
17996280162
17996285655
17996293101
17996299815
17996306834
17996311412
17996317088
17996322337
17996330211
17996337962
17996345652
17996351695
17996359996
17996365550
17996371836
17996376841
17996384410
17996391001
17996396128
17996401133
17996406382
17996411326
17996416758
17996424510
17996430979
17996435679
17996441782
17996447642
17996450938
17996458018
17996465159
17996472849
17996480601
17996487498
17996494517
17996502207
17996508799
17996519114
17996525706
17996533579
17996539805
17996546274
17996552866
17996562144
17996567881
17996576792
17996582346
17996589670
17996595652
17996602427
17996609934
17996615122
17996623117
17996629160
17996634409
17996643381
17996650034
17996656198
17996663645
17996670725
17996678354
17996684702
17996691049
17996698068
17996704477
17996711618
17996718210
17996725290
17996732370
17996740366
17996745981
17996754221
17996761057
17996767831
17996774912
17996782053
17996789621
17996797433
17996803903
17996810434
17996816965
17996824716
17996831186
17996837656
17996844247
17996852304
17996859323
17996865915
17996871530
17996880380
17996886850
17996893258
17996901193
17996906442
17996914010
17996921273
17996927560
17996934823
17996940255
17996949044
17996956796
17996963693
17996970895
17996977120
17996983712
