18535895297
18535902132
18535907809
18535912814
18535919344
18535924532
18535930514
18535936556
18535942843
18535948763
18535956148
18535962740
18535969271
18535975924
18535981661
18535988070
18535992647
18536000033
18536008089
18536014742
18536022005
18536029512
18536035799
18536044283
18536051973
18536059420
18536066927
18536071749
18536079256
18536087679
18536096041
18536102388
18536110445
18536118074
18536124300
18536131807
18536140108
18536148287
18536154695
18536161714
18536168916
18536176485
18536182405
18536190218
18536198824
18536205537
18536212373
18536219331
18536225435
18536232393
18536240388
18536247957
18536256685
18536264802
18536272798
18536280794
18536288606
18536296113
18536304902
18536310884
18536319734
18536327485
18536336763
18536344270
18536352632
18536361299
18536368135
18536376802
18536385408
18536393525
18536404206
18536418733
18536432221
18536442292
18536455720
18536464814
18536471589
18536480073
18536486054
18536494050
18536501679
18536509980
18536518037
18536525788
18536534211
18536539521
18536547272
18536555695
18536564850
18536572053
18536578644
18536587739
18536594575
18536600556
18536606843
18536617585
18536625885
18536631867
18536640900
18536648835
18536657380
18536666779
18536675080
18536685150
18536693024
18536703095
18536708893
18536716828
18536725922
18536732758
18536744293
18536752655
18536760712
18536768341
18536776642
18536787689
18536795685
18536801971
18536813934
18536820526
18536829620
18536840668
18536847381
18536857086
18536865326
18536871857
18536881439
18536890350
18536896881
18536904754
18536913543
18536921966
18536929413
18536937408
18536944915
18536953338
18536962860
18536970245
18536976471
18536983184
18536992401
18537000701
18537010650
18537019561
18537027618
18537034881
18537043670
18537051788
18537060211
18537067779
18537078765
18537088714
18537100616
18537111907
18537120818
18537134246
18537143401
18537150725
18537158782
18537165496
18537173491
18537183257
18537190886
18537197600
18537204253
18537213164
18537223784
18537231292
18537236846
18537244719
18537250762
18537261199
18537267974
18537274443
18537282195
18537290007
18537297881
18537305876
18537312712
18537319365
18537328215
18537335784
18537343962
18537351470
18537359648
18537366545
18537372282
18537381194
18537389006
18537398466
18537405852
18537411650
18537420439
18537428007
18537438566
18537445952
18537454191
18537461943
18537470122
18537479582
18537486357
18537493986
18537500944
18537509306
18537516325
18537524382
18537532438
18537539152
18537545073
18537556059
18537559843
18537571012
18537576811
18537584684
18537590116
18537598417
18537606901
18537613981
18537620756
18537627714
18537635343
18537642912
18537649442
18537656706
18537665067
18537674101
18537682890
18537690763
18537696928
18537705900
18537713590
18537722257
18537730131
18537736356
18537745389
18537752958
18537763517
18537775724
18537788358
18537798246
18537811002
18537821073
18537831388
18537840238
18537846158
18537852811
18537860562
18537868253
18537876615
18537885038
18537894315
18537901395
18537908719
18537916043
18537924588
18537932523
18537939847
18537947843
18537954923
18537965848
18537974088
18537983304
18537991727
18537998807
18538007718
18538014859
18538023038
18538031338
18538037930
18538047879
18538056363
18538064297
18538072720
18538079739
18538089078
18538098477
18538106778
18538115567
18538124295
18538132046
18538138089
18538147793
18538155667
18538163784
18538172207
18538179531
18538186978
18538196316
18538204495
18538211331
18538219326
18538226956
18538236355
18538241970
18538249844
18538261440
18538270229
18538277981
18538284695
18538292751
18538299648
18538307888
18538314480
18538320278
18538328030
18538333401
18538340298
18538345119
18538352749
18538361355
18538367458
18538374355
18538381191
18538388088
18538394619
18538400844
18538407802
18538414516
18538424221
18538435695
18538448146
18538455898
18538463222
18538469387
18538478786
18538483730
18538491054
18538498134
18538505031
18538513576
18538518337
18538526698
18538530055
18538540553
18538546657
18538554347
18538559963
18538565395
18538571071
18538579128
18538585292
18538592982
18538601161
18538607082
18538614833
18538621120
18538627650
18538632472
18538638820
18538646510
18538652919
18538658961
18538665370
18538670497
18538677272
18538683925
18538691249
18538697780
18538707362
18538713954
18538721522
18538730250
18538738002
18538744349
18538751673
18538758876
18538766078
18538772792
18538780116
18538786219
18538796168
18538804835
18538810267
18538816126
18538826075
18538835047
18538842310
18538848841
18538857325
18538863490
18538873316
18538879237
18538889124
18538895289
18538904078
18538909937
18538917750
18538924891
18538931483
18538939234
18538946558
18538955042
18538964014
18538971705
18538978968
18538985132
18538993982
18538999537
18539010096
18539020289
18539027491
18539033350
18539043604
18539047693
18539059656
18539068018
18539075281
18539083521
18539090601
18539098841
18539106043
18539115076
18539123071
18539132288
18539142664
18539148889
18539159143
18539168665
18539177698
18539185388
18539194116
18539201257
18539209009
18539214929
18539223962
18539230127
18539239343
18539246728
18539255334
18539263086
18539270715
18539276697
18539285180
18539290613
18539299585
18539307763
18539315027
18539323999
18539330651
18539339257
18539346337
18539354882
18539362207
18539370141
18539376977
18539384912
18539391625
18539398339
18539405847
18539413781
18539421594
18539428552
18539437707
18539444177
18539451501
18539458398
18539465783
18539471764
18539481652
18539489281
18539494836
18539500695
18539510216
18539518822
18539527672
18539534753
18539542687
18539551171
18539558922
18539565331
18539574242
18539582787
18539588158
18539595910
18539603722
18539611657
18539619774
18539624474
18539631798
18539637047
18539646080
18539652001
18539657860
18539664208
18539670189
18539675499
18539683373
18539689720
18539697228
18539703514
18539709618
18539715782
18539722984
18539729759
18539735985
18539741661
18539748558
18539755272
18539762718
18539768333
18539775597
18539782249
18539788841
18539795555
18539801598
18539807884
18539815208
18539820885
18539826683
18539833885
18539839378
18539850242
18539859947
18539865074
18539874717
18539884422
18539889915
18539896141
18539901939
18539908348
18539915916
18539921287
18539928123
18539934593
18539941612
18539948021
18539953392
18539959129
18539966331
18539970848
18539977195
18539981712
18539987937
18539992454
18539999717
18540006980
18540012718
18540018333
18540023948
18540030052
18540037071
18540043174
18540049827
18540056236
18540060569
18540067527
18540073814
18540080711
18540086570
18540090903
18540098716
18540103538
18540111350
18540117759
18540123435
18540129478
18540135886
18540143210
18540149497
18540153831
18540161338
18540168723
18540175864
18540180930
18540188987
18540195578
18540202475
18540208274
18540212912
18540219321
18540224143
18540231528
18540238425
18540244468
18540251670
18540257590
18540264060
18540270407
18540277976
18540284506
18540291342
18540299094
18540303855
18540311545
18540318198
18540325461
18540331870
18540336936
18540344016
18540348715
18540355063
18540361288
18540367270
18540374655
18540381491
18540387228
18540395163
18540402304
18540407980
18540413962
18540420676
18540431235
18540442221
18540448813
18540460165
18540472677
18540482260
18540493429
18540499411
18540504965
18540509970
18540517660
18540522604
18540530905
18540538595
18540544882
18540551474
18540556967
18540563253
18540568807
18540575155
18540580648
18540586874
18540593954
18540599630
18540605367
18540611654
18540619650
18540625631
18540632223
18540639730
18540645162
18540651571
18540658590
18540664877
18540670004
18540676900
18540683797
18540690084
18540696798
18540702779
18540707967
18540715353
18540720357
18540726400
18540734090
18540740621
18540747640
18540754049
18540761129
18540769613
18540775533
18540783834
18540792989
18540799154
18540804830
18540813375
18540820455
18540825887
18540833272
18540840352
18540847921
18540853841
18540862264
18540867757
18540876058
18540881368
18540888265
18540896199
18540903279
18540909200
18540917256
18540923970
18540932820
18540940877
18540945699
18540954244
18540962483
18540968709
18540977498
18540983235
18540989156
18540997823
18541006245
18541013020
18541022969
18541029378
18541036763
18541043782
18541052144
18541059468
18541066060
18541072529
18541081013
18541089253
18541097859
18541108540
18541119343
18541128376
18541134724
18541145466
18541155354
18541161640
18541170002
18541174946
18541182636
18541190449
18541196247
18541203266
18541209553
18541215412
18541222736
18541228474
18541235066
18541240254
18541246662
18541251545
18541258015
18541265400
18541270527
18541278034
18541285480
18541291462
18541296894
18541302570
18541307758
18541315815
18541321003
18541328815
18541334980
18541340229
18541345966
18541352375
18541357319
18541363788
18541368061
18541376240
18541382343
18541388752
18541395527
18541400531
18541407184
18541411701
18541418110
18541424884
18541430744
18541437458
18541443805
18541448871
18541456256
18541460956
18541467670
18541471942
18541478717
18541484638
18541491413
18541496173
18541502155
18541511127
18541521076
18541528827
18541533832
18541539996
18541545306
18541553058
18541560992
18541568622
18541574298
18541581439
18541587848
18541594806
18541600970
18541607806
18541614703
18541620502
18541626056
18541631854
18541636615
18541644366
18541650653
18541655902
18541662066
18541668170
18541672564
18541682635
18541693927
18541702777
18541713885
18541720843
18541730914
18541736285
18541742572
18541749591
18541754412
18541761676
18541768511
18541775408
18541780963
18541787127
18541793353
18541799517
18541807025
18541812823
18541820086
18541827410
18541833941
18541840411
18541845049
18541851275
18541857500
18541863848
18541870989
18541878008
18541884661
18541891375
18541894488
18541903033
18541906390
18541913714
18541920306
18541928484
18541935320
18541941485
18541948443
18541954546
18541961382
18541968767
18541973223
18541979937
18541986040
18541992205
18541997637
18542004046
18542008318
18542015459
18542021807
18542028093
18542034075
18542040483
18542046343
18542052568
18542058611
18542064104
18542072222
18542077776
18542085893
18542092180
18542098223
18542104631
18542110674
18542117510
18542124529
18542129289
18542136186
18542143327
18542149980
18542156084
18542160844
18542169695
18542177019
18542183794
18542190874
18542197710
18542203630
18542210527
18542217363
18542223161
18542228410
18542235673
18542241411
18542247148
18542252885
18542259843
18542265825
18542271501
18542277910
18542293107
18542301713
18542309343
18542319658
18542329606
18542337480
18542344804
18542350968
18542357865
18542364762
18542372514
18542379228
18542383988
18542391191
18542395890
18542403398
18542410905
18542417252
18542422868
18542428971
18542433732
18542440995
18542447038
18542453507
18542461076
18542468217
18542474198
18542480729
18542486588
18542495133
18542499955
18542507950
18542514298
18542522660
18542527909
18542536149
18542543839
18542548905
18542557633
18542563553
18542572342
18542578385
18542585343
18542591813
18542601151
18542607315
18542615494
18542622269
18542630265
18542636856
18542644425
18542650162
18542658463
18542665543
18542673661
18542679459
18542687393
18542693619
18542701981
18542707962
18542717911
18542724320
18542732620
18542741531
18542750015
18542757034
18542764236
18542769913
18542777908
18542783890
18542791092
18542799881
18542807449
18542813248
18542820755
18542826187
18542831680
18542839432
18542844681
18542851394
18542858108
18542865616
18542872452
18542879165
18542885391
18542890640
18542898208
18542905410
18542911148
18542915847
18542922378
18542928665
18542934341
18542940078
18542948135
18542953933
18542962051
18542972122
18542980850
18542989334
18542996353
18543005142
18543012283
18543018203
18543024490
18543031020
18543037002
18543044265
18543050613
18543055312
18543061416
18543066970
18543073074
18543078200
18543083755
18543090469
18543095595
18543100844
18543107497
18543113418
18543119033
18543124404
18543130874
18543136062
18543142165
18543148025
18543154250
18543161025
18543168044
18543173293
18543179458
18543186904
18543191848
18543197829
18543202407
18543208449
18543214186
18543221083
18543226210
18543231887
18543237258
18543241835
18543249098
18543255080
18543260878
18543267897
18543274062
18543278090
18543284499
18543291518
18543297926
18543305007
18543312697
18543318007
18543323439
18543329115
18543334731
18543342360
18543348586
18543354506
18543359938
18543366408
18543373305
18543378920
18543386732
18543393629
18543401076
18543407606
18543414381
18543419935
18543428724
18543434706
18543440199
18543446608
18543452101
18543458998
18543465345
18543471327
18543479261
18543485670
18543493361
18543498854
18543506544
18543513502
18543519728
18543527601
18543537001
18543542738
18543553724
18543566603
18543573988
18543585218
18543590345
18543597975
18543603040
18543611402
18543617811
18543623548
18543630079
18543637647
18543642957
18543649793
18543656934
18543664075
18543672071
18543678297
18543684583
18543690565
18543697462
18543704725
18543710584
18543716871
18543722303
18543728223
18543733594
18543740430
18543745923
18543752149
18543759290
18543764356
18543771680
18543778699
18543783643
18543790113
18543797315
18543804212
18543810926
18543818067
18543823987
18543830884
18543836377
18543844007
18543851148
18543859082
18543865308
18543870984
18543878980
18543885816
18543894116
18543900952
18543907178
18543913098
18543920361
18543927869
18543933789
18543940747
18543946484
18543954114
18543959485
18543968457
18543975293
18543981946
18543988782
18543995923
18544002881
18544008679
18544015088
18544022229
18544028515
18544035718
18544041333
18544048901
18544057019
18544063977
18544070874
18544077466
18544084668
18544090039
18544097912
18544103588
18544114636
18544122326
18544130566
18544138134
18544145458
18544151257
18544160778
18544169079
18544175732
18544184582
18544192639
18544199108
18544208935
18544218029
18544226086
18544233471
18544240917
18544249218
18544255993
18544262707
18544270275
18544275890
18544283276
18544290295
18544297863
18544303539
18544310680
18544317638
18544324047
18544329967
18544336925
18544345653
18544351574
18544359935
18544365734
18544372326
18544380870
18544389232
18544395153
18544403576
18544411510
18544417614
18544427074
18544433727
18544442455
18544449413
18544457530
18544466991
18544474071
18544480358
18544487071
18544493297
18544499828
18544506358
18544512767
18544519664
18544526378
18544534312
18544540172
18544546275
18544550853
18544559093
18544565074
18544572520
18544578624
18544584178
18544590892
18544596324
18544602916
18544610240
18544616893
18544623057
18544629161
18544635264
18544642467
18544647166
18544655223
18544659861
18544669078
18544672435
18544682200
18544687144
18544694468
18544700145
18544706919
18544713755
18544719676
18544725840
18544731578
18544738597
18544744700
18544750621
18544755870
18544762644
18544769297
18544775889
18544780650
18544786936
18544791819
18544798472
18544804636
18544810435
18544816294
18544824656
18544832407
18544841257
18544853892
18544860972
18544871043
18544877329
18544882883
18544888377
18544894114
18544899973
18544905466
18544912119
18544917490
18544924082
18544931772
18544940439
18544947031
18544953989
18544960398
18544965464
18544973398
18544980112
18544985971
18544993540
18544998056
18545005320
18545009409
18545017893
18545026133
18545032297
18545037546
18545045175
18545050791
18545056894
18545063974
18545071604
18545078195
18545084970
18545092783
18545098093
18545105966
18545115061
18545121713
18545128488
18545135751
18545141672
18545149850
18545154855
18545165475
18545171518
18545178415
18545186594
18545191354
18545198678
18545206735
18545213998
18545219125
18545227487
18545232614
18545241037
18545249826
18545256051
18545262887
18545268564
18545276498
18545281625
18545289193
18545297799
18545303598
18545311471
18545318490
18545323983
18545331735
18545335397
18545345773
18545352120
18545359323
18545365243
18545372811
18545380563
18545387704
18545397653
18545404733
18545413827
18545419747
18545428841
18545437753
18545445870
18545451424
18545458504
18545465523
18545470467
18545477608
18545485543
18545490548
18545498727
18545505318
18545511788
18545517525
18545525399
18545532418
18545538888
18545545601
18545552865
18545558602
18545565499
18545571358
18545578499
18545585396
18545592781
18545599068
18545605660
18545613900
18545621895
18545629952
18545635872
18545643990
18545653084
18545660286
18545668892
18545677681
18545685433
18545692574
18545699776
18545707466
18545716499
18545720833
18545732674
18545738045
18545746529
18545755196
18545762703
18545770088
18545779243
18545787361
18545797188
18545804695
18545810737
18545818550
18545824592
18545833992
18545840645
18545848823
18545856025
18545861946
18545871040
18545877998
18545887275
18545890937
18545900276
18545906379
18545914619
18545923652
18545931465
18545938911
18545947273
18545952949
18545961555
18545969734
18545975715
18545985908
18545993415
18546001106
18546007636
18546016242
18546024055
18546034248
18546041084
18546049750
18546056525
18546066291
18546076179
18546083686
18546093268
18546098701
18546105903
18546113654
18546118476
18546127204
18546130317
18546138984
18546146735
18546154731
18546161567
18546168525
18546175666
18546182685
18546189277
18546195197
18546202094
18546209235
18546215827
18546222663
18546229926
18546234564
18546242926
18546250739
18546256781
18546262946
18546269843
18546275641
18546280036
18546288825
18546294928
18546302802
18546308722
18546314764
18546320136
18546327521
18546334235
18546340155
18546346014
18546352545
18546359564
18546366278
18546372992
18546379828
18546386114
18546393622
18546401007
18546407721
18546412970
18546419012
18546425360
18546431341
18546437628
18546445624
18546452948
18546459234
18546466009
18546472662
18546478094
18546484747
18546489996
18546497076
18546502935
18546509039
18546516241
18546520452
18546527655
18546534796
18546541143
18546547552
18546553045
18546558721
18546565191
18546571966
18546579534
18546587225
18546596624
18546604253
18546609258
18546618230
18546626409
18546633916
18546640508
18546646307
18546653020
18546660100
18546666143
18546674566
18546683782
18546691228
18546700811
18546708013
18546716070
18546724798
18546732305
18546738958
18546745427
18546750737
18546758611
18546764837
18546772283
18546778020
18546785649
18546792180
18546798772
18546804998
18546811650
18546816228
18546825139
18546831670
18546838567
18546843389
18546851384
18546858037
18546867436
18546884160
18546895512
18546905217
18546915166
18546923955
18546930180
18546936833
18546944707
18546951421
18546957829
18546963994
18546970280
18546976445
18546982732
18546991460
18546997502
18547005070
18547010808
18547016728
18547023686
18547029179
18547034001
18547043522
18547049321
18547056096
18547066105
18547073430
18547078251
18547085148
18547093449
18547099003
18547106572
18547112126
18547119755
18547125065
18547132145
18547139042
18547144718
18547151371
18547158451
18547165531
18547171696
18547177799
18547185246
18547192082
18547199589
18547205021
18547213017
18547221806
18547229313
18547238041
18547245365
18547256901
18547262699
18547271305
18547277286
18547284305
18547292240
18547297611
18547304447
18547311222
18547317020
18547321964
18547330204
18547335270
18547343631
18547348392
18547356144
18547362674
18547369266
18547377445
18547384220
18547391483
18547399478
18547404544
18547412662
18547419498
18547427433
18547434146
18547439762
18547448734
18547456058
18547462345
18547468936
18547474918
18547482486
18547489566
18547495609
18547503909
18547509769
18547517459
18547523624
18547533206
18547539554
18547547610
18547553348
18547564334
18547570438
18547579532
18547585513
18547593997
18547599734
18547607974
18547613955
18547622134
18547630069
18547637759
18547643863
18547650699
18547658145
18547664798
18547673281
18547680972
18547687320
18547695864
18547702151
18547710025
18547715640
18547721926
18547730227
18547737429
18547743960
18547749880
18547755129
18547760806
18547765383
18547773379
18547778506
18547785403
18547790652
18547797244
18547802065
18547808718
18547814761
18547821963
18547828188
18547834048
18547840029
18547844607
18547852358
18547857668
18547863894
18547872683
18547880984
18547887148
18547894778
18547904970
18547911318
18547918886
18547928896
18547936648
18547942507
18547948610
18547953127
18547962038
18547965090
18547974184
18547979433
18547985781
18547991152
18547997988
18548004213
18548010012
18548017519
18548023561
18548028688
18548034365
18548039858
18548047060
18548051576
18548058840
18548064638
18548071535
18548077272
18548082155
18548088014
18548094545
18548101869
18548107484
18548115175
18548121278
18548129213
18548134767
18548143373
18548148988
18548156801
18548163515
18548169618
18548175661
18548182374
18548189699
18548197023
18548201723
18548209291
18548215516
18548222169
18548229738
18548234498
18548242494
18548249635
18548254945
18548262208
18548269044
18548275575
18548282228
18548289552
18548297181
18548304628
18548311402
18548319886
18548325563
18548333131
18548340150
18548347962
18548355592
18548362672
18548370179
18548377015
18548386292
18548392335
18548400330
18548406556
18548413758
18548421021
18548429200
18548437379
18548444703
18548449586
18548461121
18548468934
18548479249
18548488160
18548494324
18548502930
18548508484
18548516358
18548523743
18548531373
18548536438
18548543274
18548550721
18548556092
18548564026
18548569092
18548578308
18548585083
18548591797
18548597412
18548604370
18548609436
18548616455
18548624268
18548629395
18548638306
18548645020
18548650330
18548656799
18548663452
18548671448
18548677673
18548683899
18548691956
18548697998
18548702576
18548711243
18548716919
18548724243
18548732239
18548736938
18548745911
18548752319
18548759155
18548764709
18548773132
18548780517
18548788086
18548795227
18548801880
18548810547
18548817749
18548823974
18548831421
18548840576
18548846435
18548853515
18548862182
18548869140
18548876587
18548884033
18548891235
18548899292
18548907470
18548915161
18548920715
18548930480
18548939636
18548946533
18548953369
18548961730
18548968383
18548974548
18548981445
18548988403
18548996459
18549004699
18549013366
18549019836
18549030212
18549037475
18549043212
18549054687
18549061156
18549072753
18549082641
18549089416
18549100951
18549107421
18549117003
18549124999
18549136962
18549145263
18549152831
18549159667
18549165160
18549174742
18549181456
18549190123
18549197570
18549203734
18549210997
18549219115
18549227538
18549235106
18549242735
18549250670
18549257689
18549265318
18549272521
18549278929
18549288390
18549295531
18549302977
18549310728
18549317503
18549323851
18549331725
18549337950
18549349242
18549358275
18549363890
18549371886
18549379576
18549387388
18549392088
18549399229
18549407347
18549413389
18549424803
18549432493
18549440550
18549450621
18549458921
18549468199
18549475096
18549481321
18549490049
18549496946
18549506224
18549514158
18549520079
18549525755
18549531248
18549536985
18549543394
18549549864
18549556638
18549562681
18549569090
18549575498
18549581114
18549586973
18549592222
18549599668
18549606382
18549613157
18549618711
18549623838
18549628110
18549635862
18549640989
18549649045
18549653928
18549660398
18549664731
18549670713
18549677549
18549682004
18549690610
18549696897
18549701841
18549708249
18549713559
18549720334
18549727475
18549734800
18549739988
18549748105
18549752927
18549760495
18549767087
18549773435
18549782224
18549788938
18549794126
18549800595
18549806028
18549811460
18549818540
18549826840
18549832822
18549839353
18549843808
18549851071
18549855344
18549862668
18549868710
18549876035
18549881772
18549886777
18549892270
18549898923
18549906064
18549913571
18549920163
18549925656
18549934506
18549940243
18549947934
18549954770
18549959897
18549967343
18549975033
18549981381
18549987424
18549993588
18549999692
18550006161
18550010983
18550019955
18550025082
18550032589
18550037228
18550046078
18550053158
18550060360
18550067807
18550076046
18550082089
18550089047
18550095944
18550102841
18550109127
18550119076
18550125973
18550131649
18550138851
18550145321
18550152462
18550158444
18550165157
18550174984
18550179989
18550187496
18550194576
18550202389
18550209164
18550215450
18550222774
18550229549
18550234249
18550241146
18550248165
18550253048
18550259640
18550267391
18550274288
18550280453
18550286983
18550293331
18550299373
18550305965
18550313045
18550319759
18550326900
18550334285
18550340328
18550348079
18550354000
18550360958
18550369930
18550378109
18550383541
18550392757
18550398738
18550406612
18550412105
18550419612
18550426265
18550432369
18550438289
18550446224
18550452449
18550458064
18550464229
18550471065
18550477413
18550484309
18550491084
18550498042
18550505733
18550511165
18550518855
18550524348
18550532649
18550538570
18550544795
18550551265
18550558345
18550565364
18550572566
18550579524
18550586726
18550593318
18550600459
18550607539
18550614619
18550621333
18550629878
18550637812
18550646418
18550652217
18550660762
18550668147
18550675715
18550683039
18550688777
18550697871
18550702998
18550708857
18550716914
18550724360
18550732417
18550739741
18550748103
18550756526
18550762385
18550771967
18550778071
18550785334
18550793818
18550801264
18550807429
18550816035
18550821772
18550828547
18550836787
18550842707
18550851557
18550856989
18550865107
18550872004
18550878718
18550885859
18550894587
18550900019
18550908930
18550916315
18550923517
18550930719
18550939814
18550946222
18550952814
18550960993
18550967340
18550972589
18550981806
18550989679
18550995905
18551002924
18551009760
18551015314
18551023004
18551032343
18551038873
18551046442
18551053888
18551061640
18551071100
18551077142
18551084528
18551092218
18551098749
18551106378
18551112726
18551118280
18551124445
18551131341
18551138238
18551146112
18551152521
18551159845
18551165216
18551171564
18551180353
18551187250
18551192254
18551199212
18551205194
18551212091
18551218316
18551223382
18551231683
18551236383
18551244073
18551249017
18551254632
18551260369
18551266900
18551273126
18551279046
18551285394
18551288201
18551296563
18551301934
18551307672
18551314813
18551321649
18551326776
18551333123
18551338128
18551344415
18551350152
18551356622
18551361993
18551368524
18551374993
18551380669
18551386956
18551393731
18551399407
18551406243
18551412713
18551418999
18551423516
18551430718
18551436822
18551443841
18551451531
18551457207
18551462823
18551468072
18551475457
18551481865
18551488762
18551494561
18551499199
18551506768
18551511101
18551518853
18551526482
18551533623
18551540947
18551545891
18551553704
18551558648
18551567864
18551573845
18551583550
18551591912
18551598625
18551607353
18551615776
18551622734
18551631401
18551638725
18551645806
18551652031
18551659233
18551665154
18551671867
18551677849
18551684990
18551692192
18551697990
18551704887
18551710869
18551716362
18551725151
18551731560
18551737785
18551743889
18551749870
18551757133
18551763420
18551771293
18551777275
18551784782
18551790581
18551798210
18551804008
18551810051
18551817192
18551826652
18551831657
18551839775
18551845268
18551852531
18551858512
18551865532
18551872306
18551879203
18551885795
18551891838
18551899589
18551904167
18551911552
18551916435
18551926383
18551931449
18551939872
18551944328
18551953178
18551960319
18551965324
18551976127
18551981071
18551987785
18551994621
18552000724
18552007926
18552015128
18552020866
18552026908
18552032706
18552040397
18552045890
18552052177
18552059379
18552067252
18552074576
18552080192
18552087577
18552093192
18552100394
18552106864
18552113517
18552123099
18552129691
18552137442
18552143363
18552149649
18552156058
18552164176
18552170096
18552179801
18552187369
18552194083
18552200370
18552207816
18552217276
18552227713
18552233817
18552246451
18552255728
18552259696
18552271780
18552278922
18552286673
18552291922
18552299673
18552305350
18552312369
18552319571
18552324942
18552335013
18552341177
18552347586
18552354422
18552361197
18552367972
18552375967
18552382132
18552389944
18552397268
18552404226
18552410269
18552415396
18552423391
18552429068
18552439810
18552446951
18552454153
18552460928
18552469717
18552474417
18552483328
18552492727
18552499014
18552507009
18552514211
18552519583
18552527883
18552535208
18552543325
18552551992
18552558157
18552565908
18552571584
18552580495
18552584280
18552593984
18552600210
18552607107
18552615163
18552620657
18552626516
18552631948
18552638479
18552645803
18552651906
18552658620
18552665456
18552671865
18552678762
18552684865
18552693227
18552700612
18552706960
18552712392
18552721242
18552727773
18552735646
18552742971
18552749746
18552757009
18552761525
18552769216
18552775441
18552782399
18552787831
18552794484
18552799489
18552805409
18552810720
18552817861
18552824025
18552831899
18552846974
18552856801
18552865102
18552872121
18552876637
18552884267
18552890187
18552895863
18552903004
18552908131
18552916249
18552921193
18552927724
18552932240
18552938649
18552944691
18552950795
18552958363
18552964284
18552970631
18552975026
18552981251
18552987050
18552993702
18552998951
18553005970
18553011281
18553016652
18553022755
18553030323
18553036488
18553042653
18553048695
18553053639
18553059681
18553066700
18553073109
18553078053
18553085316
18553090626
18553097523
18553103138
18553109425
18553117176
18553122608
18553130848
18553138050
18553143910
18553149647
18553157276
18553162953
18553168324
18553175343
18553182728
18553187916
18553195423
18553202381
18553208424
18553214039
18553218922
18553226795
18553234669
18553241321
18553247913
18553254566
18553261646
18553268055
18553274524
18553280506
18553285816
18553293140
18553299061
18553304859
18553312488
18553318653
18553325489
18553332752
18553338977
18553345935
18553351184
18553358875
18553366199
18553373584
18553379444
18553385730
18553391712
18553396900
18553404468
18553411609
18553420215
18553428516
18553436084
18553447009
18553454334
18553460864
18553470264
18553476550
18553483997
18553490710
18553496753
18553502917
18553508960
18553515552
18553520312
18553530078
18553535449
18553542590
18553547351
18553554675
18553559558
18553566760
18553573230
18553580737
18553587695
18553593921
18553600146
18553606799
18553613513
18553618579
18553627917
18553633899
18553639941
18553645434
18553653186
18553658984
18553666796
18553674304
18553681750
18553688464
18553695605
18553702807
18553709948
18553716540
18553723132
18553730578
18553742114
18553748278
18553754015
18553761889
18553767138
18553774950
18553778796
18553789477
18553797289
18553803576
18553810656
18553819079
18553824877
18553835497
18553842638
18553850329
18553859545
18553867724
18553875414
18553884997
18553891832
18553902453
18553911608
18553918627
18553926439
18553935717
18553942858
18553951342
18553957872
18553970934
18553978258
18553983934
18553994676
18554001329
18554010057
18554017504
18554025743
18554032396
18554039659
18554044847
18554053636
18554059557
18554067491
18554075853
18554087389
18554095323
18554103197
18554112291
18554119127
18554128099
18554138963
18554147508
18554154405
18554162034
18554170396
18554177904
18554183397
18554191026
18554197862
18554205247
18554210679
18554217820
18554223130
18554230088
18554238633
18554243943
18554251512
18554259141
18554265306
18554270249
18554277146
18554284165
18554291490
18554295579
18554302476
18554309068
18554314134
18554319383
18554325974
18554334641
18554339402
18554345567
18554351548
18554358750
18554363572
18554371384
18554378648
18554386094
18554391343
18554397996
18554403672
18554410569
18554416733
18554422532
18554429612
18554435227
18554440659
18554447190
18554452744
18554458665
18554463852
18554469407
18554477646
18554481980
18554487839
18554494675
18554499497
18554506699
18554513291
18554518601
18554525132
18554531052
18554536301
18554542710
18554547898
18554553696
18554560654
18554565049
18554571884
18554576645
18554582993
18554587448
18554594284
18554600754
18554607041
18554611862
18554618271
18554625168
18554631149
18554636398
18554642807
18554650009
18554655930
18554661972
18554667099
18554674789
18554681808
18554689560
18554697128
18554706833
18554712753
18554718918
18554726181
18554732651
18554740463
18554747177
18554752914
18554759445
18554764999
18554771286
18554779464
18554782821
18554792892
18554799972
18554805954
18554812240
18554819626
18554826645
18554833236
18554840194
18554845260
18554853561
18554859970
18554865463
18554872604
18554877914
18554887924
18554893112
18554900375
18554905929
18554915206
18554921066
18554928207
18554935531
18554940597
18554948226
18554952926
18554961532
18554968734
18554974227
18554982833
18554987960
18554995223
18554999923
18555008102
18555011092
18555019027
18555026168
18555033370
18555040450
18555046432
18555052413
18555059920
18555065902
18555072555
18555078597
18555085982
18555091781
18555097274
18555105758
18555111251
18555117293
18555125106
18555132369
18555138533
18555145308
18555151839
18555158004
18555165084
18555172042
18555191756
18555198592
18555203536
18555211287
18555218306
18555225447
18555230208
18555238265
18555244612
18555249434
18555257369
18555263655
18555273116
18555282210
18555289534
18555299178
18555307112
18555316145
18555325300
18555334395
18555344465
18555350935
18555357771
18555365828
18555371992
18555379255
18555386213
18555392500
18555398848
18555405806
18555412458
18555419844
18555428267
18555434797
18555441023
18555448164
18555454390
18555461225
18555467573
18555475202
18555482038
18555488020
18555496015
18555501936
18555508161
18555516096
18555523420
18555533003
18555540937
18555548750
18555557295
18555563947
18555571638
18555578535
18555586408
18555594282
18555600080
18555608686
18555617902
18555626081
18555633649
18555639753
18555649274
18555656537
18555664228
18555671003
18555679914
18555687238
18555694379
18555704023
18555712934
18555720868
18555728559
18555736127
18555742597
18555752484
18555761518
18555771649
18555777936
18555786054
18555795209
18555801129
18555809613
18555816754
18555823895
18555834332
18555842023
18555847211
18555855450
18555862592
18555870526
18555875897
18555884503
18555890729
18555895978
18555903607
18555909466
18555916974
18555926068
18555932294
18555938336
18555946026
18555953534
18555960797
18555968609
18555975567
18555986676
18555994977
18556002362
18556008587
18556013104
18556020977
18556027081
18556033490
18556038861
18556045575
18556053692
18556059552
18556064251
18556071697
18556077191
18556083843
18556089947
18556096905
18556104229
18556109783
18556114910
18556121258
18556126263
18556131878
18556139935
18556145916
18556151775
18556157146
18556163128
18556168072
18556173992
18556180401
18556188091
18556194805
18556200054
18556205303
18556211468
18556218853
18556224773
18556230266
18556237774
18556243206
18556248760
18556255596
18556261516
18556267986
18556274029
18556279888
18556286480
18556291485
18556298259
18556304851
18556311443
18556317730
18556323589
18556329204
18556335369
18556340801
18556347698
18556354839
18556360881
18556367656
18556375469
18556381633
18556388469
18556394634
18556403667
18556410381
18556416606
18556422588
18556429118
18556435222
18556440410
18556449321
18556455730
18556462566
18556468303
18556477519
18556485576
18556492412
18556500102
18556506877
18556514262
18556522990
18556533610
18556541179
18556549113
18556560710
18556568095
18556575786
18556583903
18556593364
18556596843
18556607158
18556612590
18556620158
18556629435
18556637309
18556644511
18556650981
18556658610
18556664653
18556671916
18556679484
18556685710
18556692973
18556699137
18556705607
18556713175
18556720133
18556727946
18556735209
18556742106
18556747599
18556756693
18556763285
18556769144
18556777445
18556785075
18556791483
18556797404
18556805399
18556810465
18556817423
18556823282
18556830546
18556836466
18556844156
18556850626
18556856791
18556862650
18556870035
18556877909
18556884073
18556890299
18556896341
18556904154
18556911417
18556919535
18556926615
18556932840
18556939615
18556945780
18556953775
18556960489
18556966837
18556974100
18556981912
18556988931
18556995767
18557001810
18557007913
18557017435
18557023966
18557032999
18557040079
18557046549
18557054422
18557063516
18557069559
18557078043
18557084329
18557091592
18557096902
18557105325
18557112649
18557118448
18557129312
18557139383
18557147684
18557155191
18557164346
18557173074
18557183572
18557190408
18557199136
18557207071
18557215066
18557221841
18557228677
18557237222
18557244668
18557250589
18557259317
18557265176
18557272866
18557278787
18557287210
18557293191
18557302590
18557308450
18557318337
18557324136
18557331826
18557340188
18557345437
18557354409
18557362038
18557370766
18557377480
18557385171
18557392129
18557397317
18557404580
18557409707
18557417336
18557421731
18557430031
18557437417
18557443581
18557449502
18557455300
18557462868
18557470253
18557476296
18557484231
18557490029
18557496071
18557502053
18557508217
18557515297
18557520058
18557529396
18557534890
18557542946
18557550331
18557556618
18557563271
18557569618
18557575966
18557583657
18557588906
18557596169
18557602516
18557608132
18557615700
18557621559
18557628151
18557635475
18557641518
18557647865
18557654091
18557658302
18557665565
18557672218
18557678871
18557683998
18557690834
18557696999
18557703712
18557708351
18557715004
18557722084
18557728065
18557732338
18557738746
18557745277
18557751686
18557757240
18557762123
18557770668
18557775856
18557783546
18557789100
18557799476
18557806862
18557811805
18557819496
18557825965
18557834510
18557841041
18557845741
18557852577
18557859718
18557865638
18557872413
18557878333
18557884559
18557890724
18557896339
18557903480
18557909400
18557917945
18557922523
18557930518
18557935645
18557941566
18557948768
18557953529
18557961402
18557966407
18557973609
18557979102
18557985206
18557993446
18557999549
18558006141
18558013892
18558019752
18558026893
18558032813
18558040076
18558045875
18558053016
18558058021
18558065345
18558072425
18558078895
18558085608
18558092200
18558098059
18558104590
18558113745
18558118811
18558126136
18558131202
18558139930
18558145362
18558151709
18558158362
18558166663
18558172583
18558179175
18558186072
18558192603
18558199500
18558206091
18558213965
18558221106
18558227210
18558234778
18558241248
18558248877
18558254858
18558262488
18558267981
18558275610
18558283057
18558289893
18558295019
18558302344
18558309546
18558318640
18558325720
18558333594
18558340002
18558345373
18558353125
18558359839
18558367529
18558374548
18558381750
18558388952
18558395910
18558403784
18558408850
18558416052
18558423132
18558432653
18558439672
18558448339
18558456152
18558463476
18558470495
18558480383
18558487402
18558493933
18558500097
18558506567
18558513220
18558520239
18558529394
18558535436
18558543859
18558549780
18558557470
18558564184
18558569799
18558575719
18558583166
18558592138
18558599645
18558607763
18558613927
18558621862
18558628942
18558636327
18558641576
18558648717
18558655492
18558662633
18558670018
18558675512
18558683629
18558690831
18558699254
18558706517
18558713231
18558718602
18558726598
18558732030
18558739965
18558745336
18558754430
18558762059
18558772985
18558782628
18558793553
18558804051
18558813573
18558822850
18558834142
18558843236
18558855321
18558865392
18558876805
18558886998
18558896275
18558905858
18558915196
18558924840
18558934910
18558944981
18558957860
18558966527
18558975499
18558986302
18558996067
18559006565
18559016636
18559026768
18559037754
18559047032
18559055455
18559059422
18559072239
18559080357
18559086949
18559098728
18559103001
18559115391
18559123325
18559132725
18559139439
18559149265
18559159885
18559166843
18559181553
18559191807
18559204380
18559216282
18559224521
18559236667
18559246311
18559256748
18559266819
18559275119
18559285923
18559294284
18559304416
18559314426
18559322300
18559330966
18559339206
18559348911
18559357456
18559365451
18559375522
18559382236
18559392490
18559401279
18559410617
18559421970
18559430820
18559438754
18559448276
18559458102
18559464450
18559474887
18559482883
18559492343
18559500461
18559509860
18559516574
18559526034
18559535190
18559541842
18559551852
18559561496
18559569491
18559575900
18559586825
18559594210
18559602450
18559612155
18559619601
18559628634
18559638156
18559646151
18559657626
18559665743
18559676547
18559686129
18559693698
18559702059
18559712985
18559721896
18559733981
18559743258
18559754244
18559768587
18559777499
18559790621
18559799959
18559808504
18559819491
18559830538
18559838778
18559850374
18559860506
18559870272
18559883150
18559891146
18559903048
18559914217
18559924227
18559933809
18559943148
18559953890
18559960543
18559973909
18559984773
18559995088
18560001924
18560014558
18560022615
18560031892
18560043184
18560054658
18560067293
18560078645
18560089143
18560099336
18560109407
18560121309
18560130586
18560142488
18560151277
18560163606
18560176240
18560185945
18560196565
18560206392
18560216523
18560225679
18560235932
18560248445
18560256562
18560268159
18560280549
18560291291
18560302155
18560312165
18560323701
18560333711
18560345795
18560356782
18560367524
18560377961
18560388215
18560398530
18560406220
18560421418
18560429780
18560440033
18560446930
18560455597
18560463288
18560470185
18560477265
18560484650
18560491852
18560497345
18560504670
18560512360
18560519379
18560525177
18560530854
18560539704
18560547760
18560554718
18560558686
18560568268
18560574677
18560581757
18560590485
18560596893
18560603851
18560612152
18560618256
18560626862
18560636078
18560642548
18560651825
18560660004
18560667389
18560674225
18560681915
18560688446
18560696869
18560707794
18560714569
18560721344
18560730804
18560738006
18560745208
18560753570
18560762909
18560768768
18560779449
18560789703
18560796295
18560803253
18560810333
18560816742
18560823822
18560831329
18560835601
18560844085
18560851409
18560858856
18560866302
18560872955
18560884368
18560891082
18560897674
18560904632
18560911224
18560918731
18560923797
18560931854
18560939422
18560944915
18560951751
18560957183
18560963958
18560969329
18560977569
18560984099
18560990813
18560996062
18561003997
18561009002
18561016692
18561022796
18561029693
18561034697
18561041961
18561047271
18561054046
18561059234
18561065703
18561071257
18561077178
18561083037
18561090178
18561096343
18561101287
18561108428
18561113372
18561119780
18561124846
18561131560
18561137297
18561143828
18561149199
18561154875
18561161284
18561167632
18561173735
18561178862
18561185149
18561190581
18561197051
18561202055
18561208891
18561214568
18561222197
18561228362
18561234038
18561240630
18561248076
18561254362
18561260222
18561267363
18561273894
18561279204
18561285734
18561292876
18561299834
18561305693
18561312407
18561316984
18561325346
18561331328
18561337004
18561341704
18561352202
18561357451
18561364958
18561372648
18561379362
18561384306
18561391508
18561399443
18561404386
18561411833
18561418302
18561425871
18561430754
18561441618
18561449369
18561457182
18561465360
18561470609
18561478300
18561486051
18561493620
18561502958
18561511686
18561514860
18561526212
18561532194
18561539701
18561546049
18561553312
18561560392
18561566801
18561573881
18561578947
18561587247
18561592130
18561599149
18561605924
18561614103
18561619657
18561627347
18561630704
18561640104
18561643339
18561653714
18561659574
18561667691
18561674649
18561680570
18561687589
18561693204
18561699552
18561706815
18561716703
18561722196
18561729764
18561736722
18561744412
18561749417
18561756436
18561764920
18561771512
18561777005
18561785001
18561790311
18561798062
18561804715
18561811795
18561819180
18561825406
18561832364
18561839749
18561845670
18561852811
18561859891
18561866666
18561873440
18561880826
18561887051
18561892056
18561900662
18561906643
18561912991
18561919644
18561927884
18561935086
18561941372
18561950284
18561955227
18561961575
18561969449
18561978177
18561983670
18561989651
18561997464
18562004849
18562012783
18562018460
18562028713
18562034207
18562042141
18562049771
18562056912
18562063259
18562070339
18562078152
18562083462
18562092251
18562099453
18562106289
18562114712
18562122524
18562127956
18562136501
18562142544
18562155849
18562164089
18562170071
18562179897
18562185390
18562193081
18562198513
18562208889
18562214809
18562223232
18562229397
18562236110
18562243252
18562250148
18562257045
18562266079
18562273464
18562280178
18562286892
18562295986
18562303554
18562309536
18562316494
18562324428
18562329311
18562337917
18562345241
18562351589
18562358608
18562367702
18562375209
18562383754
18562390651
18562399684
18562407375
18562414150
18562423061
18562432033
18562440761
18562446620
18562454066
18562462611
18562468654
18562477321
18562485622
18562493007
18562502284
18562507899
18562516871
18562521815
18562528773
18562535609
18562543971
18562549891
18562558253
18562564357
18562571864
18562578028
18562585658
18562593226
18562599757
18562607203
18562612452
18562620814
18562627833
18562634303
18562641261
18562647547
18562654688
18562660609
18562666651
18562672572
18562678065
18562685511
18562691248
18562697169
18562705164
18562710535
18562717616
18562723170
18562729273
18562735804
18562741053
18562747889
18562753504
18562760218
18562766688
18562772913
18562779322
18562784876
18562790797
18562797938
18562803553
18562808375
18562816981
18562825159
18562833643
18562840540
18562846827
18562854883
18562860498
18562866663
18562872705
18562878687
18562883875
18562889978
18562897303
18562902613
18562908716
18562912867
18562918970
18562925440
18562931665
18562937525
18562943140
18562948633
18562952967
18562959741
18562964685
18562971338
18562979395
18562984888
18562990686
18562997034
18563002710
18563008691
18563014673
18563021387
18563028528
18563033166
18563041162
18563047632
18563052576
18563058374
18563065149
18563071191
18563077417
18563083276
18563090234
18563097742
18563104455
18563110620
18563117700
18563124902
18563130822
18563136194
18563142236
18563147729
18563154565
18563160241
18563168725
18563175927
18563180444
18563188317
18563195214
18563202233
18563209008
18563216455
18563222741
18563227807
18563233789
18563238610
18563245446
18563251977
18563258019
18563264794
18563270654
18563275964
18563283776
18563289636
18563295617
18563301354
18563309960
18563316552
18563324426
18563329613
18563336449
18563341698
18563349267
18563355859
18563362755
18563370080
18563374901
18563383752
18563392541
18563401452
18563412072
18563422204
18563431115
18563442406
18563449425
18563455895
18563463036
18563469933
18563477074
18563481896
18563489159
18563494286
18563501915
18563511010
18563516869
18563524987
18563531395
18563539086
18563544396
18563549767
18563556603
18563562462
18563569664
18563576439
18563583580
18563590355
18563595299
18563602684
18563609886
18563616478
18563621788
18563630882
18563637535
18563644310
18563651756
18563657310
18563665062
18563673180
18563679954
18563687157
18563694725
18563699913
18563709739
18563715416
18563725242
18563732994
18563740318
18563745628
18563755027
18563761497
18563768272
18563773765
18563783470
18563787193
18563796775
18563802757
18563811180
18563814842
18563825340
18563833763
18563840415
18563847190
18563854881
18563858665
18563871177
18563878501
18563886253
18563895225
18563902610
18563908775
18563918784
18563926475
18563934348
18563938255
18563947959
18563953941
18563963035
18563969016
18563977866
18563984031
18563993735
18563999961
18564009116
18564014853
18564023826
18564031699
18564038596
18564046347
18564054526
18564060325
18564068686
18564076682
18564085654
18564092185
18564098349
18564107688
18564114463
18564124045
18564132651
18564142478
18564155539
18564162985
18564169516
18564177451
18564184653
18564191000
18564197287
18564203940
18564209982
18564216025
18564220786
18564229025
18564233847
18564241476
18564247580
18564255453
18564260763
18564266623
18564272299
18564279623
18564285605
18564292563
18564298422
18564305258
18564310080
18564317282
18564324911
18564331503
18564337484
18564343832
18564350668
18564355917
18564363668
18564370565
18564376791
18564381735
18564389059
18564396810
18564402426
18564405661
18564414389
18564420187
18564427938
18564435263
18564441183
18564448263
18564454428
18564459982
18564465719
18564471761
18564476095
18564483968
18564490499
18564496359
18564503011
18564507894
18564512899
18564520101
18564525472
18564532003
18564537862
18564546285
18564551717
18564558553
18564563924
18564569601
18564576620
18564582662
18564589193
18564593221
18564599080
18564605184
18564610738
18564617757
18564623311
18564630697
18564636251
18564643941
18564650228
18564655599
18564661336
18564667623
18564674276
18564680928
18564686910
18564695394
18564704427
18564715169
18564724385
18564732564
18564741597
18564752217
18564758382
18564766377
18564773702
18564778951
18564785603
18564791890
18564797688
18564804463
18564810323
18564817647
18564823567
18564830342
18564837788
18564843587
18564851277
18564856831
18564864583
18564872212
18564877339
18564884419
18564890889
18564897114
18564903279
18564909382
18564916279
18564923237
18564928730
18564936177
18564943257
18564948994
18564955281
18564961384
18564966755
18564975117
18564981892
18564988301
18564995686
18565001972
18565008808
18565015156
18565023823
18565029988
18565036823
18565042805
18565052204
18565059895
18565066242
18565073994
18565080952
18565087666
18565092548
18565099690
18565104389
18565111530
18565116535
18565124714
18565130207
18565137043
18565144184
18565150959
18565157612
18565164326
18565172138
18565177997
18565185505
18565191303
18565197346
18565203571
18565210346
18565218036
18565224384
18565232197
18565238910
18565245502
18565252155
18565257160
18565264423
18565270954
18565279682
18565287616
18565294940
18565302814
18565310260
18565317646
18565325031
18565332538
18565344257
18565350665
18565360065
18565368121
18565376422
18565385577
18565391132
18565400897
18565406574
18565414020
18565420489
18565428180
18565431659
18565441424
18565447406
18565454242
18565461627
18565470660
18565478168
18565484820
18565491534
18565500689
18565507586
18565515399
18565521930
18565528155
18565539203
18565545550
18565552874
18565561175
18565568072
18565576556
18565583453
18565591754
18565600299
18565606219
18565614947
18565622576
18565629168
18565636798
18565644793
18565652789
18565660662
18565666522
18565674944
18565682635
18565692461
18565698382
18565706377
18565714129
18565721148
18565729266
18565737688
18565744158
18565753496
18565761553
18565769366
18565777117
18565784380
18565792071
18565799029
18565806841
18565815081
18565822771
18565829546
18565837175
18565842791
18565851091
18565857073
18565865129
18565873369
18565879717
18565886614
18565890947
18565897966
18565904192
18565911333
18565918657
18565925371
18565931658
18565939348
18565944048
18565951250
18565957597
18565965166
18565972002
18565978899
18565985979
18565992204
18565999345
18566005632
18566011308
18566018571
18566026872
18566032182
18566038835
18566051225
18566058610
18566068620
18566074418
18566082231
18566089799
18566096574
18566103593
18566110612
18566116227
18566123735
18566130265
18566135270
18566142167
18566147722
18566154008
18566159990
18566165971
18566174516
18566180070
18566185624
18566191850
18566198747
18566203935
18566210038
18566215898
18566222672
18566229753
18566235917
18566241471
18566248551
18566255631
18566263688
18566269303
18566276444
18566282182
18566287980
18566293717
18566299088
18566305314
18566312699
18566317826
18566323319
18566328019
18566336503
18566341386
18566348466
18566355241
18566362260
18566368241
18566375199
18566381302
18566387406
18566396866
18566403458
18566410904
18566417191
18566423783
18566428910
18566435990
18566441788
18566448990
18566455277
18566462662
18566469620
18566476090
18566483109
18566488114
18566495255
18566503983
18566510636
18566518021
18566524674
18566530533
18566538895
18566545609
18566552261
18566557999
18566565811
18566570999
18566578629
18566583817
18566591629
18566599136
18566605240
18566613113
18566619156
18566625748
18566633377
18566639847
18566646805
18566651504
18566658707
18566667496
18566672989
18566682998
18566688675
18566698562
18566705520
18566712234
18566721267
18566728897
18566735366
18566744522
18566749466
18566756851
18566763870
18566770523
18566777542
18566784378
18566790908
18566795730
18566803482
18566810379
18566816848
18566821975
18566832473
18566838088
18566846084
18566851699
18566859451
18566864394
18566872207
18566880142
18566886489
18566893325
18566900954
18566907668
18566915115
18566921828
18566928359
18566934890
18566941787
18566948745
18566955947
18566962600
18566967788
18566977553
18566983291
18566991042
18566996657
18567002883
18567008986
18567017226
18567024001
18567032241
18567038955
18567046157
18567052321
18567057997
18567065078
18567072890
18567077590
18567088210
18567095534
18567103408
18567113906
18567120497
18567126601
18567134291
18567144118
18567151015
18567158705
18567165541
18567172865
18567179701
18567186171
18567194289
18567200636
18567207777
18567213759
18567221449
18567229811
18567237074
18567244704
18567250075
18567258436
18567266188
18567273146
18567278517
18567286085
18567294325
18567301466
18567307448
18567316603
18567324415
18567331434
18567341078
18567349684
18567357862
18567365858
18567371962
18567380323
18567388258
18567399916
18567407362
18567414808
18567423902
18567432264
18567438612
18567444959
18567453504
18567460828
18567467115
18567475477
18567482252
18567490614
18567497327
18567505384
18567512220
18567519605
18567528028
18567534315
18567542799
18567551343
18567558423
18567563795
18567571790
18567577344
18567585523
18567591199
18567598218
18567604993
18567611280
18567618238
18567622998
18567630994
18567636060
18567643323
18567650281
18567656751
18567663953
18567670179
18567676831
18567682691
18567688794
18567694715
18567702161
18567707593
18567714307
18567721387
18567726270
18567733960
18567740247
18567747266
18567753552
18567758923
18567765088
18567771985
18567777783
18567784985
18567791394
18567797803
18567805127
18567810193
18567817090
18567823865
18567829663
18567834302
18567842114
18567849377
18567855481
18567860974
18567867749
18567873303
18567879712
18567884289
18567891003
18567898633
18567904736
18567911084
18567915539
18567923474
18567928601
18567935498
18567940075
18567947338
18567953625
18567960461
18567966137
18567972424
18567978710
18567984875
18567991772
18567998974
18568007153
18568014538
18568023632
18568030712
18568040295
18568047558
18568054821
18568062023
18568068676
18568074657
18568079296
18568088329
18568093151
18568100475
18568106823
18568113049
18568117687
18568123913
18568131786
18568137035
18568143627
18568148571
18568154735
18568162670
18568169445
18568175548
18568183056
18568189403
18568195385
18568201977
18568208812
18568214977
18568219921
18568228771
18568236095
18568242015
18568248973
18568255870
18568261486
18568268077
18568276012
18568282421
18568288219
18568294628
18568301280
18568306224
18568314952
18568319957
18568329418
18568335521
18568341319
18568348583
18568353954
18568360545
18568367564
18568374339
18568381603
18568388377
18568394664
18568401622
18568406566
18568414745
18568421825
18568427928
18568433421
18568441478
18568447154
18568454783
18568461314
18568466563
18568475352
18568481700
18568487925
18568494029
18568499827
18568506358
18568512462
18568520579
18568527110
18568533213
18568540477
18568546336
18568553294
18568559825
18568565684
18568574595
18568579600
18568587229
18568593760
18568601878
18568608225
18568616709
18568620860
18568632395
18568643382
18568651255
18568657298
18568665476
18568673411
18568680613
18568687815
18568693980
18568699839
18568707529
18568713694
18568719248
18568726206
18568733652
18568738901
18568746042
18568751719
18568758677
18568765330
18568772410
18568779001
18568785898
18568792124
18568798960
18568805491
18568810801
18568817392
18568827768
18568835459
18568842234
18568849436
18568854502
18568862131
18568868906
18568877695
18568883432
18568891550
18568899668
18568905649
18568912607
18568920847
18568928049
18568935861
18568942575
18568950082
18568957285
18568963022
18568970773
18568979135
18568986337
18568992746
18569000131
18569008859
18569016000
18569022165
18569030282
18569036630
18569045358
18569051889
18569061960
18569068612
18569076242
18569084604
18569093271
18569099435
18569107492
18569113412
18569122628
18569128488
18569136911
18569143014
18569151803
18569158090
18569166696
18569172616
18569179818
18569188546
18569194528
18569203622
18569209542
18569218698
18569225289
18569233651
18569242257
18569248300
18569254952
18569263070
18569270272
18569275948
18569282418
18569290536
18569298043
18569303841
18569312508
18569319649
18569327218
18569332772
18569339059
18569350655
18569359383
18569365120
18569372140
18569378121
18569383797
18569391243
18569398751
18569405220
18569411507
18569417305
18569421822
18569428292
18569436104
18569441841
18569445015
18569453560
18569459236
18569465645
18569473030
18569479012
18569487190
18569493904
18569500313
18569506111
18569511666
18569517342
18569523201
18569527229
18569535469
18569540535
18569549019
18569553841
18569559822
18569566841
18569572945
18569579964
18569585152
18569591988
18569596382
18569602547
18569607735
18569613777
18569620735
18569627327
18569632576
18569637886
18569644173
18569649788
18569654915
18569662056
18569668281
18569674019
18569679329
18569684700
18569690864
18569697944
18569703499
18569710518
18569716255
18569723701
18569729194
18569735054
18569741829
18569748909
18569755134
18569762336
18569767219
18569773506
18569780220
18569785530
18569792243
18569800422
18569807258
18569813362
18569819709
18569826606
18569833015
18569838752
18569843818
18569852729
18569859260
18569864936
18569871101
18569878852
18569887458
18569893195
18569905463
18569915717
18569922492
18569933417
18569941108
18569948371
18569954902
18569961371
18569966132
18569973090
18569977973
18569985358
18569993049
18569999213
18570005134
18570012580
18570017463
18570025031
18570031073
18570036505
18570043219
18570050177
18570056281
18570063666
18570070441
18570077338
18570083686
18570090949
18570098212
18570105353
18570111395
18570117194
18570123725
18570131293
18570137885
18570141242
18570152716
18570159918
18570167304
18570173712
18570180731
18570187201
18570195135
18570201727
18570208807
18570215033
18570222601
18570228705
18570236090
18570243170
18570250860
18570258795
18570264960
18570271185
18570278875
18570285101
18570292059
18570299322
18570306158
18570313177
18570320013
18570325689
18570332586
18570340033
18570348394
18570355535
18570362249
18570368780
18570375372
18570382696
18570389959
18570397711
18570405645
18570411444
18570419073
18570425665
18570432317
18570439947
18570446905
18570455694
18570461553
18570470159
18570477361
18570483831
18570491582
18570497930
18570507268
18570517828
18570527776
18570536077
18570543645
18570554021
18570564153
18570575139
18570582891
18570591741
18570599614
18570606633
18570615545
18570622075
18570631963
18570639287
18570647893
18570654241
18570663274
18570672185
18570680425
18570687688
18570693975
18570703313
18570712163
18570719426
18570726689
18570733891
18570742436
18570751836
18570758611
18570766545
18570773686
18570779851
18570787968
18570796147
18570803166
18570811589
18570818791
18570824650
18570832585
18570837712
18570848393
18570856816
18570863652
18570872014
18570880436
18570885746
18570893620
18570900639
18570908757
18570916813
18570923222
18570932438
18570938115
18570945011
18570952153
18570956974
18570966740
18570972660
18570979069
18570984013
18570991581
18570997441
18571002201
18571010502
18571013737
18571023441
18571029850
18571035160
18571041264
18571047672
18571054447
18571060978
18571066837
18571071171
18571079716
18571084843
18571091312
18571099369
18571104313
18571110966
18571116581
18571122196
18571128788
18571134952
18571140812
18571148929
18571155216
18571161930
18571166813
18571174869
18571183536
18571188663
18571197086
18571203556
18571210331
18571216190
18571223148
18571230167
18571235660
18571242313
18571247928
18571254337
18571259098
18571266727
18571271976
18571277957
18571283695
18571289188
18571294681
18571301212
18571307254
18571312625
18571319339
18571325504
18571331058
18571335697
18571342349
18571346866
18571353702
18571359073
18571366336
18571371768
