18431391414
18431403804
18431414058
18431422664
18431433833
18431443538
18431452937
18431464228
18431474726
18431483760
18431493159
18431503779
18431515681
18431526606
18431536494
18431545710
18431555232
18431565424
18431576167
18431586848
18431598261
18431609064
18431619074
18431628046
18431638300
18431648127
18431658686
18431668268
18431678278
18431689997
18431698664
18431710505
18431720453
18431730646
18431741694
18431751398
18431761042
18431773859
18431784235
18431795526
18431804560
18431816095
18431825250
18431836786
18431848078
18431855707
18431867365
18431874933
18431887445
18431899469
18431909418
18431920099
18431932672
18431941034
18431950921
18431962457
18431974359
18431983514
18431995050
18432004510
18432016290
18432024774
18432036554
18432047967
18432060296
18432070733
18432082330
18432092095
18432103082
18432113030
18432124200
18432134210
18432146722
18432155328
18432165398
18432171624
18432178948
18432187188
18432195123
18432201348
18432211358
18432220879
18432228692
18432237786
18432246392
18432254632
18432264336
18432274529
18432285637
18432294549
18432303704
18432311089
18432319878
18432328423
18432336602
18432343316
18432349419
18432355950
18432364373
18432370964
18432378166
18432384758
18432391472
18432399468
18432405510
18432413872
18432419304
18432428154
18432435173
18432443230
18432450066
18432456902
18432465263
18432472771
18432481255
18432490471
18432497612
18432505363
18432512382
18432520012
18432526909
18432534050
18432543144
18432551079
18432557548
18432566459
18432573478
18432581535
18432589103
18432595695
18432604118
18432612358
18432619865
18432626945
18432635307
18432642814
18432649406
18432656242
18432664299
18432671745
18432678947
18432686027
18432692497
18432701103
18432707939
18432715324
18432723075
18432730155
18432740959
18432747611
18432755180
18432765067
18432772819
18432779105
18432788932
18432796683
18432803764
18432811271
18432818290
18432825309
18432834098
18432842338
18432848319
18432856254
18432862418
18432870353
18432876517
18432884208
18432890494
18432897452
18432905509
18432911551
18432920096
18432928519
18432938529
18432947867
18432957206
18432966727
18432975638
18432982047
18432994315
18433001883
18433011893
18433019339
18433028678
18433035880
18433044425
18433053458
18433059744
18433069022
18433077506
18433084891
18433093314
18433099539
18433106436
18433114737
18433119986
18433128958
18433137198
18433144278
18433152518
18433160757
18433166617
18433174551
18433182364
18433191275
18433198294
18433206472
18433213247
18433220449
18433228506
18433236319
18433243704
18433250967
18433258291
18433266348
18433273428
18433281240
18433288381
18433295156
18433304495
18433310476
18433319509
18433325857
18433334951
18433340505
18433349294
18433354055
18433362783
18433371084
18433378286
18433385244
18433394155
18433400869
18433409414
18433415945
18433424734
18433432485
18433440481
18433447622
18433456045
18433462942
18433469228
18433475820
18433483754
18433490346
18433497915
18433504873
18433513112
18433520559
18433528066
18433537404
18433545766
18433551442
18433557912
18433565663
18433572621
18433580495
18433587148
18433596059
18433601674
18433609975
18433615651
18433623891
18433631398
18433639150
18433646474
18433656300
18433664418
18433672597
18433683339
18433692372
18433702260
18433711415
18433719044
18433729726
18433739491
18433748219
18433755910
18433764271
18433771657
18433779286
18433785450
18433793263
18433800770
18433807484
18433815175
18433822987
18433831532
18433838795
18433846241
18433853260
18433860585
18433866749
18433874806
18433882679
18433891224
18433897877
18433906544
18433914784
18433922413
18433930470
18433937733
18433944691
18433953175
18433960011
18433968372
18433975086
18433984180
18433989857
18433999317
18434007008
18434015491
18434025806
18434033497
18434040272
18434047169
18434055591
18434062366
18434070728
18434080677
18434088184
18434097034
18434103382
18434112598
18434119800
18434127674
18434137317
18434145313
18434155384
18434162769
18434168933
18434176441
18434183887
18434190296
18434197681
18434206897
18434213245
18434220569
18434227039
18434234119
18434240711
18434245899
18434253467
18434260364
18434267078
18434274036
18434280261
18434286182
18434293994
18434299548
18434307605
18434315356
18434320911
18434328540
18434333972
18434342761
18434350879
18434358264
18434366260
18434373279
18434381030
18434388354
18434394885
18434402636
18434411975
18434420337
18434427417
18434434863
18434441272
18434448779
18434457690
18434466601
18434472155
18434479541
18434486865
18434491870
18434499011
18434507067
18434513842
18434521594
18434527209
18434534594
18434540514
18434547045
18434554858
18434561266
18434567126
18434576098
18434582079
18434588732
18434596728
18434603991
18434611132
18434618090
18434626757
18434633410
18434639818
18434647509
18434654040
18434660021
18434666735
18434673510
18434682787
18434688830
18434696947
18434702868
18434709765
18434719103
18434726305
18434732592
18434741747
18434748461
18434755663
18434762987
18434770800
18434778124
18434784960
18434794847
18434801683
18434808336
18434814745
18434822374
18434829088
18434836717
18434846666
18434854662
18434860826
18434868761
18434874254
18434881151
18434889879
18434896898
18434904466
18434912279
18434920396
18434927965
18434934923
18434942308
18434948961
18434956529
18434966234
18434974168
18434982225
18434989427
18434995714
18435003404
18435011338
18435018785
18435025377
18435034105
18435043016
18435051805
18435061936
18435070542
18435079576
18435094102
18435103623
18435112046
18435119981
18435130418
18435136643
18435146104
18435152451
18435161607
18435168626
18435177537
18435185532
18435191758
18435197800
18435206834
18435215562
18435223252
18435230332
18435236802
18435244675
18435252793
18435260117
18435270432
18435278916
18435284348
18435292222
18435297776
18435305771
18435314072
18435321946
18435329270
18435337082
18435344101
18435350998
18435358017
18435364914
18435374192
18435381211
18435387924
18435394760
18435402634
18435409165
18435414231
18435419174
18435426438
18435434433
18435440659
18435446152
18435452011
18435457565
18435462631
18435470444
18435475754
18435482468
18435488876
18435493271
18435500778
18435505356
18435511398
18435519089
18435525680
18435531418
18435538071
18435543258
18435547897
18435555832
18435563217
18435569320
18435575851
18435580978
18435587570
18435593368
18435598617
18435605819
18435612899
18435618759
18435624313
18435630050
18435637191
18435641891
18435646835
18435653854
18435659469
18435665756
18435670211
18435676681
18435682357
18435689926
18435697372
18435703781
18435710739
18435717697
18435724716
18435730880
18435740096
18435746017
18435751449
18435756881
18435764022
18435769698
18435775558
18435782699
18435788985
18435794173
18435800765
18435804916
18435811629
18435818709
18435823470
18435830123
18435836349
18435842086
18435849227
18435854781
18435860763
18435866317
18435872481
18435879561
18435885360
18435892012
18435897933
18435902694
18435909591
18435914229
18435923262
18435928817
18435934188
18435940047
18435947188
18435953292
18435958358
18435965560
18435972640
18435977828
18435984664
18435989119
18435995833
18436001265
18436008650
18436016341
18436021285
18436028365
18436033125
18436042098
18436047957
18436054060
18436062910
18436068770
18436075056
18436082075
18436087630
18436094466
18436100203
18436106184
18436115706
18436122786
18436129072
18436134932
18436142805
18436148604
18436154707
18436161726
18436169417
18436174971
18436181807
18436187544
18436195295
18436202986
18436211042
18436217451
18436225447
18436232954
18436239912
18436245771
18436253218
18436258345
18436267195
18436273603
18436283125
18436294477
18436301313
18436310224
18436323408
18436330122
18436338667
18436345319
18436353559
18436361738
18436369367
18436376997
18436382551
18436390485
18436396833
18436403974
18436408552
18436415876
18436422224
18436430097
18436437726
18436445112
18436451703
18436456891
18436465619
18436472211
18436478376
18436484723
18436491315
18436498639
18436505170
18436512799
18436519452
18436526288
18436534162
18436539655
18436546857
18436555036
18436562787
18436567792
18436575238
18436581708
18436588605
18436596356
18436601666
18436608869
18436614545
18436622052
18436627179
18436634931
18436641400
18436648480
18436652875
18436660138
18436668134
18436673871
18436680585
18436688458
18436694318
18436700848
18436706586
18436713299
18436719159
18436726117
18436733807
18436738812
18436746441
18436753399
18436759137
18436764691
18436772381
18436780621
18436785565
18436791790
18436799908
18436806805
18436814495
18436821514
18436827313
18436836651
18436842633
18436851971
18436857586
18436867108
18436874493
18436881939
18436889080
18436896343
18436902691
18436910320
18436919415
18436925274
18436931500
18436941937
18436953899
18436961102
18436969280
18436976604
18436984905
18436994610
18436999370
18437009258
18437020428
18437026714
18437034221
18437039837
18437046856
18437052349
18437059551
18437066631
18437073345
18437079632
18437085735
18437091594
18437100139
18437106182
18437111980
18437119060
18437125530
18437131816
18437137859
18437143779
18437149883
18437156902
18437162822
18437168010
18437175334
18437180339
18437188213
18437193218
18437200542
18437207561
18437212505
18437219768
18437226482
18437231914
18437238261
18437246074
18437252116
18437257793
18437262981
18437269145
18437275188
18437281291
18437286967
18437294170
18437299968
18437306377
18437312724
18437317302
18437323466
18437331523
18437337077
18437342631
18437349589
18437354655
18437359904
18437366435
18437373881
18437381083
18437387126
18437393351
18437397929
18437405314
18437411357
18437418071
18437423991
18437430156
18437435466
18437440531
18437446147
18437452494
18437457438
18437465739
18437472514
18437479228
18437484721
18437491191
18437496440
18437501383
18437508830
18437515177
18437523295
18437529520
18437536051
18437543925
18437550578
18437559794
18437566630
18437576701
18437581217
18437588969
18437595560
18437600870
18437608622
18437613871
18437621317
18437627115
18437633280
18437640360
18437647318
18437653238
18437659159
18437667093
18437673624
18437680338
18437685953
18437693888
18437700846
18437706644
18437713114
18437719278
18437726969
18437732523
18437739542
18437747415
18437753763
18437759317
18437765909
18437774149
18437780557
18437787515
18437795145
18437800882
18437806986
18437813211
18437820963
18437827921
18437835550
18437841959
18437849100
18437855569
18437861246
18437869485
18437875528
18437883890
18437890298
18437897928
18437904520
18437909769
18437917581
18437922159
18437930337
18437936319
18437942666
18437949014
18437956643
18437961160
18437968362
18437973550
18437981057
18437988015
18437995157
18438000222
18438006875
18438012368
18438019021
18438023904
18438031411
18438039346
18438045022
18438050759
18438057656
18438063394
18438070046
18438075784
18438082681
18438089700
18438095925
18438101235
18438108010
18438114968
18438122231
18438130898
18438139199
18438145486
18438153970
18438161416
18438167519
18438178506
18438186440
18438193032
18438199563
18438206643
18438212563
18438218056
18438226784
18438232827
18438239235
18438245827
18438253701
18438258950
18438265358
18438274331
18438280678
18438287026
18438293068
18438299782
18438305275
18438312111
18438320351
18438326943
18438333351
18438339699
18438346718
18438353371
18438359719
18438367409
18438372109
18438380348
18438387306
18438393288
18438399330
18438407509
18438414040
18438422218
18438429482
18438435646
18438443825
18438449867
18438458717
18438464882
18438473122
18438482521
18438490395
18438497475
18438505104
18438511268
18438520973
18438529823
18438535499
18438542030
18438550941
18438560280
18438568519
18438575782
18438583168
18438591652
18438599464
18438605323
18438613868
18438620094
18438627601
18438635719
18438640602
18438648353
18438654212
18438661659
18438667823
18438674781
18438679542
18438686317
18438691139
18438698219
18438704078
18438710975
18438717262
18438722144
18438729896
18438737037
18438743446
18438749854
18438756202
18438762366
18438769019
18438776954
18438783363
18438790076
18438797034
18438804236
18438811622
18438816993
18438825721
18438830909
18438838904
18438845191
18438851355
18438859229
18438865516
18438873755
18438879126
18438884559
18438890845
18438896033
18438902503
18438909156
18438913733
18438919776
18438926551
18438934485
18438939124
18438946082
18438951209
18438958533
18438963294
18438970557
18438975867
18438982581
18438988013
18438994360
18438999243
18439005591
18439010657
18439017127
18439022253
18439028601
18439034949
18439041113
18439046973
18439053137
18439060278
18439065405
18439072058
18439076758
18439084814
18439090124
18439097510
18439104651
18439114355
18439122778
18439129675
18439135229
18439141333
18439147864
18439152807
18439159521
18439167273
18439172094
18439179113
18439185827
18439191626
18439197607
18439203772
18439211096
18439217565
18439222876
18439229406
18439235754
18439240637
18439248632
18439254003
18439261816
18439268591
18439274389
18439279821
18439287023
18439291967
18439299352
18439307714
18439313329
18439319494
18439324865
18439331640
18439336889
18439342992
18439350011
18439355444
18439362341
18439369543
18439375585
18439381322
18439387548
18439394445
18439402807
18439410253
18439417272
18439425084
18439433568
18439441503
18439448827
18439456640
18439464879
18439470250
18439477453
18439483617
18439490392
18439498082
18439506017
18439512426
18439518163
18439525670
18439531285
18439538976
18439545690
18439551671
18439559667
18439564855
18439572728
18439577794
18439585607
18439591893
18439598729
18439606908
18439613194
18439619115
18439625279
18439632848
18439638707
18439646581
18439652562
18439658665
18439666051
18439673253
18439680943
18439687413
18439694371
18439700780
18439706029
18439713597
18439719700
18439726903
18439733555
18439739354
18439746861
18439752171
18439760838
18439766270
18439773716
18439779210
18439785679
18439793065
18439801915
18439808995
18439817295
18439823765
18439832066
18439838414
18439847569
18439854038
18439862950
18439870152
18439878452
18439884861
18439891514
18439898716
18439907017
18439914646
18439924290
18439931187
18439938694
18439945164
18439951878
18439958347
18439963352
18439970982
18439979710
18439986240
18439994358
18440001377
18440009006
18440015964
18440019565
18440028843
18440038730
18440045871
18440052585
18440062656
18440070591
18440079013
18440087619
18440095249
18440105014
18440112949
18440122226
18440130893
18440139316
18440145542
18440151462
18440159641
18440165012
18440173313
18440179233
18440187778
18440194553
18440200900
18440208530
18440216525
18440222995
18440229831
18440236728
18440241672
18440249240
18440255038
18440263827
18440269687
18440278049
18440283969
18440292453
18440300998
18440306491
18440315158
18440322848
18440328036
18440333652
18440340243
18440347018
18440351413
18440357882
18440365695
18440371615
18440377963
18440383395
18440388461
18440395236
18440399691
18440406771
18440412326
18440419406
18440425814
18440430575
18440436801
18440441806
18440447421
18440454257
18440460299
18440467745
18440473178
18440477511
18440484042
18440490817
18440496249
18440502230
18440509676
18440515597
18440520480
18440525729
18440532504
18440538241
18440543978
18440550021
18440554293
18440560824
18440566561
18440573153
18440578097
18440583041
18440589937
18440597079
18440602877
18440607393
18440612520
18440619845
18440625216
18440631441
18440637972
18440643038
18440649630
18440653841
18440660494
18440666842
18440673189
18440680513
18440685213
18440691988
18440698641
18440706758
18440712862
18440719698
18440726595
18440733858
18440741670
18440746553
18440753511
18440758272
18440765413
18440772432
18440777376
18440785249
18440791109
18440797090
18440803255
18440810579
18440816011
18440823396
18440829378
18440834871
18440841951
18440846895
18440853975
18440861238
18440866853
18440872407
18440879732
18440885835
18440893526
18440900911
18440908235
18440915010
18440921663
18440928071
18440935884
18440942293
18440950166
18440955903
18440963533
18440969026
18440976960
18440983247
18440990937
18440996858
18441004121
18441010347
18441017854
18441023225
18441030671
18441036347
18441042146
18441049409
18441056306
18441063447
18441070344
18441078462
18441084565
18441091340
18441099214
18441106660
18441113679
18441120026
18441126435
18441132111
18441139252
18441145356
18441151643
18441159577
18441166413
18441172150
18441178193
18441183930
18441189362
18441197114
18441202912
18441210480
18441216706
18441223786
18441229218
18441234406
18441240448
18441247406
18441254548
18441259430
18441267487
18441274628
18441283661
18441289215
18441298493
18441307770
18441313813
18441322296
18441328278
18441336579
18441343659
18441349945
18441357208
18441364289
18441370636
18441375946
18441383576
18441388764
18441397125
18441403046
18441409515
18441415619
18441423492
18441429047
18441437164
18441443268
18441449493
18441456146
18441463348
18441470245
18441476959
18441483307
18441489227
18441496368
18441503204
18441511139
18441519867
18441527557
18441535248
18441542633
18441550506
18441557464
18441564056
18441572784
18441579071
18441587188
18441592987
18441600555
18441607086
18441615325
18441623443
18441629425
18441637542
18441643157
18441652130
18441660674
18441667816
18441673858
18441680755
18441688934
18441695525
18441701934
18441711028
18441717376
18441724578
18441732635
18441739776
18441747222
18441754241
18441762176
18441769256
18441777312
18441786223
18441793426
18441802337
18441809783
18441817656
18441822417
18441831328
18441840300
18441846465
18441853057
18441861663
18441868010
18441875335
18441881499
18441890776
18441897063
18441904448
18441912627
18441920500
18441926726
18441934111
18441941802
18441948699
18441955535
18441962676
18441967925
18441979094
18441985930
18441992644
18441998686
18442005034
18442012785
18442019926
18442031340
18442036162
18442044340
18442050749
18442056792
18442061491
18442070463
18442076994
18442083159
18442090544
18442096525
18442103117
18442109160
18442115324
18442121489
18442127592
18442134855
18442139738
18442147184
18442152678
18442158964
18442165068
18442172880
18442178801
18442186003
18442191801
18442198149
18442204313
18442208708
18442214323
18442220976
18442226591
18442233610
18442239042
18442244413
18442249906
18442254240
18442262724
18442268766
18442274503
18442279691
18442286466
18442291410
18442298185
18442303434
18442310026
18442317411
18442321745
18442328886
18442333463
18442340787
18442346586
18442354337
18442360258
18442365385
18442371732
18442377653
18442383268
18442389188
18442394376
18442401456
18442407560
18442412626
18442419156
18442426114
18442431058
18442438077
18442445890
18442451383
18442457853
18442464444
18442469266
18442475980
18442481717
18442488187
18442495084
18442499906
18442507840
18442514066
18442519498
18442526029
18442534635
18442542325
18442547940
18442556241
18442561978
18442570706
18442575833
18442584195
18442592862
18442600125
18442607083
18442614346
18442621121
18442628140
18442635037
18442642606
18442649136
18442657132
18442663052
18442669583
18442677823
18442684292
18442690396
18442698331
18442705594
18442711331
18442718594
18442724331
18442731656
18442736844
18442744290
18442750760
18442758450
18442766201
18442771511
18442780056
18442785305
18442793484
18442801419
18442807644
18442814907
18442821194
18442827236
18442833706
18442841152
18442847561
18442855435
18442861904
18442869045
18442875759
18442881985
18442888760
18442896633
18442903347
18442910244
18442918484
18442923611
18442931789
18442937954
18442946011
18442950954
18442958950
18442966457
18442973904
18442978786
18442986233
18442991848
18442999233
18443005642
18443013393
18443018520
18443025661
18443033046
18443037990
18443046108
18443050991
18443058803
18443065761
18443072048
18443077724
18443084072
18443091518
18443098293
18443105678
18443112453
18443120082
18443126613
18443134487
18443140834
18443146449
18443154567
18443161342
18443169826
18443176906
18443184169
18443190578
18443197658
18443204799
18443212123
18443218837
18443232143
18443238063
18443246974
18443255031
18443262477
18443269801
18443279079
18443286525
18443295070
18443304042
18443309047
18443318202
18443323939
18443331691
18443338099
18443346278
18443352687
18443360316
18443367030
18443373011
18443380702
18443387721
18443396876
18443404444
18443410975
18443417384
18443425074
18443430445
18443438685
18443444850
18443452296
18443457850
18443465418
18443472743
18443477686
18443486781
18443495448
18443504725
18443511439
18443517054
18443525233
18443530543
18443539332
18443546412
18443555079
18443561732
18443570093
18443576014
18443583643
18443591028
18443600123
18443609278
18443615564
18443624109
18443630274
18443635950
18443641932
18443649256
18443656824
18443664576
18443670008
18443676722
18443682947
18443687098
18443694727
18443701746
18443707910
18443714685
18443721887
18443728784
18443734278
18443741175
18443748194
18443754846
18443759790
18443765955
18443771265
18443777857
18443784448
18443790796
18443797876
18443803552
18443810144
18443816797
18443824060
18443831201
18443836084
18443842737
18443848596
18443856531
18443861658
18443868494
18443874170
18443881128
18443886316
18443893274
18443898767
18443907373
18443913904
18443920129
18443925012
18443930993
18443936853
18443942468
18443948755
18443955224
18443959863
18443965295
18443971032
18443976403
18443982080
18443988732
18443994226
18444000939
18444005944
18444011621
18444017602
18444023217
18444028039
18444034997
18444040734
18444046838
18444050866
18444058190
18444063500
18444068200
18444076074
18444083398
18444091027
18444098107
18444104333
18444111413
18444118737
18444124474
18444130822
18444138451
18444144799
18444151513
18444158044
18444164696
18444171776
18444179589
18444184960
18444192650
18444200402
18444209679
18444215416
18444223412
18444228356
18444236657
18444243370
18444250756
18444258385
18444264672
18444271691
18444279747
18444287621
18444293663
18444301110
18444306420
18444314598
18444321678
18444327782
18444336266
18444342797
18444349632
18444355797
18444361534
18444370140
18444381432
18444387535
18444395226
18444405968
18444414879
18444423546
18444431786
18444439903
18444446556
18444453514
18444461326
18444466637
18444474388
18444481102
18444488365
18444494652
18444501854
18444509422
18444517051
18444522789
18444529991
18444536827
18444544212
18444550193
18444555015
18444562278
18444569908
18444576072
18444582847
18444588584
18444595909
18444602073
18444609214
18444616600
18444623313
18444628623
18444635703
18444642845
18444648704
18444655906
18444661338
18444669334
18444673362
18444681175
18444688926
18444696067
18444703147
18444710899
18444716758
18444722678
18444729392
18444740623
18444747520
18444753562
18444760032
18444767478
18444774009
18444779868
18444789390
18444795676
18444803000
18444810630
18444815940
18444825156
18444832297
18444838767
18444846457
18444853110
18444859580
18444867453
18444875205
18444884848
18444891867
18444899497
18444908408
18444916770
18444923911
18444934043
18444943198
18444949484
18444956626
18444965964
18444973105
18444982932
18444990256
18445002951
18445009421
18445019431
18445026755
18445037070
18445042807
18445052756
18445059836
18445066427
18445075217
18445081625
18445088095
18445093405
18445101950
18445109335
18445116476
18445124045
18445130758
18445137594
18445146994
18445154684
18445161825
18445167074
18445175863
18445183126
18445190267
18445196676
18445203024
18445209555
18445216329
18445222128
18445229635
18445235067
18445240194
18445245443
18445251058
18445258383
18445263876
18445268636
18445275228
18445282858
18445287374
18445295797
18445303793
18445309408
18445315267
18445322408
18445329183
18445335836
18445343343
18445348470
18445355001
18445361288
18445367452
18445373678
18445379354
18445386739
18445393575
18445398397
18445405050
18445411214
18445418721
18445424703
18445429036
18445436727
18445441854
18445447347
18445454183
18445460836
18445466573
18445471700
18445477132
18445483480
18445490132
18445496114
18445501546
18445507039
18445511495
18445518025
18445525411
18445530477
18445537496
18445542317
18445546956
18445554341
18445560506
18445567830
18445576680
18445586568
18445594075
18445600789
18445610677
18445619099
18445627705
18445633565
18445639851
18445646321
18445653828
18445659627
18445667073
18445671712
18445679768
18445686909
18445693867
18445699482
18445705586
18445713704
18445721333
18445726643
18445733723
18445739582
18445746174
18445752522
18445757100
18445763691
18445770405
18445776142
18445783711
18445791218
18445796223
18445803730
18445810566
18445815815
18445822895
18445831074
18445838459
18445843464
18445851948
18445857868
18445864521
18445872028
18445878193
18445884113
18445891621
18445896931
18445903706
18445910847
18445917561
18445923359
18445930622
18445937824
18445943195
18445950031
18445956684
18445962910
18445968952
18445976215
18445981830
18445988849
18445995563
18446002277
18446009052
18446014606
18446022052
18446027790
18446033771
18446039997
18446045917
18446050800
18446058368
18446063678
18446071552
18446078144
18446085407
18446091449
18446098590
18446104206
18446109638
18446117877
18446124530
18446132221
18446143085
18446148822
18446156268
18446164813
18446170245
18446177936
18446184406
18446192096
18446201617
18446208331
18446215228
18446221820
18446229510
18446235980
18446242206
18446250140
18446256854
18446265399
18446273761
18446279986
18446286273
18446292743
18446298297
18446305987
18446311297
18446317340
18446323932
18446330706
18446336078
18446345294
18446352496
18446358966
18446366046
18446373919
18446381488
18446388812
18446395281
18446403765
18446410235
18446417010
18446424090
18446429034
18446437213
18446445452
18446452593
18446459185
18446465960
18446471880
18446478289
18446484515
18446491961
18446500872
18446506609
18446513079
18446521685
18446526995
18446535174
18446540667
18446550310
18446556414
18446563006
18446569414
18446577715
18446584063
18446590899
18446597918
18446604693
18446613115
18446619768
18446629107
18446634661
18446643389
18446651812
18446659502
18446665972
18446674150
18446680437
18446688066
18446694597
18446701799
18446709123
18446717119
18446723894
18446729143
18446737444
18446744402
18446753496
18446762224
18446770891
18446781816
18446791643
18446799638
18446805681
18446814165
18446820146
18446823381
18446834550
18446841386
18446849626
18446855119
18446861467
18446868059
18446874406
18446884050
18446889360
18446894365
18446903154
18446911332
18446917619
18446923784
18446929277
18446935563
18446941484
18446947465
18446953508
18446959855
18446967424
18446973405
18446978837
18446984513
18446991471
18446997514
18447004716
18447010087
18447015458
18447022111
18447026505
18447033402
18447040605
18447046220
18447051835
18447058366
18447063676
18447068681
18447074540
18447079850
18447085343
18447091386
18447098038
18447102738
18447109208
18447113663
18447119645
18447124406
18447130814
18447137284
18447143204
18447148698
18447154801
18447160599
18447167130
18447172867
18447177933
18447183915
18447188736
18447195267
18447201249
18447206742
18447212174
18447219498
18447225968
18447232132
18447238297
18447244645
18447250565
18447257157
18447263077
18447269425
18447276688
18447282181
18447289261
18447294388
18447300980
18447307511
18447312149
18447320877
18447326981
18447332718
18447340347
18447348343
18447354630
18447362564
18447371109
18447379044
18447386429
18447393082
18447403091
18447409866
18447418899
18447425430
18447430984
18447438919
18447444595
18447451858
18447458206
18447466018
18447472549
18447477554
18447483902
18447491104
18447498916
18447507522
18447514114
18447519973
18447527725
18447535049
18447542678
18447547744
18447555374
18447561843
18447567092
18447576309
18447583389
18447589309
18447595413
18447601150
18447606521
18447613845
18447619216
18447626846
18447632766
18447639907
18447645522
18447650771
18447656509
18447663772
18447671829
18447677505
18447685439
18447690383
18447698013
18447702895
18447710708
18447716811
18447722915
18447729140
18447734878
18447742080
18447747817
18447753249
18447760634
18447767226
18447774795
18447780532
18447787673
18447793105
18447800918
18447806411
18447813979
18447819777
18447826979
18447833388
18447838027
18447845900
18447850539
18447857253
18447864150
18447870314
18447877455
18447883681
18447890700
18447896498
18447902114
18447907912
18447916579
18447922499
18447928542
18447936354
18447941481
18447949233
18447955519
18447962843
18447970107
18447977919
18447984999
18447991042
18447999648
18448007033
18448013991
18448024123
18448031019
18448037611
18448046217
18448052138
18448061110
18448068800
18448075575
18448081373
18448088209
18448093580
18448101210
18448106337
18448114088
18448120741
18448128187
18448136183
18448142530
18448149061
18448155287
18448163221
18448170423
18448176527
18448182325
18448188917
18448195387
18448202528
18448209669
18448217481
18448224195
18448229322
18448237440
18448242628
18448249159
18448255995
18448264661
18448270765
18448279249
18448285352
18448291517
18448299635
18448304823
18448312940
18448321363
18448326917
18448335035
18448341810
18448347242
18448355421
18448360242
18448369153
18448376539
18448382337
18448387281
18448394605
18448400037
18448405164
18448412000
18448417371
18448423352
18448428357
18448436963
18448442273
18448447644
18448453199
18448460645
18448467420
18448472669
18448478101
18448484815
18448492017
18448498975
18448504956
18448510755
18448517774
18448525891
18448532361
18448538342
18448545484
18448552197
18448558118
18448563123
18448573132
18448579663
18448585706
18448593823
18448600964
18448608227
18448614392
18448619641
18448627881
18448635022
18448640576
18448647839
18448653332
18448659680
18448663952
18448669568
18448673230
18448680737
18448687024
18448693188
18448698132
18448703320
18448708203
18448712292
18448718640
18448724621
18448731579
18448736157
18448742810
18448747448
18448754284
18448760327
18448766003
18448771069
18448777478
18448782849
18448788830
18448793896
18448799755
18448804943
18448812817
18448819409
18448825146
18448830029
18448836743
18448841869
18448847485
18448853222
18448858593
18448864330
18448871899
18448877758
18448883190
18448890392
18448896191
18448902966
18448909008
18448915050
18448921520
18448926403
18448933300
18448940929
18448947094
18448954235
18448960338
18448965832
18448972423
18448979198
18448987194
18448993664
18448999706
18449007152
18449012218
18449019359
18449025646
18449031566
18449038219
18449045299
18449051281
18449057933
18449062572
18449069225
18449075634
18449081127
18449089855
18449097179
18449103404
18449109691
18449115978
18449122936
18449129100
18449136730
18449143321
18449150829
18449158641
18449166942
18449172618
18449181773
18449189952
18449198009
18449205455
18449214183
18449220103
18449226878
18449232921
18449240611
18449246226
18449252879
18449260020
18449266246
18449271922
18449279002
18449284739
18449292186
18449297313
18449303904
18449310801
18449317698
18449322276
18449329356
18449335215
18449343028
18449350291
18449356028
18449361155
18449366893
18449373484
18449379161
18449386363
18449393809
18449399974
18449405467
18449411326
18449418162
18449424021
18449431101
18449437388
18449442210
18449448191
18449455027
18449461680
18449466196
18449473399
18449481028
18449487620
18449492991
18449500254
18449505320
18449511118
18449518259
18449523997
18449532297
18449539377
18449544871
18449551645
18449556406
18449563181
18449569101
18449575327
18449583567
18449588511
18449595347
18449599863
18449607309
18449614267
18449620188
18449628794
18449635752
18449642282
18449649301
18449656565
18449663950
18449671213
18449678232
18449685984
18449693430
18449699350
18449706308
18449714792
18449721567
18449727915
18449734873
18449740854
18449748972
18449757700
18449764536
18449770456
18449777902
18449784433
18449797006
18449805002
18449812143
18449822458
18449830209
18449840402
18449847055
18449857614
18449865426
18449875009
18449881112
18449890024
18449895211
18449904367
18449911020
18449920297
18449928964
18449934884
18449943185
18449948678
18449955026
18449961251
18449970162
18449978036
18449984811
18449988229
18449997262
18450000436
18450008370
18450014169
18450019296
18450025338
18450032479
18450036508
18450043099
18450047250
18450053414
18450060494
18450065011
18450072274
18450078500
18450084359
18450090096
18450095467
18450100472
18450107430
18450113656
18450119271
18450126046
18450132210
18450137643
18450143685
18450148751
18450154793
18450161690
18450167306
18450171944
18450178536
18450183358
18450188546
18450195565
18450201790
18450206490
18450214730
18450220711
18450225777
18450230782
18450237374
18450244393
18450249092
18450254769
18450259835
18450265084
18450270577
18450276741
18450282723
18450287300
18450291695
18450297310
18450303108
18450308785
18450313545
18450319954
18450326058
18450330452
18450336495
18450341377
18450347908
18450352669
18450358772
18450363777
18450370796
18450376900
18450382576
18450387886
18450395271
18450404060
18450412849
18450419685
18450426094
18450433906
18450441536
18450448189
18450456062
18450463630
18450469612
18450476692
18450484443
18450490852
18450496589
18450504707
18450512336
18450519966
18450526435
18450533943
18450541755
18450548225
18450555305
18450561714
18450567634
18450575019
18450582405
18450589424
18450596504
18450604072
18450610603
18450617561
18450623298
18450628425
18450635627
18450642402
18450647956
18450654609
18450662360
18450667548
18450674079
18450679633
18450687019
18450692756
18450701362
18450709785
18450715644
18450722602
18450728705
18450734809
18450740119
18450746284
18450753242
18450758307
18450765021
18450769965
18450777533
18450784858
18450791755
18450797736
18450804511
18450811408
18450817878
18450824958
18450830329
18450838202
18450844916
18450852545
18450859992
18450866034
18450872870
18450878424
18450886359
18450892890
18450900702
18450907172
18450919135
18450926642
18450933783
18450940375
18450948248
18450956671
18450962836
18450970587
18450979193
18450985052
18450992682
18450997687
18451005255
18451010931
18451018072
18451025824
18451033087
18451038580
18451045111
18451052069
18451057196
18451064703
18451070196
18451079352
18451085272
18451091436
18451099310
18451106146
18451112005
18451119818
18451127325
18451133001
18451141729
18451148870
18451157171
18451163336
18451172735
18451180792
18451186956
18451195928
18451201666
18451210638
18451218023
18451226446
18451231939
18451238897
18451244939
18451250799
18451259100
18451266119
18451276495
18451282537
18451291143
18451296453
18451305120
18451311162
18451317266
18451326238
18451332036
18451341802
18451349309
18451356084
18451363897
18451371892
18451380620
18451389837
18451398198
18451405645
18451415715
18451422918
18451431585
18451439824
18451447454
18451455205
18451464482
18451474126
18451482366
18451491460
18451501409
18451509343
18451520390
18451526433
18451535222
18451544682
18451551518
18451561650
18451570073
18451577641
18451584416
18451592107
18451599980
18451607365
18451614079
18451621281
18451627507
18451633610
18451638249
18451647465
18451653691
18451659672
18451664555
18451671635
18451677311
18451684880
18451690312
18451696293
18451702763
18451709965
18451715763
18451721623
18451729374
18451736027
18451740910
18451749577
18451756230
18451761845
18451767460
18451774296
18451780827
18451785771
18451792301
18451798710
18451803593
18451809391
18451815861
18451821842
18451828068
18451832401
18451839237
18451845097
18451851200
18451856510
18451862370
18451868107
18451873905
18451878544
18451885014
18451891727
18451897526
18451901554
18451908756
18451913944
18451920292
18451924686
18451931400
18451936832
18451942753
18451949039
18451955021
18451959903
18451965519
18451971622
18451977176
18451985233
18451992435
18451997989
18452005069
18452012272
18452018558
18452027896
18452033695
18452041385
18452046817
18452054203
18452060306
18452068057
18452074344
18452081668
18452087894
18452094486
18452101627
18452110538
18452119693
18452126529
18452134280
18452139163
18452147464
18452155460
18452164310
18452174014
18452179935
18452187259
18452193484
18452200626
18452207828
18452214725
18452221255
18452227115
18452234744
18452240909
18452245913
18452252383
18452257815
18452265445
18452272647
18452278018
18452284121
18452291140
18452297244
18452303714
18452309756
18452317324
18452322757
18452329165
18452337039
18452342105
18452349368
18452357669
18452363467
18452370791
18452377200
18452383242
18452390139
18452395449
18452404238
18452411318
18452419863
18452426638
18452432497
18452438906
18452447573
18452454043
18452461855
18452468508
18452474184
18452482973
18452489443
18452495974
18452504397
18452509890
18452517092
18452523379
18452531557
18452537295
18452543093
18452550356
18452555971
18452563295
18452570742
18452578737
18452584902
18452591982
18452599306
18452605104
18452612185
18452620913
18452628359
18452636232
18452642702
18452648744
18452656252
18452661684
18452670595
18452678224
18452685304
18452694399
18452700685
18452709779
18452718019
18452723390
18452731020
18452748781
18452754213
18452762331
18452769533
18452776552
18452784059
18452789430
18452797731
18452803773
18452811342
18452820192
18452825929
18452834474
18452840211
18452849550
18452855897
18452864930
18452870851
18452877321
18452884950
18452894166
18452901490
18452907472
18452916200
18452925172
18452934266
18452942750
18452950807
18452959779
18452966493
18452973023
18452983277
18452989259
18452998109
18453005677
18453013001
18453020448
18453028443
18453036195
18453043824
18453050660
18453058472
18453066468
18453073060
18453080506
18453088929
18453097962
18453105164
18453114014
18453121216
18453127259
18453133607
18453141907
18453148682
18453155030
18453161133
18453165528
18453172486
18453180298
18453186402
18453192749
18453197998
18453204895
18453211426
18453218994
18453224549
18453229431
18453237488
18453243286
18453250489
18453255677
18453262818
18453270386
18453276489
18453282715
18453287110
18453293823
18453300415
18453308777
18453313721
18453320801
18453327332
18453333557
18453341248
18453346558
18453353394
18453363647
18453367737
18453374268
18453380493
18453387085
18453392944
18453397461
18453402954
18453409546
18453414673
18453421264
18453426819
18453433166
18453439270
18453445373
18453451721
18453458313
18453464966
18453469970
18453476806
18453485840
18453492431
18453498840
18453503723
18453510559
18453517089
18453523498
18453528503
18453533386
18453539428
18453545349
18453552551
18453558776
18453565551
18453574645
18453579528
18453585937
18453594543
18453602111
18453608703
18453614929
18453621764
18453627502
18453635497
18453641967
18453651061
18453657165
18453663879
18453671935
18453679565
18453686523
18453691772
18453700805
18453704345
18453713805
18453719970
18453727477
18453733031
18453740600
18453747252
18453754149
18453760375
18453767028
18453774657
18453781371
18453788573
18453795409
18453801879
18453808165
18453814574
18453822448
18453828063
18453834899
18453844054
18453850768
18453857360
18453865538
18453873473
18453881468
18453888609
18453895323
18453903685
18453908507
18453916441
18453922728
18453930785
18453937315
18453943846
18453950011
18453956602
18453962950
18453971007
18453977049
18453983397
18453988951
18453995177
18454002379
18454010008
18454018004
18454023985
18454029539
18454035399
18454041685
18454048216
18454056212
18454062742
18454069578
18454075071
18454082518
18454087339
18454094481
18454099546
18454107176
18454114317
18454120542
18454127134
18454133055
18454138548
18454145811
18454150755
18454159178
18454165220
18454172056
18454178037
18454182920
18454189146
18454196470
18454202451
18454207639
18454215208
18454223142
18454229856
18454235899
18454243955
18454250547
18454258176
18454266721
18454272947
18454281003
18454286314
18454292173
18454299741
18454307004
18454312314
18454319944
18454326841
18454333310
18454340574
18454347043
18454353818
18454360959
18454369565
18454376157
18454382627
18454391660
18454397092
18454405881
18454411863
18454420468
18454427243
18454433957
18454441709
18454448545
18454453916
18454463742
18454474668
18454483396
18454489987
18454500058
18454508908
18454515500
18454526120
18454536496
18454548459
18454554929
18454560910
18454566952
18454574643
18454582516
18454588315
18454597226
18454604489
18454612485
18454618161
18454624753
18454631161
18454640378
18454647885
18454655331
18454662594
18454669674
18454676510
18454685116
18454691464
18454700070
18454705624
18454713986
18454719662
18454726620
18454732907
18454739804
18454746151
18454752743
18454758602
18454763851
18454770931
18454776364
18454782894
18454787472
18454794918
18454800472
18454805721
18454815243
18454821224
18454826351
18454831539
18454839230
18454844662
18454851192
18454858456
18454864742
18454870724
18454877865
18454883785
18454889095
18454895870
18454903255
18454908504
18454915890
18454920772
18454926571
18454933590
18454939571
18454945858
18454952816
18454957638
18454963802
18454969417
18454974361
18454981380
18454987606
18454992794
18454997615
18455004573
18455009334
18455016170
18455022151
18455028499
18455034297
18455040279
18455045406
18455051509
18455057430
18455062740
18455067928
18455075923
18455084224
18455090999
18455100887
18455107906
18455114436
18455120540
18455126765
18455133601
18455140132
18455145442
18455154109
18455160152
18455165584
18455170528
18455178157
18455184199
18455192134
18455196406
18455202693
18455209651
18455215510
18455220942
18455227412
18455234858
18455240230
18455247310
18455253657
18455258296
18455265010
18455271846
18455278010
18455284358
18455290522
18455296748
18455302974
18455309870
18455315364
18455322139
18455330073
18455336543
18455342829
18455348750
18455355036
18455361201
18455367793
18455374568
18455382075
18455387995
18455395930
18455402094
18455408015
18455415156
18455420893
18455428156
18455434687
18455439875
18455446650
18455453303
18455459223
18455464960
18455472773
18455478815
18455486262
18455492792
18455499079
18455504877
18455512385
18455519221
18455524164
18455531550
18455536432
18455543879
18455550959
18455556940
18455562067
18455569880
18455575800
18455583185
18455588923
18455594477
18455600580
18455607660
18455613459
18455620966
18455627314
18455633722
18455639887
18455646723
18455653986
18455666681
18455674188
18455679804
18455688898
18455697321
18455705377
18455711298
18455717645
18455727045
18455734979
18455739679
18455747491
18455754999
18455760065
18455767572
18455774530
18455781915
18455787530
18455794610
18455799859
18455806695
18455811395
18455818841
18455826043
18455833063
18455839227
18455845086
18455851190
18455857843
18455863763
18455871087
18455877374
18455882989
18455890863
18455897454
18455903680
18455911065
18455919793
18455926080
18455931268
18455938348
18455945306
18455953424
18455960015
18455966973
18455974053
18455981317
18455989434
18455996636
18456002557
18456010125
18456017510
18456024834
18456031976
18456038506
18456044854
18456053338
18456059808
18456067437
18456076531
18456087090
18456093499
18456101494
18456111199
18456117241
18456126580
18456132378
18456140923
18456146477
18456159539
18456168755
18456176995
18456185234
18456196221
18456204216
18456211602
18456218865
18456225334
18456231499
18456238213
18456245598
18456251396
18456258904
18456266655
18456273491
18456280449
18456287651
18456294487
18456301323
18456307915
18456315056
18456321770
18456328911
18456336418
18456343925
18456348747
18456356255
18456363762
18456370048
18456378105
18456384697
18456391350
18456399162
18456405388
18456412590
18456418571
18456423271
18456430290
18456436882
18456442924
18456449638
18456455620
18456461845
18456469780
18456474907
18456480827
18456486564
18456494072
18456499992
18456507865
18456513908
18456520134
18456524894
18456530937
18456537223
18456541496
18456548942
18456554130
18456560844
18456565299
18456572074
18456577079
18456583183
18456588737
18456593986
18456601310
18456605705
18456613334
18456617728
18456623588
18456629447
18456635734
18456642448
18456647391
18456652946
18456658927
18456663444
18456669547
18456676200
18456683768
18456689323
18456695426
18456702262
18456707023
18456713187
18456718436
18456725211
18456731620
18456736014
18456742057
18456748832
18456754264
18456760550
18456767752
18456773856
18456780814
18456785636
18456791861
18456798392
18456805167
18456810721
18456817740
18456823355
18456830069
18456836905
18456843314
18456849845
18456855765
18456861746
18456869193
18456873953
18456882010
18456887686
18456895255
18456903067
18456912772
18456922110
18456932364
18456940421
18456947134
18456956839
18456964346
18456976126
18456986075
18456997183
18457008902
18457020376
18457028799
18457038138
18457048452
18457057913
18457065725
18457076040
18457085989
18457096243
18457105886
18457117239
18457126699
18457136892
18457147329
18457158071
18457170400
18457180837
18457192617
18457204153
18457215200
18457226492
18457235464
18457245229
18457255971
18457265188
18457275136
18457285879
18457294485
18457304006
18457313955
18457324819
18457333425
18457346792
18457356435
18457364980
18457376760
18457386586
18457394887
18457405385
18457415761
18457422780
18457435781
18457443288
18457454152
18457464345
18457474904
18457484609
18457494130
18457502797
18457512624
18457523671
18457533681
18457544057
18457551808
18457561879
18457570851
18457582997
18457591542
18457600880
18457612294
18457622365
18457632679
18457640187
18457650441
18457661488
18457668385
18457680897
18457689442
18457697316
18457705006
18457713246
18457722706
18457730213
18457737049
18457747303
18457754566
18457764698
18457772328
18457782398
18457791248
18457797840
18457807789
18457815968
18457826954
18457835987
18457844959
18457854053
18457863209
18457872913
18457884754
18457896168
18457904651
18457913746
18457922657
18457933033
18457942554
18457951648
18457961963
18457972156
18457982044
18457991138
18458001087
18458009754
18458020069
18458029407
18458039356
18458049549
18458059009
18458067859
18458076648
18458087390
18458095874
18458105884
18458117419
18458127185
18458135791
18458145129
18458155994
18458163928
18458175220
18458183093
18458193530
18458204089
18458214526
18458226184
18458235705
18458246570
18458255847
18458263903
18458274035
18458284411
18458293505
18458306262
18458315905
18458324999
18458336901
18458346240
18458356127
18458366747
18458373705
18458385546
18458395007
18458403552
18458414538
18458422594
18458432787
18458442919
18458453417
18458462389
18458470934
18458480517
18458491198
18458499560
18458509508
18458520617
18458527331
18458535936
18458540880
18458549669
18458557604
18458565966
18458571520
18458578600
18458584215
18458591234
18458596422
18458602098
18458610887
18458618029
18458625414
18458631395
18458640673
18458645799
18458653124
18458661485
18458670702
18458675523
18458683458
18458688829
18458695604
18458700365
18458707445
18458712999
18458719469
18458726183
18458730882
18458737840
18458743150
18458750230
18458756456
18458762743
18458769090
18458773729
18458781175
18458787889
18458793626
18458799180
18458805955
18458811509
18458816575
18458823594
18458828843
18458834886
18458841966
18458848741
18458854417
18458860093
18458866746
18458872667
18458878526
18458884263
18458892198
18458897813
18458904161
18458910325
18458917649
18458924607
18458930528
18458935838
18458943650
18458948655
18458956223
18458960557
18458968980
18458974595
18458981980
18458988572
18458995713
18459002061
18459009751
18459016648
18459024094
18459030320
18459035447
18459044663
18459050461
18459057175
18459064866
18459072373
18459078965
18459087205
18459094773
18459101914
18459108750
18459113755
18459122483
18459127610
18459135361
18459143296
18459150071
18459155503
18459163498
18459168808
18459176377
18459183640
18459190293
18459197800
18459205551
18459210068
18459217942
18459223191
18459232773
18459238205
18459246994
18459254440
18459262253
18459269638
18459276596
18459283615
18459289108
18459297409
18459304611
18459312790
18459319138
18459325973
18459333359
18459340012
18459347519
18459354233
18459360214
18459368515
18459374435
18459382736
18459388412
18459396225
18459402511
18459408371
18459416183
18459421921
18459428817
18459434799
18459442062
18459449814
18459456100
18459464340
18459472030
18459477401
18459483810
18459491561
18459497482
18459505172
18459512741
18459518173
18459527328
18459532455
18459540817
18459545761
18459552413
18459559921
18459566268
18459573715
18459580550
18459587936
18459594894
18459601974
18459609481
18459615096
18459624984
18459632247
18459639449
18459644820
18459656478
18459661849
18459670089
18459677352
18459685836
18459691451
18459700973
18459707747
18459714217
18459721419
18459728499
18459735213
18459743026
18459750045
18459756453
18459764693
18459770797
18459777144
18459784529
18459793929
18459799666
18459809371
18459815596
18459824324
18459834395
18459840071
18459847151
18459858199
18459866377
18459874251
18459883162
18459889449
18459898055
18459907454
18459913252
18459931197
18459938643
18459944929
18459955427
18459961348
18459972456
18459978926
18459988997
18459999190
18460006086
18460016829
18460022322
18460030867
18460036787
18460043928
18460052656
18460058699
18460067671
18460076338
18460083540
18460091169
18460098738
18460107099
18460116682
18460125471
18460132185
18460140302
18460146772
18460155744
18460162275
18460167707
18460175764
18460181684
18460189436
18460195112
18460202375
18460208479
18460215681
18460222578
18460229963
18460235822
18460240583
18460247541
18460252241
18460259626
18460266645
18460272565
18460279645
18460286176
18460292280
18460298749
18460303937
18460313215
18460319257
18460325788
18460332746
18460338666
18460344281
18460351789
18460357465
18460364850
18460371442
18460377301
18460384320
18460389814
18460396222
18460403485
18460409101
18460416120
18460421735
18460428021
18460435407
18460441510
18460447431
18460453839
18460459332
18460464581
18460471295
18460476849
18460483685
18460489301
18460496503
18460501569
18460507489
18460512921
18460520245
18460525677
18460531659
18460538312
18460544049
18460549908
18460555279
18460560834
18460568158
18460574017
18460579754
18460585675
18460592328
18460598431
18460606305
18460615033
18460622113
18460628216
18460633893
18460641949
18460647320
18460655377
18460660748
18460667889
18460674115
18460681317
18460686749
18460693341
18460699810
18460706524
18460714154
18460720257
18460725994
18460732464
18460738751
18460745892
18460752117
18460758343
18460764507
18460771893
18460778606
18460785992
18460792706
18460798504
18460806805
18460814251
18460819866
18460826946
18460832561
18460839641
18460845196
18460852154
18460859539
18460865520
18460872661
18460879375
18460884380
18460890972
18460898296
18460905559
18460911175
18460920391
18460925701
18460931926
18460939617
18460947307
18460952556
18460959941
18460968425
18460974590
18460980388
18460988384
18460994487
18461000652
18461007122
18461015178
18461022136
18461029155
18461034465
18461039897
18461048503
18461055217
18461061199
18461069011
18461077007
18461083110
18461088603
18461094096
18461105571
18461114299
18461122844
18461130595
18461139079
18461144450
18461152812
18461161418
18461168376
18461175883
18461182048
18461188334
18461194682
18461201579
18461209025
18461216350
18461224833
18461231852
18461241130
18461247844
18461255717
18461261088
18461269084
18461275614
18461284037
18461290629
18461298869
18461306193
18461313883
18461320109
18461327067
18461333293
18461340006
18461346171
18461352213
18461358500
18461365580
18461371867
18461379191
18461385539
18461394205
18461400492
18461408305
18461414530
18461421183
18461429545
18461436808
18461442667
18461449686
18461457133
18461462870
18461470255
18461477091
18461485453
18461491678
18461500590
18461507303
18461516337
18461522684
18461531595
18461538797
18461545633
18461553629
18461561747
18461567118
18461574991
18461583170
18461588602
18461595560
18461603556
18461608744
18461616556
18461623453
18461631449
18461638834
18461644266
18461652872
18461658243
18461665506
18461675089
18461680887
18461690530
18461699380
18461706888
18461712442
18461723367
18461730814
18461739053
18461747720
18461755716
18461760293
18461770181
18461777261
18461787088
18461793680
18461800882
18461812112
18461820413
18461826883
18461834817
18461844827
18461851785
18461860330
18461868325
18461874734
18461883523
18461888345
18461897012
18461903909
18461910623
18461916848
18461924356
18461932595
18461937966
18461943643
18461950417
18461957864
18461963662
18461971963
18461977639
18461987466
18461994546
18462002114
18462008034
18462016946
18462022683
18462030923
18462037209
18462044594
18462050027
18462057534
18462063698
18462071145
18462078835
18462086159
18462092202
18462098427
18462104653
18462111367
18462117592
18462124367
18462130654
18462138588
18462144692
18462151406
18462156899
18462161904
18462169167
18462175331
18462180764
18462187599
18462192482
18462198769
18462205055
18462209877
18462216103
18462222695
18462227394
18462234596
18462240700
18462246132
18462252785
18462258217
18462263954
18462270973
18462276894
18462283302
18462288612
18462294899
18462301857
18462306068
18462313942
18462320900
18462325783
18462331886
18462336891
18462345131
18462348671
18462357216
18462364662
18462369972
18462375831
18462382362
18462389015
18462395363
18462401222
18462408058
18462415382
18462421669
18462428138
18462434059
18462439064
18462446937
18462454322
18462460426
18462466102
18462473609
18462480384
18462488136
18462493690
18462501258
18462508033
18462514991
18462523475
18462528541
18462539893
18462546607
18462554420
18462566810
18462572852
18462581214
18462588966
18462594459
18462603370
18462614234
18462621070
18462632423
18462639136
18462645301
18462651221
18462659522
18462666480
18462672217
18462678626
18462685828
18462691810
18462699073
18462704932
18462710547
18462717261
18462724463
18462731482
18462736487
18462742713
18462750098
18462756018
18462764441
18462770911
18462775977
18462784033
18462791907
18462798682
18462805396
18462812354
18462820044
18462826880
18462834937
18462841712
18462847388
18462855444
18462860571
18462868628
18462875708
18462881384
18462888098
18462895422
18462902441
18462908484
18462914648
18462922034
18462929114
18462936865
18462943701
18462950659
18462957007
18462963721
18462969641
18462976782
18462984656
18462990393
18462997534
18463002112
18463009680
18463016333
18463025183
18463031897
18463038794
18463045996
18463054663
18463061315
18463067785
18463077185
18463083959
18463092565
18463099218
18463107702
18463116308
18463121862
18463128637
18463137975
18463144689
18463152746
18463159155
18463164526
18463173437
18463180090
18463189611
18463196874
18463203161
18463211950
18463218114
18463225683
18463236608
18463244665
18463251745
18463263036
18463268896
18463278234
18463286596
18463294286
18463302892
18463310155
18463316320
18463324620
18463332799
18463339635
18463346776
18463354161
18463362340
18463369298
18463376256
18463384862
18463393285
18463400609
18463408177
18463415013
18463421605
18463428624
18463434178
18463442662
18463448155
18463456090
18463464208
18463472386
18463479222
18463489049
18463496373
18463504308
18463513768
18463520970
18463529027
18463536290
18463544408
18463551427
18463562352
18463570042
18463578465
18463585362
18463593419
18463599888
18463608738
18463615818
18463622960
18463631443
18463638585
18463643834
18463651463
18463655857
18463662083
18463668980
18463675389
18463682408
18463691502
18463698155
18463703709
18463710240
18463716709
18463722325
18463729893
18463735935
18463743321
18463749485
18463754490
18463760410
18463766636
18463772495
18463779453
18463785435
18463792149
18463798130
18463804722
18463810642
18463816563
18463824497
18463831333
18463838230
18463845066
18463849949
18463857212
18463863865
18463870395
18463877720
18463885410
18463890415
18463895908
18463902073
18463907871
18463913974
18463920871
18463932163
18463938755
18463946140
18463952549
18463958652
18463966281
18463975742
18463982822
18463989047
18463994724
18464001560
18464007663
18464014316
18464019626
18464025852
18464031162
18464037875
18464044589
18464050632
18464056003
18464062473
18464068027
18464074435
18464080661
18464087619
18464093784
18464100009
18464105624
18464112826
18464118014
18464124728
18464131442
18464136630
18464143344
18464148959
18464156100
18464163791
18464169772
18464175387
18464181491
18464187472
18464195834
18464203524
18464211398
18464217624
18464223605
18464231417
18464236300
18464244296
18464250949
18464256686
18464263278
18464270907
18464276828
18464284701
18464291598
18464299471
18464307101
18464315341
18464322299
18464329928
18464336825
18464344759
18464351595
18464358492
18464365389
18464373019
18464379794
18464386935
18464393649
18464400423
18464407259
18464413180
18464421236
18464426668
18464434359
18464441134
18464446932
18464454378
18464460238
18464466036
18464474093
18464480623
18464488375
18464493929
18464501314
18464506990
18464515291
18464521029
18464529390
18464535555
18464541475
18464548922
18464556063
18464562471
18464571810
18464580110
18464586458
18464594210
18464604585
18464612825
18464623079
18464645662
18464659212
18464666841
18464676851
18464685396
18464694551
18464703828
18464714937
18464724641
18464731294
18464737642
18464744722
18464750703
18464757295
18464763276
18464769990
18464776399
18464782991
18464789705
18464795381
18464802034
18464809480
18464818696
18464824739
18464831086
18464838899
18464844148
18464851777
18464856965
18464865022
18464871247
18464878205
18464885407
18464891877
18464897859
18464904756
18464910676
18464919221
18464924897
18464931367
18464938325
18464944001
18464951081
18464958649
18464966340
18464973603
18464981477
18464988129
18464994721
18465001740
18465008637
18465017365
18465022187
18465032563
18465039399
18465046418
18465053498
18465061127
18465066437
18465075409
18465082306
18465090302
18465096772
18465104706
18465110871
18465116974
18465124115
18465132904
18465139984
18465148896
18465154206
18465163300
18465170746
18465180084
18465186371
18465193329
18465201447
18465208893
18465216889
18465224945
18465231842
18465241425
18465248077
18465255890
18465264618
18465270416
18465280060
18465288666
18465294952
18465304108
18465312897
18465321442
18465330292
18465338409
18465344635
18465351776
18465359772
18465366180
18465372345
18465378326
18465385223
18465391693
18465396881
18465404327
18465409698
18465416046
18465423126
18465429290
18465436493
18465442840
18465449127
18465455474
18465462738
18465469268
18465475616
18465483673
18465489898
18465497894
18465503570
18465510040
18465515838
18465524017
18465530181
18465538238
18465544036
18465551360
18465557708
18465563689
18465570159
18465577422
18465583099
18465590850
18465597198
18465604095
18465611541
18465616363
18465623199
18465629851
18465635772
18465641204
18465648040
18465654204
18465660125
18465665679
18465672454
18465677764
18465685027
18465691497
18465696441
18465702422
18465708587
18465713225
18465719451
18465727446
18465733916
18465739409
18465744963
18465752288
18465757354
18465764250
18465770110
18465776763
18465782073
18465788481
18465794280
18465800627
18465805815
18465810698
18465819365
18465826323
18465832610
18465838286
18465845854
18465851103
18465857024
18465863066
18465870024
18465876738
18465883635
18465889494
18465897490
18465904997
18465911162
18465923613
18465929106
18465937041
18465943815
18465951628
18465959074
18465965117
18465973112
18465980803
18465986967
18465992704
18465998930
18466006193
18466012358
18466020353
18466027067
18466032927
18466041227
18466047392
18466054289
18466061491
18466068327
18466076078
18466082548
18466089079
18466095548
18466103300
18466109281
18466116667
18466125211
18466131986
18466138334
18466145109
18466152799
18466159757
18466165922
18466173795
18466182401
18466188871
18466194181
18466202543
18466208097
18466216215
18466225187
18466232023
18466239042
18466245878
18466252530
18466259366
18466267179
18466273954
18466281400
18466288297
18466294156
18466302518
18466307950
18466315946
18466323270
18466329190
18466336820
18466342923
18466349637
18466357389
18466363858
18466371366
18466378079
18466384183
18466392179
18466400784
18466407193
18466413968
18466420194
18466426785
18466433072
18466438626
18466447232
18466452420
18466459378
18466466702
18466473599
18466481839
18466488980
18466495694
18466501553
18466509366
18466515652
18466521878
18466529874
18466535428
18466541897
18466549038
18466555874
18466563199
18466572476
