18378992622
18378999397
18379006660
18379012825
18379018257
18379022895
18379029243
18379034980
18379040290
18379045783
18379050971
18379056404
18379062141
18379067207
18379073066
18379079658
18379085151
18379088630
18379096565
18379102302
18379107612
18379114387
18379120124
18379128852
18379134406
18379140266
18379146735
18379152045
18379159492
18379165290
18379174750
18379180488
18379188300
18379194892
18379200751
18379208991
18379218574
18379224860
18379232306
18379238532
18379245002
18379252448
18379261847
18379267280
18379275031
18379282416
18379290656
18379294989
18379304145
18379311896
18379318244
18379325141
18379330817
18379339057
18379344611
18379352790
18379357306
18379367926
18379374884
18379380072
18379388373
18379394904
18379402411
18379409247
18379417670
18379423041
18379430426
18379438178
18379443610
18379451239
18379458380
18379467352
18379474982
18379482855
18379488714
18379495734
18379503241
18379510809
18379519537
18379525091
18379533087
18379539374
18379546698
18379558905
18379568182
18379581976
18379593878
18379607244
18379615911
18379625616
18379632940
18379640875
18379646917
18379656500
18379663153
18379669378
18379675176
18379684942
18379692999
18379700323
18379708074
18379716741
18379724493
18379735174
18379742620
18379750738
18379758672
18379766485
18379775945
18379784063
18379793584
18379801275
18379808355
18379813299
18379822698
18379830999
18379839666
18379848089
18379856328
18379863836
18379870916
18379878911
18379885930
18379894414
18379901921
18379908391
18379917180
18379923528
18379932561
18379940312
18379946416
18379955815
18379965520
18379971013
18379983220
18379992436
18380002141
18380010686
18380018010
18380025395
18380034428
18380040715
18380050114
18380056035
18380065312
18380073796
18380081914
18380089238
18380095402
18380103276
18380110112
18380120976
18380130314
18380138005
18380146489
18380153019
18380160038
18380167057
18380175114
18380183049
18380191410
18380201115
18380205754
18380216008
18380223698
18380230229
18380239506
18380250431
18380261051
18380271549
18380283756
18380297550
18380308170
18380316105
18380324406
18380330997
18380338383
18380348087
18380354435
18380362797
18380370487
18380377506
18380385502
18380391422
18380400150
18380408451
18380414493
18380422184
18380429020
18380434879
18380443546
18380453495
18380459781
18380467655
18380474979
18380482364
18380487674
18380495365
18380501712
18380509403
18380516300
18380554996
18380563846
18380573612
18380579349
18380587772
18380601505
18380610294
18380616275
18380623843
18380631839
18380640323
18380646732
18380655093
18380659549
18380669803
18380676517
18380684451
18380692264
18380698611
18380708194
18380716250
18380725528
18380733890
18380740848
18380750247
18380759036
18380767276
18380772891
18380781863
18380789553
18380800540
18380806765
18380817202
18380824343
18380833743
18380841433
18380849124
18380858157
18380865908
18380873232
18380881533
18380889712
18380897952
18380904177
18380912539
18380921084
18380929873
18380938235
18380946108
18380955141
18380963076
18380971194
18380979006
18380987368
18380996645
18381003847
18381012392
18381019106
18381026491
18381033938
18381041445
18381049563
18381056704
18381066225
18381074404
18381081789
18381088625
18381097231
18381105898
18381113161
18381120790
18381129213
18381137636
18381144655
18381152529
18381158144
18381166323
18381172304
18381181276
18381189333
18381197878
18381206300
18381212221
18381223268
18381231691
18381239381
18381247865
18381253908
18381263856
18381271547
18381278688
18381288331
18381296571
18381305665
18381309938
18381320619
18381328492
18381336000
18381344362
18381351381
18381363038
18381370607
18381376954
18381385255
18381392518
18381399232
18381404359
18381411744
18381418214
18381424134
18381427613
18381436769
18381440736
18381449281
18381456727
18381463075
18381468690
18381476441
18381483949
18381490785
18381496827
18381501466
18381508363
18381514771
18381520387
18381526917
18381532838
18381538148
18381547242
18381551270
18381558594
18381565186
18381571168
18381578126
18381584595
18381591126
18381597535
18381603638
18381609986
18381615906
18381622376
18381628113
18381635438
18381641724
18381649109
18381655884
18381661316
18381667969
18381673523
18381682312
18381688355
18381694825
18381698426
18381705933
18381710999
18381718750
18381722412
18381732544
18381738648
18381744690
18381750427
18381756531
18381762634
18381768738
18381774475
18381781372
18381788635
18381795166
18381802246
18381807312
18381814331
18381820801
18381828125
18381836243
18381843262
18381849243
18381855835
18381864136
18381869446
18381877319
18381884643
18381892029
18381899048
18381905151
18381912475
18381918091
18381925598
18381933349
18381942199
18381950866
18381956909
18381964660
18381971069
18381978454
18381984497
18381991821
18381996032
18382006958
18382014587
18382021667
18382028991
18382036621
18382043029
18382050353
18382055053
18382066100
18382073608
18382081481
18382085937
18382094848
18382101806
18382108642
18382115112
18382124572
18382133727
18382139098
18382146239
18382153930
18382158813
18382169311
18382176574
18382185241
18382192687
18382199096
18382207580
18382213500
18382221740
18382229430
18382235473
18382245177
18382254027
18382261412
18382268065
18382276000
18382282103
18382290099
18382297545
18382304564
18382315856
18382321349
18382331298
18382338378
18382345519
18382354796
18382362303
18382368163
18382378233
18382385069
18382393736
18382401671
18382409056
18382417418
18382424254
18382432555
18382439696
18382448241
18382455870
18382464293
18382471129
18382479063
18382483824
18382494322
18382502073
18382511961
18382517149
18382527403
18382532164
18382541685
18382549131
18382556456
18382563047
18382571714
18382578245
18382587889
18382593809
18382601866
18382608213
18382616880
18382622801
18382631163
18382639952
18382645140
18382654661
18382662229
18382668577
18382675779
18382684202
18382690427
18382697569
18382703733
18382711607
18382717588
18382724668
18382729917
18382735654
18382742429
18382749265
18382755674
18382761533
18382764829
18382772214
18382778135
18382784177
18382789731
18382798215
18382800352
18382809141
18382815732
18382820249
18382827268
18382833310
18382839841
18382846677
18382852109
18382856565
18382863950
18382868283
18382874631
18382881101
18382888669
18382894834
18382899839
18382906980
18382911435
18382916257
18382923032
18382927915
18382936276
18382942258
18382948117
18382954160
18382958615
18382964841
18382970456
18382976804
18382982968
18382988950
18382995114
18383000180
18383006101
18383011411
18383017941
18383023984
18383029782
18383037228
18383040585
18383047726
18383053464
18383060422
18383067258
18383073178
18383078427
18383083066
18383090146
18383094967
18383100644
18383105404
18383113156
18383119198
18383124447
18383129941
18383135251
18383141293
18383146847
18383152218
18383158627
18383165951
18383170651
18383176937
18383181698
18383188046
18383192685
18383202023
18383207089
18383212643
18383218930
18383224545
18383230099
18383236386
18383242977
18383250057
18383257504
18383264889
18383271237
18383276363
18383283627
18383288754
18383297421
18383304318
18383310970
18383314632
18383322811
18383328732
18383334896
18383340694
18383348629
18383355343
18383361507
18383367672
18383374142
18383380794
18383385799
18383393551
18383400814
18383407894
18383412594
18383419552
18383426449
18383432430
18383437374
18383445553
18383450863
18383458614
18383463741
18383469844
18383474849
18383482479
18383487545
18383494869
18383501094
18383507808
18383514644
18383520687
18383525814
18383531917
18383538265
18383544795
18383551570
18383558345
18383564754
18383571346
18383577876
18383584895
18383593440
18383601131
18383607600
18383613155
18383620357
18383626094
18383633418
18383640681
18383648677
18383654414
18383660518
18383665767
18383672969
18383678157
18383684932
18383690059
18383699458
18383707149
18383712336
18383719172
18383725886
18383732295
18383739009
18383746089
18383752986
18383759883
18383764766
18383771418
18383777766
18383785029
18383789851
18383796992
18383804255
18383810725
18383818476
18383826960
18383830683
18383839167
18383847346
18383854243
18383860835
18383867976
18383874506
18383881159
18383886530
18383893183
18383901057
18383909419
18383914973
18383922358
18383929255
18383937006
18383943049
18383950617
18383955378
18383966547
18383972834
18383980219
18383986384
18383993952
18384001887
18384007746
18384016779
18384024347
18384030817
18384038569
18384044611
18384051935
18384059443
18384067316
18384071650
18384080622
18384088922
18384094416
18384100763
18384110468
18384117426
18384122980
18384130365
18384139459
18384144220
18384154352
18384158624
18384168085
18384175104
18384184137
18384191034
18384201227
18384206354
18384215997
18384223505
18384232355
18384238702
18384246820
18384252801
18384262201
18384271417
18384278863
18384287103
18384294000
18384302484
18384309625
18384317804
18384322809
18384332940
18384338250
18384349359
18384354181
18384362909
18384370233
18384377374
18384382745
18384392816
18384400079
18384407403
18384413446
18384420281
18384425775
18384431878
18384437188
18384443780
18384449090
18384456658
18384462029
18384468743
18384474175
18384481011
18384486504
18384492852
18384498467
18384505975
18384510125
18384518365
18384522271
18384530755
18384534600
18384542962
18384549432
18384555840
18384559746
18384568535
18384572381
18384581170
18384585015
18384593499
18384596978
18384605156
18384608819
18384616326
18384622368
18384626885
18384633294
18384640068
18384644646
18384650689
18384656365
18384662285
18384667412
18384672783
18384678337
18384683953
18384689019
18384695183
18384701714
18384706291
18384713310
18384717278
18384724541
18384729729
18384735100
18384742058
18384747978
18384753166
18384759880
18384766045
18384770500
18384775322
18384781426
18384786552
18384791985
18384798027
18384803642
18384809380
18384815544
18384820244
18384826408
18384832878
18384837334
18384843864
18384848381
18384857048
18384862602
18384868950
18384874382
18384881462
18384886711
18384893486
18384899650
18384905815
18384909477
18384917717
18384921989
18384930107
18384936943
18384942070
18384949394
18384956901
18384961296
18384969841
18384973991
18384982963
18384987114
18384996086
18385000114
18385009635
18385016105
18385023185
18385029594
18385036430
18385042411
18385049491
18385056938
18385064262
18385070243
18385077018
18385082633
18385089347
18385095206
18385102103
18385110770
18385115775
18385121940
18385128776
18385133842
18385138724
18385145438
18385151725
18385159415
18385164237
18385171012
18385175773
18385182792
18385187980
18385195853
18385201163
18385209403
18385215262
18385221854
18385226981
18385233817
18385240897
18385247062
18385252555
18385261222
18385267020
18385274100
18385279654
18385287345
18385292960
18385300284
18385306204
18385314139
18385320426
18385326407
18385332572
18385339041
18385345511
18385351920
18385355521
18385365897
18385371817
18385377860
18385385062
18385389578
18385396170
18385402579
18385409415
18385416312
18385422537
18385429129
18385434500
18385441092
18385447195
18385452322
18385460623
18385466055
18385473807
18385481009
18385488028
18385495962
18385501333
18385509634
18385514578
18385522146
18385529837
18385536734
18385542593
18385549307
18385555349
18385564321
18385570547
18385580130
18385586660
18385596365
18385604544
18385613149
18385618093
18385626333
18385632681
18385642385
18385650381
18385658560
18385665579
18385671621
18385679067
18385686330
18385694143
18385702383
18385707021
18385716665
18385723318
18385730642
18385739431
18385747671
18385754201
18385762014
18385768850
18385777822
18385784414
18385792348
18385799245
18385810293
18385817983
18385824880
18385831594
18385839223
18385845571
18385853505
18385860585
18385870290
18385875173
18385882863
18385888661
18385896230
18385904347
18385910756
18385917592
18385926076
18385934316
18385942372
18385948598
18385955861
18385965260
18385972768
18385979054
18385987965
18385994618
18386004506
18386011281
18386020192
18386026845
18386034352
18386044484
18386052418
18386060597
18386068104
18386076649
18386083546
18386092030
18386098195
18386105458
18386111928
18386119252
18386123402
18386132313
18386136158
18386144825
18386148732
18386157826
18386163441
18386169911
18386176014
18386182545
18386188893
18386195484
18386201832
18386207386
18386215138
18386220692
18386227528
18386233509
18386239247
18386244862
18386252979
18386260792
18386266834
18386269459
18386278431
18386286060
18386291798
18386298695
18386303822
18386309803
18386315601
18386322498
18386326282
18386334034
18386340504
18386347034
18386353443
18386358631
18386365467
18386371448
18386377247
18386384327
18386389454
18386397083
18386401355
18386408497
18386414539
18386420582
18386427906
18386433033
18386439319
18386444996
18386452625
18386457813
18386464466
18386470874
18386476184
18386482593
18386488575
18386493824
18386498950
18386505725
18386510181
18386518970
18386525012
18386529346
18386535877
18386542346
18386547901
18386555042
18386562183
18386565967
18386573535
18386579517
18386585925
18386592517
18386598682
18386603442
18386608630
18386616138
18386622729
18386628406
18386635364
18386641650
18386647876
18386660266
18386667895
18386674914
18386680163
18386687304
18386691394
18386701587
18386707568
18386714953
18386721972
18386726550
18386735156
18386742297
18386749255
18386756762
18386760730
18386769152
18386774218
18386782824
18386790454
18386797351
18386804003
18386812487
18386817980
18386825427
18386832873
18386838671
18386846911
18386853381
18386859484
18386867175
18386873766
18386881030
18386888537
18386895983
18386902087
18386907824
18386914965
18386920885
18386928088
18386934557
18386940783
18386947253
18386954760
18386960802
18386967333
18386973376
18386980333
18386986376
18386994066
18387000841
18387007189
18387014086
18387019335
18387025927
18387032091
18387038561
18387047289
18387053575
18387060045
18387065844
18387073656
18387077562
18387085558
18387092394
18387099047
18387104845
18387110826
18387116625
18387121813
18387128771
18387136217
18387142687
18387148607
18387156236
18387163622
18387169481
18387177049
18387183336
18387190660
18387196458
18387202501
18387208421
18387215623
18387222520
18387229600
18387235521
18387242906
18387250963
18387257005
18387267381
18387272935
18387282579
18387288682
18387301194
18387309251
18387317369
18387326280
18387331285
18387341844
18387348863
18387358201
18387365525
18387372056
18387376329
18387388047
18387392808
18387404161
18387412217
18387417954
18387425523
18387431321
18387441453
18387449082
18387457139
18387464097
18387473191
18387480515
18387486924
18387492356
18387502305
18387507188
18387517686
18387526841
18387533860
18387542588
18387548875
18387556443
18387564194
18387570481
18387579819
18387586594
18387595322
18387603196
18387609910
18387618638
18387624314
18387633591
18387639511
18387652451
18387658371
18387668320
18387673630
18387684861
18387690354
18387698105
18387705063
18387714707
18387720139
18387730332
18387735764
18387743576
18387750046
18387757675
18387765244
18387771530
18387777206
18387781723
18387787582
18387793991
18387800888
18387807236
18387813034
18387818344
18387826401
18387830124
18387837875
18387843185
18387850693
18387857101
18387862533
18387869736
18387876083
18387882370
18387886398
18387893905
18387901230
18387907089
18387914291
18387919906
18387926986
18387934799
18387940963
18387947677
18387954635
18387960372
18387967819
18387973617
18387978683
18387984481
18387990402
18387999801
18388006271
18388011154
18388017867
18388024337
18388031112
18388037887
18388042465
18388049300
18388054855
18388061569
18388067245
18388072189
18388079635
18388086959
18388091537
18388098251
18388104781
18388111434
18388116805
18388122787
18388129684
18388135787
18388143477
18388148788
18388155807
18388162276
18388167464
18388174239
18388180587
18388185958
18388193526
18388199935
18388205855
18388212569
18388218551
18388224410
18388229232
18388237166
18388240706
18388250228
18388255721
18388261824
18388268599
18388273970
18388281478
18388288497
18388294966
18388302352
18388307784
18388314986
18388319380
18388331038
18388339156
18388344771
18388352644
18388356856
18388365523
18388369307
18388376814
18388380660
18388390791
18388398421
18388403242
18388409895
18388416731
18388423567
18388430891
18388436629
18388442061
18388450056
18388456099
18388464766
18388471663
18388477400
18388485029
18388491865
18388498396
18388503096
18388509382
18388516401
18388522383
18388527693
18388536909
18388540937
18388548750
18388555220
18388561567
18388568830
18388575605
18388581404
18388587507
18388595442
18388602156
18388607160
18388612409
18388620893
18388628828
18388635664
18388640669
18388647932
18388655378
18388660688
18388667829
18388673200
18388682783
18388689008
18388695966
18388703046
18388710187
18388716474
18388723676
18388731977
18388736677
18388745954
18388749982
18388758100
18388766034
18388772443
18388779706
18388785016
18388791791
18388799176
18388806562
18388811017
18388819684
18388826703
18388834089
18388839948
18388846662
18388854779
18388861737
18388868329
18388872663
18388881574
18388888837
18388895185
18388904889
18388913617
18388916913
18388927899
18388935712
18388941571
18388949811
18388956159
18388963666
18388970563
18388980511
18388987042
18388997052
18389004620
18389012311
18389018658
18389025983
18389033429
18389040082
18389048688
18389054913
18389062543
18389070477
18389077496
18389083905
18389091290
18389097638
18389106976
18389115582
18389121502
18389129193
18389136456
18389143109
18389148785
18389158306
18389164044
18389171246
18389179669
18389186810
18389195599
18389203594
18389210858
18389218731
18389225567
18389233135
18389239910
18389248760
18389254009
18389263287
18389268475
18389278973
18389284161
18389294048
18389301372
18389307659
18389315716
18389321636
18389330364
18389336895
18389344463
18389351665
18389358623
18389365886
18389372112
18389379131
18389387066
18389393535
18389401653
18389407818
18389415081
18389421184
18389427349
18389433757
18389439800
18389445842
18389452312
18389457012
18389462932
18389469768
18389476726
18389483745
18389489665
18389495891
18389502727
18389508098
18389514446
18389522014
18389528362
18389533489
18389540019
18389546367
18389552348
18389556438
18389566386
18389572612
18389578960
18389585246
18389590678
18389596965
18389602885
18389609782
18389616191
18389622905
18389628337
18389631816
18389640605
18389646281
18389651286
18389657756
18389663371
18389669169
18389674724
18389681132
18389687785
18389694072
18389700541
18389705973
18389713054
18389718242
18389724833
18389731181
18389737040
18389742656
18389749858
18389755412
18389761393
18389767436
18389773783
18389780802
18389785685
18389793070
18389799967
18389805461
18389811808
18389817790
18389823405
18389828288
18389835185
18389842204
18389848063
18389856547
18389861430
18389869181
18389875773
18389882548
18389889506
18389895121
18389903117
18389908793
18389915140
18389921976
18389930277
18389937052
18389944193
18389951212
18389958292
18389965189
18389969217
18389977823
18389985026
18389990152
18389997233
18390002482
18390010721
18390015665
18390023783
18390029093
18390035562
18390041605
18390049967
18390057108
18390063150
18390069925
18390076639
18390081827
18390088053
18390095682
18390099771
18390109354
18390115457
18390122537
18390128946
18390135233
18390141702
18390147562
18390155191
18390161722
18390168436
18390175211
18390181985
18390188272
18390193643
18390201578
18390205972
18390215005
18390222146
18390228067
18390236734
18390244790
18390250894
18390257120
18390264688
18390270669
18390275979
18390285013
18390291787
18390298440
18390305032
18390312478
18390319986
18390326944
18390333047
18390340249
18390347024
18390353189
18390360025
18390366799
18390373269
18390379556
18390385842
18390392495
18390398355
18390405007
18390412637
18390416604
18390425271
18390431313
18390437478
18390445351
18390450967
18390458657
18390465249
18390474465
18390477151
18390489297
18390497475
18390504861
18390509927
18390520669
18390527749
18390535805
18390544106
18390552102
18390560036
18390566872
18390575478
18390582131
18390590615
18390597329
18390604836
18390612099
18390619362
18390626320
18390635537
18390640725
18390650307
18390655495
18390664772
18390669899
18390678261
18390685280
18390693642
18390700600
18390709206
18390715920
18390722450
18390729225
18390738075
18390745216
18390751991
18390758461
18390769753
18390777565
18390786171
18390793434
18390801247
18390808510
18390816322
18390823707
18390832130
18390839882
18390847816
18390854347
18390861854
18390868446
18390877662
18390884620
18390894386
18390901466
18390909584
18390916298
18390921302
18390930763
18390938392
18390946083
18390952735
18390962257
18390968971
18390977088
18390983802
18390989723
18390997535
18391004005
18391009742
18391015785
18391022865
18391028785
18391034095
18391040687
18391046058
18391054054
18391059547
18391066627
18391072181
18391079566
18391083228
18391090308
18391093970
18391101417
18391106605
18391112708
18391117774
18391124915
18391128699
18391135474
18391141212
18391147254
18391153968
18391161414
18391167640
18391172645
18391179541
18391185889
18391191016
18391197425
18391204749
18391209693
18391216162
18391220801
18391227637
18391234412
18391240149
18391245337
18391252906
18391257239
18391263709
18391269019
18391276343
18391281714
18391288489
18391293677
18391300269
18391305701
18391311438
18391317969
18391323523
18391329871
18391335181
18391340857
18391347266
18391352637
18391358313
18391362952
18391368750
18391373755
18391378210
18391386145
18391389563
18391397314
18391402441
18391407751
18391413367
18391419409
18391425574
18391431433
18391438635
18391443335
18391449804
18391456335
18391462011
18391468359
18391476599
18391482519
18391488440
18391494604
18391500708
18391507238
18391513403
18391518835
18391525305
18391532446
18391537451
18391545751
18391553076
18391558752
18391565344
18391571142
18391578100
18391583776
18391589086
18391597570
18391602941
18391609594
18391614721
18391622472
18391626318
18391634741
18391640783
18391647558
18391654272
18391660864
18391668005
18391674718
18391680944
18391687292
18391694860
18391699804
18391706762
18391713659
18391720617
18391727453
18391733922
18391738866
18391746313
18391751317
18391759252
18391762792
18391772374
18391778600
18391784704
18391789830
18391796178
18391803258
18391809423
18391817418
18391825475
18391830907
18391837743
18391843785
18391850438
18391855626
18391862462
18391868383
18391875279
18391881993
18391886998
18391894383
18391899449
18391906346
18391912328
18391919225
18391923314
18391930882
18391936681
18391942845
18391948705
18391954869
18391961705
18391969884
18391975133
18391981419
18391988133
18391994908
18392000828
18392008031
18392014256
18392022374
18392030980
18392037572
18392044407
18392049717
18392057469
18392064671
18392072117
18392079747
18392086827
18392092198
18392099949
18392107090
18392114048
18392118931
18392126866
18392134007
18392141331
18392147007
18392154454
18392161839
18392168492
18392175511
18392180271
18392191136
18392199436
18392205418
18392213841
18392219456
18392225620
18392232945
18392239414
18392249973
18392254795
18392263096
18392272984
18392279148
18392285618
18392293247
18392299290
18392309482
18392314182
18392324558
18392332004
18392338047
18392344089
18392351719
18392359714
18392367710
18392374424
18392381260
18392387058
18392394992
18392400486
18392408420
18392416111
18392424594
18392430942
18392439060
18392447177
18392455356
18392461521
18392466159
18392476718
18392484653
18392494174
18392499484
18392508212
18392515109
18392524143
18392531345
18392538913
18392545078
18392555209
18392561618
18392570285
18392578647
18392586337
18392592746
18392597324
18392608676
18392613376
18392623996
18392629123
18392640170
18392645053
18392655490
18392662631
18392670382
18392676669
18392684604
18392688876
18392696811
18392704196
18392710971
18392716220
18392725192
18392729159
18392738436
18392745211
18392751559
18392756991
18392764376
18392772494
18392779452
18392789767
18392798739
18392809725
18392814547
18392826937
18392835360
18392844149
18392855196
18392865145
18392874728
18392882784
18392891390
18392899447
18392908846
18392916964
18392926668
18392937349
18392945894
18392955233
18392962740
18392972933
18392981966
18392992525
18393001253
18393009859
18393018282
18393027559
18393036409
18393045626
18393054415
18393063204
18393072115
18393080416
18393089449
18393098848
18393106600
18393116426
18393121614
18393137056
18393146394
18393153535
18393163606
18393173799
18393182832
18393193025
18393201204
18393213716
18393223115
18393232881
18393240083
18393250032
18393259858
18393268892
18393279390
18393288728
18393297212
18393307344
18393318452
18393327485
18393339814
18393351655
18393450532
18393470002
18393488435
18393507905
18393524933
18393542512
18393552949
18393561677
18393572175
18393590485
18393608124
18393627533
18393646027
18393656708
18393667206
18393677460
18393688690
18393699127
18393709747
18393719940
18393728363
18393739533
18393748444
18393759552
18393770294
18393780914
18393790802
18393800690
18393810028
18393817291
18393830353
18393839447
18393851471
18393862274
18393870880
18393878448
18393887176
18393898468
18393904815
18393919220
18393926422
18393939788
18393952117
18393961334
18393970062
18393978546
18393988372
18393997772
18394008880
18394017303
18394027923
18394036712
18394046050
18394055816
18394065704
18394075042
18394084746
18394095061
18394106658
18394115203
18394123565
18394135222
18394146148
18394156279
18394164763
18394174407
18394180999
18394193511
18394203337
18394213469
18394223723
18394234709
18394243560
18394253813
18394268157
18394278227
18394291533
18394305632
18394315093
18394324797
18394330656
18394343474
18394349394
18394364653
18394370390
18394384184
18394394499
18394404692
18394417692
18394426237
18394436674
18394448149
18394457304
18394466459
18394476347
18394482023
18394497099
18394507597
18394516874
18394526762
18394536955
18394547514
18394554411
18394562345
18394569609
18394575895
18394582304
18394587003
18394593717
18394599638
18394606962
18394613310
18394619962
18394627226
18394633146
18394636564
18394645902
18394651945
18394657804
18394665556
18394671842
18394678190
18394683317
18394690458
18394695402
18394703641
18394707487
18394716398
18394724882
18394730131
18394737211
18394742521
18394749601
18394756803
18394763517
18394771390
18394776273
18394783353
18394788419
18394795438
18394801114
18394811246
18394818631
18394825162
18394831632
18394836515
18394843228
18394852445
18394858975
18394867276
18394874295
18394880765
18394888028
18394894315
18394901273
18394907437
18394914212
18394919705
18394927274
18394933194
18394939969
18394945828
18394953091
18394960904
18394967679
18394973355
18394980191
18394985745
18394990872
18394998501
18395004178
18395011258
18395016568
18395024563
18395029080
18395037442
18395044217
18395050931
18395057461
18395064724
18395070828
18395075711
18395081631
18395088406
18395097439
18395100918
18395109768
18395114163
18395122830
18395128689
18395133389
18395141262
18395147183
18395153713
18395159023
18395166165
18395171780
18395179287
18395184902
18395190701
18395197415
18395203213
18395209377
18395213589
18395219814
18395224148
18395233181
18395240749
18395245815
18395251614
18395256374
18395262051
18395266933
18395274990
18395280544
18395286587
18395293239
18395298611
18395304409
18395309170
18395316677
18395323025
18395327907
18395334316
18395339626
18395345485
18395350551
18395356289
18395364406
18395368862
18395375209
18395381984
18395387905
18395392665
18395399623
18395406276
18395413051
18395417812
18395424099
18395430385
18395435207
18395442714
18395447719
18395456142
18395460536
18395469631
18395476589
18395482021
18395489589
18395495632
18395502773
18395508327
18395516139
18395521083
18395527309
18395533839
18395540431
18395545436
18395552882
18395558559
18395565333
18395571498
18395579494
18395587367
18395593837
18395601161
18395606654
18395613551
18395620204
18395625453
18395631190
18395640346
18395647303
18395653651
18395660182
18395666163
18395671534
18395680079
18395686854
18395692408
18395699183
18395705775
18395712428
18395716578
18395724513
18395730860
18395738368
18395744105
18395751368
18395758143
18395763514
18395770655
18395775904
18395783656
18395791102
18395798182
18395802943
18395809046
18395816065
18395822779
18395828394
18395835780
18395841456
18395850001
18395854822
18395861170
18395868250
18395873377
18395880762
18395886622
18395894190
18395900965
18395906397
18395913904
18395919275
18395926233
18395932886
18395938746
18395943812
18395950525
18395958521
18395964563
18395969996
18395976160
18395982996
18395988489
18395993799
18396001245
18396006433
18396012354
18396017908
18396025354
18396031092
18396037561
18396043421
18396050562
18396056055
18396062097
18396067652
18396075586
18396081018
18396086755
18396092493
18396102380
18396107019
18396115991
18396123499
18396131006
18396136865
18396144006
18396150232
18396159997
18396166528
18396173547
18396179529
18396188684
18396194787
18396202966
18396210168
18396218591
18396227014
18396232141
18396240869
18396247644
18396256494
18396263879
18396272363
18396279199
18396287317
18396295861
18396303308
18396310144
18396318811
18396325097
18396333520
18396339379
18396347680
18396356530
18396363183
18396368737
18396377465
18396383508
18396392907
18396399194
18396403771
18396415551
18396423852
18396429955
18396438683
18396445092
18396451684
18396460107
18396467065
18396477257
18396484826
18396492760
18396501488
18396508690
18396514672
18396523278
18396529686
18396539940
18396546349
18396555382
18396563317
18396570946
18396577111
18396586388
18396592492
18396596947
18396610924
18396617333
18396623863
18396630211
18396636437
18396640648
18396648216
18396656029
18396662560
18396668907
18396673607
18396680870
18396684898
18396692345
18396697105
18396705711
18396710960
18396716576
18396722557
18396728416
18396735191
18396739281
18396747032
18396753624
18396759178
18396763451
18396770470
18396775474
18396782127
18396785484
18396794639
18396800560
18396805687
18396810936
18396816490
18396822166
18396826317
18396832847
18396837730
18396845726
18396852134
18396857811
18396866050
18396870689
18396878379
18396884666
18396890281
18396898582
18396904624
18396910484
18396916709
18396922996
18396929954
18396936241
18396941856
18396948631
18396953086
18396961143
18396966148
18396971580
18396978355
18396985618
18396992210
18396999656
18397005637
18397012351
18397016807
18397024131
18397031089
18397037681
18397045249
18397052879
18397057334
18397064597
18397069907
18397076499
18397082358
18397088218
18397094382
18397100913
18397107078
18397112571
18397119956
18397126731
18397133140
18397139487
18397145957
18397152427
18397157981
18397166098
18397173423
18397180014
18397186789
18397192099
18397198935
18397204245
18397212241
18397219382
18397224692
18397232810
18397238181
18397245749
18397252524
18397259604
18397266074
18397273032
18397280600
18397287375
18397293723
18397300070
18397308127
18397315329
18397322104
18397327902
18397334433
18397340231
18397346457
18397355063
18397362326
18397369284
18397376486
18397385153
18397392416
18397398154
18397405417
18397412253
18397418905
18397425436
18397430563
18397438620
18397445211
18397452292
18397458700
18397466635
18397472982
18397479940
18397486898
18397492758
18397500143
18397507894
18397514181
18397520040
18397527120
18397534017
18397539144
18397545248
18397550863
18397560140
18397568136
18397576559
18397582357
18397588705
18397598104
18397606588
18397613729
18397620870
18397627035
18397635580
18397644186
18397651022
18397657735
18397665548
18397672079
18397679403
18397685750
18397691610
18397699361
18397706136
18397714010
18397719930
18397727437
18397736287
18397742147
18397749654
18397755086
18397763753
18397769613
18397778035
18397782674
18397792073
18397797200
18397807820
18397816365
18397822530
18397831136
18397837117
18397844014
18397850667
18397859151
18397867024
18397873982
18397882039
18397888509
18397897359
18397905476
18397911885
18397919820
18397927632
18397933247
18397941426
18397948201
18397955952
18397962666
18397970784
18397975545
18397985798
18397993916
18398000142
18398006611
18398015645
18398021931
18398029377
18398035725
18398043171
18398050862
18398057820
18398066853
18398076130
18398083454
18398093281
18398099934
18398109028
18398115376
18398124287
18398130940
18398140278
18398146198
18398155049
18398164448
18398170307
18398178974
18398186054
18398194233
18398201130
18398210102
18398215229
18398226826
18398234516
18398241718
18398251301
18398256794
18398265522
18398272297
18398280353
18398286030
18398293659
18398300007
18398305744
18398311420
18398317951
18398325275
18398329731
18398336994
18398341938
18398348285
18398353717
18398361652
18398368915
18398374103
18398382465
18398387592
18398394367
18398398883
18398408039
18398415180
18398419696
18398425800
18398433795
18398439228
18398442829
18398450702
18398453998
18398463092
18398469379
18398474445
18398482196
18398487140
18398494159
18398500140
18398506366
18398512225
18398519305
18398526202
18398529803
18398537677
18398544330
18398550250
18398556048
18398560443
18398566974
18398573443
18398579486
18398585284
18398591266
18398596148
18398601397
18398607745
18398613177
18398619220
18398624408
18398630389
18398635394
18398642535
18398648822
18398653582
18398659137
18398665484
18398672686
18398677203
18398684039
18398689349
18398696124
18398703021
18398707782
18398715472
18398722369
18398728045
18398734332
18398738909
18398745928
18398752886
18398759539
18398765887
18398771929
18398779742
18398785662
18398791888
18398798663
18398805132
18398812090
18398819109
18398825579
18398830828
18398836871
18398842120
18398850542
18398858965
18398864397
18398870745
18398876971
18398883135
18398890154
18398897051
18398902544
18398912371
18398918535
18398925676
18398930925
18398937029
18398943743
18398948565
18398956499
18398962664
18398970476
18398977861
18398984209
18398989519
18398995684
18399003008
18399008867
18399016863
18399020708
18399028581
18399035723
18399041826
18399049089
18399055315
18399062456
18399068620
18399074602
18399081804
18399088640
18399095110
18399102190
18399109209
18399114702
18399122209
18399126665
18399135210
18399142961
18399148576
18399155900
18399160905
18399168474
18399174028
18399183610
18399187517
18399197282
18399204118
18399209550
18399216020
18399221330
18399229387
18399237870
18399244584
18399251420
18399259416
18399266618
18399274125
18399280229
18399286027
18399294877
18399301896
18399308915
18399315934
18399321855
18399330339
18399338090
18399345719
18399353105
18399359940
18399367204
18399375077
18399382401
18399388322
18399397965
18399405167
18399411454
18399420975
18399428849
18399435563
18399442399
18399449784
18399459428
18399464188
18399472123
18399482010
18399489884
18399497086
18399504532
18399512284
18399520096
18399526810
18399533951
18399542679
18399550858
18399561356
18399567215
18399583878
18399594498
18399604935
18399614334
18399621170
18399630875
18399635697
18399646500
18399651322
18399660721
18399665360
18399675736
18399682694
18399690079
18399692642
18399704300
18399715286
18399723587
18399735794
18399743057
18399749954
18399756790
18399766556
18399771805
18399782059
18399787308
18399796890
18399802200
18399810623
18399817825
18399827774
18399836258
18399842727
18399849563
18399859695
18399864700
18399875076
18399883438
18399888931
18399896926
18399904129
18399910293
18399914932
18399922012
18399927871
18399935195
18399939834
18399948196
18399954727
18399961440
18399966750
18399972366
18399979629
18399985427
18399991714
18399997878
18400002822
18400011184
18400017837
18400022353
18400030227
18400036330
18400044082
18400050429
18400059096
18400068069
18400073562
18400079970
18400086135
18400093032
18400099196
18400104140
18400111831
18400118300
18400123794
18400130019
18400134780
18400142592
18400150405
18400155654
18400162917
18400167617
18400173781
18400180495
18400185805
18400192397
18400196913
18400203444
18400209243
18400214797
18400220290
18400225905
18400232497
18400238173
18400242323
18400249037
18400254408
18400260634
18400267165
18400272658
18400279921
18400286025
18400290846
18400296400
18400304823
18400311598
18400317763
18400325087
18400329604
18400337233
18400343581
18400353651
18400361586
18400368666
18400374403
18400380507
18400387526
18400393629
18400397902
18400407667
18400414259
18400419630
18400425978
18400435560
18400444288
18400448439
18400458448
18400462721
18400471449
18400479200
18400484999
18400492018
18400499159
18400505689
18400512464
18400518995
18400525831
18400530958
18400537977
18400544752
18400551710
18400559156
18400564222
18400572645
18400579054
18400585462
18400590467
18400597303
18400604871
18400610792
18400618726
18400625745
18400629957
18400639966
18400644117
18400653638
18400660779
18400666700
18400674512
18400679761
18400687147
18400693738
18400699170
18400706189
18400710096
18400720655
18400728956
18400735852
18400742139
18400749891
18400757520
18400765088
18400770948
18400778089
18400784131
18400789441
18400797132
18400802869
18400811475
18400815259
18400825696
18400830884
18400836926
18400844434
18400850781
18400856275
18400862317
18400869641
18400874524
18400882275
18400889050
18400894910
18400899792
18400908154
18400913708
18400921460
18400929089
18400936291
18400942090
18400949475
18400954663
18400961804
18400967114
18400975659
18400982983
18400990429
18400996289
18401003064
18401010571
18401017041
18401025036
18401031018
18401040295
18401045605
18401052868
18401060620
18401067456
18401072766
18401082836
18401088330
18401096875
18401102612
18401110302
18401116528
18401123425
18401129101
18401137829
18401146496
18401154492
18401160595
18401168957
18401177441
18401183605
18401189037
18401197338
18401204906
18401212353
18401220348
18401227123
18401232983
18401241283
18401249462
18401255993
18401263866
18401272106
18401280346
18401287426
18401293346
18401301769
18401309520
18401317028
18401325878
18401334057
18401339672
18401347728
18401353283
18401361217
18401368908
18401375377
18401384410
18401392650
18401400646
18401406139
18401414501
18401419444
18401429088
18401435802
18401446239
18401451427
18401460826
18401468028
18401476390
18401483043
18401490489
18401496715
18401506053
18401515025
18401522777
18401528819
18401535899
18401544078
18401550304
18401557017
18401565379
18401572642
18401579844
18401584605
18401591014
18401596873
18401602794
18401609019
18401615550
18401620677
18401628489
18401633372
18401639537
18401644419
18401651805
18401657420
18401664256
18401671580
18401677867
18401683482
18401689219
18401693736
18401699900
18401708140
18401714976
18401720591
18401726756
18401732188
18401736582
18401742808
18401748911
18401754527
18401760996
18401767893
18401773203
18401779368
18401786753
18401792918
18401796458
18401805613
18401809336
18401817515
18401823435
18401830271
18401835215
18401840952
18401846323
18401853709
18401858958
18401865244
18401870310
18401875986
18401882151
18401886606
18401894663
18401900400
18401906199
18401911997
18401918039
18401923960
18401929575
18401937510
18401944162
18401950754
18401954172
18401961252
18401965952
18401973276
18401979319
18401986948
18401992502
18401996652
18402004709
18402011240
18402016550
18402022653
18402030954
18402036020
18402042673
18402049021
18402055185
18402063669
18402070749
18402077097
18402083627
18402090097
18402096872
18402102365
18402107187
18402114145
18402119394
18402128061
18402131662
18402141000
18402147348
18402153512
18402159738
18402165841
18402172738
18402178964
18402184152
18402190317
18402197030
18402203317
18402210458
18402216928
18402224069
18402230844
18402237191
18402242257
18402250253
18402255136
18402263070
18402270028
18402276681
18402283822
18402290170
18402296151
18402302926
18402309762
18402317513
18402321786
18402331002
18402338326
18402344735
18402351815
18402357064
18402365548
18402371041
18402378671
18402384469
18402391915
18402397652
18402405099
18402410897
18402419381
18402426644
18402433358
18402439400
18402446236
18402453683
18402458809
18402465767
18402472481
18402480355
18402487313
18402492562
18402499825
18402505867
18402513314
18402520333
18402526253
18402532967
18402541268
18402546944
18402552925
18402560494
18402567208
18402575020
18402583870
18402591561
18402598030
18402603707
18402611763
18402616158
18402624031
18402631355
18402639473
18402645271
18402653450
18402657417
18402667244
18402673897
18402678719
18402686775
18402693184
18402700935
18402706856
18402714485
18402722114
18402728096
18402733833
18402740181
18402746345
18402753792
18402760750
18402768501
18402775215
18402783027
18402789558
18402797981
18402805000
18402814277
18402820015
18402829109
18402836189
18402842659
18402849433
18402858345
18402865791
18402872383
18402879341
18402888313
18402893501
18402904975
18402912544
18402918952
18402927009
18402935066
18402942146
18402949043
18402954719
18402963142
18402970527
18402977058
18402981757
18402991035
18402998847
18403004829
18403009467
18403018012
18403027595
18403033881
18403038764
18403049811
18403058600
18403065497
18403071357
18403081061
18403085883
18403096930
18403102485
18403112616
18403117621
18403125434
18403132575
18403141852
18403149787
18403159125
18403164557
18403175421
18403182685
18403190924
18403197333
18403204535
18403211981
18403220770
18403228278
18403236762
18403244452
18403252997
18403259100
18403265082
18403273261
18403279547
18403285529
18403293402
18403297552
18403306158
18403310187
18403318793
18403325690
18403330878
18403337286
18403341925
18403349371
18403354620
18403361212
18403366888
18403374884
18403382696
18403388006
18403393561
18403399725
18403404791
18403412298
18403419561
18403424566
18403430059
18403435186
18403441473
18403447149
18403455511
18403461798
18403469427
18403476202
18403481573
18403488775
18403495367
18403501898
18403507635
18403514471
18403521124
18403526373
18403531805
18403538885
18403544683
18403549688
18403556158
18403561773
18403567693
18403573370
18403579900
18403585394
18403590826
18403597478
18403602911
18403608038
18403615118
18403620733
18403626714
18403633245
18403638311
18403644170
18403650213
18403656255
18403661870
18403667425
18403672552
18403679082
18403685064
18403690435
18403697576
18403703496
18403709111
18403715886
18403721257
18403728093
18403733342
18403739873
18403744756
18403751470
18403757512
18403763799
18403769780
18403776250
18403781621
18403788945
18403796025
18403802800
18403809331
18403816289
18403824346
18403831670
18403839055
18403846318
18403853520
18403861028
18403867314
18403874272
18403882390
18403888371
18403895879
18403903447
18403909550
18403915715
18403923161
18403928593
18403935673
18403939519
18403947270
18403953068
18403960576
18403967351
18403975041
18403981633
18403988347
18403994511
18404001225
18404007512
18404012822
18404021428
18404028080
18404033024
18404040226
18404045781
18404053471
18404060917
18404067875
18404074101
18404080204
18404084599
18404093510
18404099247
18404105534
18404112370
18404120365
18404126591
18404131962
18404139774
18404145207
18404153446
18404160587
18404167423
18404173527
18404179630
18404187565
18404193790
18404200443
18404207340
18404213932
18404220402
18404226627
18404232792
18404238163
18404247501
18404254703
18404259830
18404269108
18404275272
18404282718
18404288639
18404296146
18404302677
18404309818
18404317752
18404324466
18404330631
18404338687
18404345707
18404353092
18404361820
18404366397
18404374698
18404383060
18404390567
18404397159
18404405948
18404414981
18404421573
18404428836
18404435367
18404445072
18404453983
18404461551
18404470218
18404478580
18404486148
18404493228
18404501651
18404508609
18404518497
18404523257
18404532291
18404536746
18404548343
18404556705
18404563357
18404567874
18404578555
18404587832
18404596072
18404602237
18404609683
18404618167
18404624698
18404632632
18404637332
18404647097
18404651919
18404661685
18404666384
18404675723
18404680850
18404690554
18404699893
18404707278
18404716372
18404722842
18404730471
18404739382
18404746401
18404752566
18404763674
18404773806
18404780276
18404789126
18404795901
18404802859
18404809756
18404818484
18404827273
18404832461
18404842348
18404851748
18404858767
18404866335
18404875795
18404884707
18404891054
18404899599
18404905642
18404915163
18404920473
18404927980
18404931948
18404940737
18404944582
18404953371
18404959108
18404966432
18404971498
18404977358
18404985231
18404989382
18404997560
18405003664
18405010256
18405015444
18405021547
18405028688
18405034670
18405041261
18405047426
18405052431
18405059877
18405066469
18405074281
18405079469
18405085329
18405091920
18405097597
18405105897
18405109682
18405119508
18405126955
18405132326
18405139528
18405143861
18405153200
18405159608
18405165895
18405171266
18405177064
18405182924
18405188051
18405195192
18405200746
18405206727
18405213380
18405220155
18405228639
18405235780
18405241639
18405247499
18405254090
18405260560
18405266114
18405273439
18405278321
18405283998
18405290528
18405296449
18405303529
18405308961
18405314515
18405320130
18405325684
18405331849
18405338441
18405345887
18405350587
18405357118
18405361817
18405368287
18405373292
18405382752
18405388734
18405395203
18405400330
18405407166
18405412720
18405418824
18405424927
18405430970
18405436829
18405444092
18405448731
18405456299
18405461121
18405469666
18405475464
18405482361
18405488587
18405494507
18405500611
18405507508
18405515259
18405521729
18405528321
18405535279
18405540894
18405547364
18405553955
18405559937
18405567871
18405574341
18405580445
18405587586
18405592591
18405600464
18405604920
18405612671
18405618164
18405625794
18405630310
18405638123
18405643311
18405651245
18405657837
18405664673
18405671692
18405676514
18405684631
18405691772
18405697937
18405703613
18405713867
18405717956
18405726929
18405733276
18405739807
18405746094
18405752685
18405760986
18405766601
18405773498
18405781311
18405788574
18405795532
18405800598
18405809509
18405815124
18405823669
18405832458
18405839172
18405847473
18405853942
18405861206
18405867065
18405874267
18405880187
18405885864
18405894103
18405901061
18405908508
18405915771
18405921081
18405929260
18405933837
18405943176
18405951537
18405960754
18405965636
18405978637
18405985595
18405993529
18405999145
18406007079
18406016906
18406024718
18406030883
18406038573
18406046325
18406051940
18406057067
18406064513
18406070922
18406079589
18406084044
18406092406
18406096679
18406108031
18406117125
18406124327
18406129393
18406139891
18406148375
18406155822
18406160765
18406170775
18406176329
18406185362
18406192626
18406200682
18406208251
18406216612
18406224425
18406231810
18406239195
18406246825
18406254454
18406262633
18406271483
18406279723
18406284788
18406294798
18406300108
18406312010
18406317320
18406327513
18406334776
18406342528
18406345457
18406355894
18406365355
18406371641
18406378843
18406387510
18406395628
18406402830
18406410948
18406418943
18406428892
18406436705
18406445921
18406454649
18406462217
18406471189
18406479185
18406486326
18406492552
18406500974
18406507932
18406514829
18406521421
18406528257
18406535642
18406542356
18406550535
18406556577
18406564817
18406570249
18406577573
18406583250
18406589353
18406594785
18406601865
18406607236
18406614377
18406620359
18406624998
18406632871
18406637327
18406644590
18406650144
18406657651
18406661435
18406668454
18406672544
18406681211
18406690000
18406695676
18406703122
18406708616
18406714048
18406719480
18406726682
18406730832
18406739072
18406745786
18406752133
18406757505
18406764218
18406770627
18406775571
18406782590
18406787595
18406793759
18406799130
18406805417
18406811398
18406816892
18406823544
18406829709
18406834775
18406839414
18406846188
18406849728
18406857480
18406863156
18406869077
18406874570
18406880551
18406887082
18406893307
18406897824
18406902646
18406909543
18406915707
18406921872
18406927853
18406932248
18406937741
18406944516
18406951169
18406957089
18406962948
18406969296
18406975155
18406982541
18406990109
18406998837
18407004452
18407011532
18407017575
18407023922
18407030697
18407036434
18407043698
18407050595
18407056149
18407063595
18407069454
18407075436
18407080990
18407090084
18407097103
18407104489
18407111996
18407117733
18407126217
18407131588
18407140316
18407147091
18407154049
18407160275
18407165585
18407174190
18407179684
18407188839
18407194820
18407200924
18407208492
18407214168
18407222347
18407229183
18407238399
18407244869
18407251705
18407258602
18407263485
18407270565
18407276912
18407284359
18407289486
18407297786
18407305111
18407311702
18407318294
18407326656
18407336788
18407342220
18407348873
18407356197
18407361873
18407367916
18407374935
18407382442
18407390560
18407397273
18407403804
18407410518
18407417232
18407423518
18407433894
18407440913
18407448482
18407454646
18407459773
18407468929
18407475337
18407481380
18407488887
18407494807
18407502376
18407507869
18407513667
18407519527
18407527888
18407535213
18407542109
18407548945
18407554683
18407562495
18407568965
18407578547
18407583674
18407593318
18407601497
18407607661
18407615046
18407622798
18407630732
18407636775
18407645564
18407652095
18407658198
18407663447
18407670344
18407678462
18407686640
18407694026
18407701594
18407707758
18407715327
18407718195
18407728022
18407736323
18407742548
18407750117
18407757929
18407764887
18407770747
18407777460
18407784357
18407792780
18407798456
18407804926
18407810908
18407818842
18407824946
18407834223
18407840082
18407848139
18407854303
18407861384
18407868586
18407874445
18407881830
18407889032
18407894953
18407902948
18407909113
18407916620
18407922968
18407931635
18407940058
18407947077
18407953791
18407962702
18407968622
18407978693
18407985895
18407993707
18407999811
18408006769
18408015863
18408022882
18408029779
18408037653
18408044183
18408052972
18408060541
18408066156
18408078790
18408086786
18408094171
18408104608
18408111322
18408119440
18408126398
18408133539
18408143487
18408151178
18408160577
18408168023
18408174798
18408182977
18408188592
18408194329
18408203119
18408208368
18408216058
18408223382
18408229058
18408236322
18408242425
18408247552
18408254449
18408259515
18408267816
18408273248
18408280694
18408286981
18408293511
18408297296
18408305230
18408310662
18408321221
18408326653
18408332818
18408339166
18408345208
18408350518
18408356561
18408362603
18408369073
18408375481
18408382073
18408387994
18408394463
18408400017
18408404900
18408413384
18408419549
18408425225
18408428765
18408436150
18408441094
18408447381
18408452263
18408460564
18408466301
18408471856
18408477654
18408483452
18408489373
18408495110
18408501702
18408508171
18408514397
18408518975
18408526238
18408529595
18408537529
18408543328
18408549431
18408555168
18408560723
18408566826
18408572563
18408578301
18408584160
18408589897
18408596062
18408602287
18408609734
18408615349
18408619743
18408624992
18408630669
18408637199
18408645317
18408649651
18408655876
18408662041
18408667900
18408672661
18408680595
18408687126
18408692863
18408698662
18408704399
18408710441
18408716423
18408722648
18408728874
18408734123
18408740227
18408745903
18408752556
18408757499
18408764457
18408772392
18408779045
18408785637
18408789360
18408797905
18408804130
18408810661
18408816825
18408825737
18408832511
18408838554
18408844230
18408850639
18408857170
18408863578
18408871696
18408878837
18408884818
18408891654
18408898124
18408905082
18408910880
18408916190
18408924430
18408930106
18408937309
18408943107
18408949577
18408955863
18408962089
18408968436
18408975761
18408981925
18408987907
18408993766
18408999930
18409006827
18409013053
18409018302
18409024650
18409032157
18409039115
18409045157
18409052176
18409057914
18409064872
18409071402
18409078666
18409085685
18409091239
18409098807
18409102713
18409110526
18409115897
18409125418
18409129447
18409138297
18409143607
18409149649
18409153250
18409161185
18409167227
18409176138
18409183341
18409188529
18409195548
18409202139
18409208792
18409215201
18409222281
18409229178
18409236380
18409242423
18409248953
18409256583
18409263052
18409268057
18409277396
18409283499
18409290945
18409296561
18409304495
18409310232
18409316641
18409323965
18409331534
18409337576
18409343863
18409351309
18409357290
18409365652
18409373526
18409377920
18409387808
18409392202
18409401785
18409408316
18409416494
18409422720
18409430105
18409436453
18409446585
18409453848
18409460378
18409466970
18409474844
18409481313
18409487783
18409496084
18409504690
18409511526
18409519338
18409525381
18409533682
18409539541
18409546865
18409554800
18409564077
18409573659
18409579702
18409587820
18409596548
18409602163
18409609609
18409617299
18409624196
18409632436
18409639333
18409646474
18409650991
18409661794
18409669484
18409675649
18409685292
18409693105
18409700795
18409706472
18409713857
18409721486
18409729238
18409735463
18409744680
18409753102
18409759816
18409767690
18409772634
18409781606
18409788320
18409796132
18409804738
18409812306
18409820058
18409827992
18409837819
18409845753
18409851857
18409860280
18409866811
18409877187
18409883656
18409893300
18409898610
18409907094
18409912892
18409920094
18409926320
18409931630
18409937977
18409945851
18409950306
18409957692
18409962086
18409968251
18409974476
18409981129
18409987721
18409993824
18409998951
18410006092
18410011158
18410018055
18410023060
18410031361
18410036488
18410042286
18410049000
18410054920
18410059925
18410065724
18410072376
18410078541
18410085072
18410091847
18410098194
18410103016
18410110890
18410116261
18410122913
18410129688
18410136829
18410141773
18410150013
18410156666
18410162952
18410169483
18410175831
18410182911
18410187061
18410193470
18410199695
18410206287
18410210804
18410219532
18410223194
18410230945
18410236866
18410242481
18410248279
18410253895
18410261463
18410268482
18410274891
18410278614
18410286121
18410291736
18410297046
18410303394
18410309558
18410315296
18410321033
18410327198
18410331653
18410336902
18410343555
18410351551
18410357715
18410364673
18410370777
18410376758
18410382678
18410388660
18410394702
18410401233
18410407642
18410412402
18410419482
18410424365
18410431506
18410437000
18410446155
18410451160
18410457263
18410464648
18410471179
18410476367
18410482654
18410502002
18410508349
18410517871
18410523425
18410531054
18410539355
18410546252
18410553088
18410560595
18410568530
18410574633
18410580493
18410586169
18410595874
18410602099
18410608203
18410615954
18410621142
18410629382
18410633166
18410642077
18410648364
18410654772
18410662463
18410667834
18410676074
18410683215
18410689623
18410697070
18410703784
18410709582
18410716418
18410723742
18410727282
18410738146
18410743639
18410749987
18410757738
18410762316
18410769152
18410775866
18410783556
18410788927
18410795885
18410801134
18410808703
18410815600
18410821886
18410829943
18410837633
18410843859
18410851122
18410857958
18410862169
18410872667
18410879320
18410886889
18410893969
18410899218
18410907213
18410913866
18410921923
18410928026
18410935228
18410943468
18410949327
18410957872
18410966600
18410973131
18410982042
18410988451
18410997118
18411005480
18411011766
18411019579
18411024278
18411033800
18411041917
18411049852
18411056627
18411064928
18411072069
18411080369
18411086900
18411094591
18411099351
18411109788
18411116868
18411123216
18411131639
18411137986
18411147447
18411154405
18411159349
18411172288
18411177354
18411186998
18411191636
18411201280
18411209581
18411216294
18411223313
18411233323
18411238023
18411246751
18411253953
18411261033
18411265733
18411275559
18411280503
18411290452
18411295335
18411305406
18411313279
18411320298
18411328416
18411336167
18411343980
18411352586
18411360947
18411367600
18411376450
18411385056
18411387925
18411399827
18411407090
18411415696
18411424241
18411430527
18411438828
18411446640
18411453293
18411460495
18411466660
18411478135
18411484970
18411494248
18411501206
18411509751
18411515000
18411525742
18411533860
18411543686
18411549118
18411559311
18411566330
18411573715
18411579880
18411587937
18411596359
18411602951
18411611435
18411617661
18411623581
18411630478
18411635849
18411641952
18411648239
18411655502
18411660629
18411667465
18411672897
18411679794
18411683273
18411690048
18411695419
18411703537
18411708664
18411714828
18411721786
18411727951
18411733261
18411739059
18411742294
18411751449
18411759079
18411765793
18411771652
18411776535
18411783920
18411790634
18411796981
18411802291
18411809555
18411814437
18411821090
18411826705
18411832931
18411836410
18411845931
18411849777
18411858016
18411864486
18411869918
18411874008
18411880721
18411884139
18411894149
18411899825
18411906051
18411912521
18411918563
18411923995
18411929549
18411934493
18411940719
18411946395
18411951034
18411957809
18411962386
18411968429
18411975631
18411981368
18411989059
18411993941
18412000472
18412005538
18412013106
18412019881
18412025619
18412032088
18412036361
18412043319
18412050155
18412055831
18412062789
18412069197
18412074263
18412081343
18412086287
18412094222
18412099593
18412107405
18412113997
18412120345
18412126204
18412132308
18412138472
18412144332
18412150435
18412155501
18412162947
18412168257
18412175826
18412182845
18412188704
18412194197
18412200057
18412207442
18412214705
18412220625
18412227705
18412233626
18412240584
18412246504
18412254011
18412259932
18412267927
18412274397
18412281294
18412285628
18412295454
18412299422
18412308882
18412316267
18412323347
18412330427
18412338118
18412343916
18412351057
18412357161
18412364729
18412371199
18412376875
18412384321
18412389753
18412395796
18412401167
18412407576
18412415388
18412422651
18412428999
18412434614
18412440229
18412447920
18412451887
18412459883
18412466779
18412473860
18412478010
18412486799
18412494245
18412501386
18412507673
18412512556
18412519941
18412524946
18412531477
18412537824
18412541730
18412550947
18412559370
18412564558
18412574445
18412579694
18412588422
18412594831
18412601484
18412606916
18412613447
18412620832
18412629011
18412635541
18412639570
18412648420
18412653486
18412661176
18412666974
18412673200
18412680646
18412686078
18412694013
18412699994
18412707624
18412713971
18412720258
18412727521
18412732221
18412739850
18412746686
18412752545
18412759320
18412766828
18412773053
18412783185
18412789105
18412796735
18412804120
18412809979
18412820660
18412826947
18412834821
18412843182
18412851727
18412859051
18412865033
18412872723
18412881146
18412887677
18412893902
18412903241
18412909039
18412917340
18412923626
18412931317
18412939740
18412946393
18412952252
18412962017
18412968670
18412977642
18412986309
18412993023
18413001446
18413008160
18413014508
18413021832
18413027996
18413035870
18413042340
18413050640
18413058209
18413065594
18413069866
18413079754
18413084026
18413093792
18413097942
18413112469
18413119122
18413126751
18413133709
18413142681
18413151409
18413160320
18413169109
18413176617
18413183391
18413191875
18413194500
18413206646
18413213909
18413220867
18413225872
18413238445
18413241497
18413253887
18413259258
18413268108
18413272869
18413282695
18413287456
18413297771
18413302410
18413312297
18413316387
18413325237
18413332134
18413337261
18413344646
18413350200
18413356548
18413362956
18413369060
18413375469
18413380412
18413386943
18413393718
18413400798
18413405559
18413411601
18413418193
18413422893
18413429118
18413435344
18413442119
18413446757
18413453166
18413458049
18413464152
18413471232
18413477214
18413484233
18413490825
18413496135
18413503703
18413508830
18413517436
18413522807
18413528850
18413533671
18413542155
18413547953
18413554057
18413561076
18413566996
18413572734
18413579570
18413584758
18413590922
18413596171
18413603251
18413606730
18413613322
18413618571
18413624186
18413630107
18413636271
18413641947
18413647563
18413652995
18413657755
18413663920
18413669840
18413675944
18413682414
18413688090
18413694376
18413699748
18413704935
18413710062
18413714701
18413721598
18413726359
18413732645
18413738627
18413745402
18413748881
18413756022
18413759684
18413768229
18413774760
18413781046
18413786967
18413793497
18413799540
18413806437
18413814554
18413819925
18413826944
18413832926
18413840494
18413846293
18413853861
18413859964
18413866495
18413873270
18413879374
