17909597522
17909603931
17909610523
17909615406
17909620411
17909625598
17909630542
17909635608
17909640918
17909645801
17909651355
17909656665
17909662281
17909667102
17909672412
17909678638
17909684192
17909689563
17909695972
17909702747
17909706653
17909713977
17909719043
17909724414
17909731677
17909738452
17909744373
17909751331
17909756458
17909764209
17909772388
17909778735
17909785144
17909790210
17909797778
17909801257
17909809497
17909816394
17909825305
17909831042
17909837756
17909843860
17909850818
17909858081
17909864123
17909871325
17909875232
17909883777
17909890002
17909897937
17909905505
17909912341
17909921069
17909926623
17909935595
17909942858
17909950061
17909957141
17909964587
17909973193
17909980822
17909988024
17909995532
17910000903
17910008898
17910016711
17910023486
17910031359
17910038195
17910045641
17910052905
17910059374
17910065356
17910073962
17910083239
17910091235
17910100512
17910108752
17910117419
17910123583
17910133349
17910139818
17910149462
17910158495
17910167467
17910177111
17910184435
17910192125
17910197741
17910206957
17910212511
17910221727
17910227220
17910235704
17910244554
17910251634
17910259447
17910268724
17910274889
17910284349
17910288866
17910297533
17910301866
17910314073
17910321397
17910328111
17910334398
17910341783
17910347520
17910355089
17910363573
17910368517
17910378648
17910383714
17910394639
17910404222
17910411912
17910420213
17910428941
17910435716
17910442003
17910451707
17910456590
17910465989
17910473802
17910482042
17910491685
17910498094
17910506639
17910512803
17910523667
17910533433
17910541856
17910550035
17910556382
17910565232
17910569383
17910580613
17910590745
17910598618
17910605576
17910611192
17910619981
17910626572
17910634873
17910643540
17910650925
17910659348
17910665879
17910672105
17910679002
17910686814
17910692124
17910699998
17910707871
17910716416
17910722214
17910730576
17910734849
17910743516
17910749253
17910758286
17910766282
17910775193
17910783432
17910789048
17910798386
17910805588
17910816208
17910829514
17910839463
17910845810
17910856125
17910864304
17910872727
17910880905
17910891586
17910898972
17910906601
17910914536
17910922043
17910929184
17910937424
17910943771
17910951889
17910957993
17910965988
17910973312
17910981369
17910988388
17910994675
17911003097
17911009445
17911018295
17911024521
17911033310
17911039474
17911047836
17911055282
17911062607
17911070358
17911077438
17911082443
17911092514
17911102401
17911108566
17911119857
17911126388
17911134811
17911139450
17911149093
17911155685
17911163742
17911171859
17911179244
17911186019
17911193710
17911200057
17911207565
17911215316
17911223556
17911229659
17911237350
17911244064
17911249679
17911257552
17911265060
17911272201
17911278915
17911286849
17911292647
17911300338
17911306869
17911313521
17911320235
17911328963
17911335372
17911344039
17911348800
17911357589
17911364180
17911374678
17911384627
17911394149
17911402327
17911410018
17911416121
17911424239
17911432051
17911439315
17911447982
17911454878
17911463668
17911468062
17911478987
17911487898
17911494490
17911498885
17911510970
17911518782
17911526961
17911534956
17911543868
17911551985
17911560164
17911571211
17911579268
17911587691
17911594527
17911603010
17911611799
17911616316
17911628340
17911635786
17911644087
17911650801
17911658186
17911665022
17911672285
17911680220
17911688154
17911694929
17911700972
17911708235
17911715132
17911722151
17911729536
17911737165
17911743818
17911750959
17911757673
17911765241
17911773115
17911780378
17911789228
17911796308
17911802839
17911809858
17911817365
17911824323
17911831648
17911837446
17911845075
17911852277
17911859418
17911862409
17911873884
17911878400
17911889570
17911897016
17911902814
17911911359
17911917280
17911925947
17911932294
17911940717
17911945661
17911956159
17911964093
17911971845
17911981000
17911987592
17911997541
17912001996
17912012128
17912018293
17912027387
17912034955
17912042584
17912051496
17912059125
17912069928
17912076947
17912086713
17912094769
17912102948
17912110577
17912118512
17912129071
17912137067
17912145856
17912152936
17912159039
17912164044
17912170209
17912176129
17912182782
17912188214
17912194989
17912202313
17912207440
17912215191
17912220746
17912227948
17912234295
17912242291
17912248639
17912255658
17912261822
17912268658
17912274823
17912282635
17912288433
17912295453
17912301190
17912309307
17912313397
17912322552
17912329998
17912338482
17912344158
17912351116
17912356915
17912366558
17912372784
17912379986
17912390423
17912396710
17912404644
17912412518
17912419842
17912426006
17912432598
17912440105
17912447124
17912452923
17912461712
17912467815
17912474895
17912482952
17912489910
17912495403
17912504131
17912512005
17912518780
17912525615
17912534893
17912542400
17912549602
17912555462
17912563640
17912573040
17912579570
17912584880
17912594158
17912600200
17912607402
17912614727
17912622844
17912629253
17912637554
17912645183
17912652080
17912659160
17912665569
17912672710
17912679119
17912687114
17912694927
17912700481
17912709087
17912715068
17912721904
17912729106
17912735942
17912744487
17912752299
17912759441
17912767924
17912777568
17912784038
17912791667
17912797771
17912806438
17912814921
17912822551
17912828593
17912835856
17912841044
17912850688
17912857463
17912866923
17912872050
17912882670
17912889933
17912895549
17912902629
17912912394
17912918925
17912926860
17912933818
17912943034
17912950602
17912959391
17912966532
17912974772
17912981120
17912989237
17912999491
17913007304
17913014079
17913023295
17913029337
17913037394
17913045878
17913053263
17913062418
17913070658
17913076639
17913084574
17913092692
17913100016
17913105936
17913112467
17913121561
17913129923
17913137552
17913144632
17913151774
17913157633
17913165690
17913174662
17913180216
17913189310
17913198648
17913205057
17913213358
17913219339
17913227274
17913235697
17913241739
17913250345
17913255228
17913265665
17913270304
17913279703
17913286905
17913296304
17913302957
17913313760
17913321573
17913329080
17913335611
17913344705
17913351053
17913358438
17913365091
17913374856
17913380899
17913389810
17913398660
17913404703
17913412332
17913419473
17913427652
17913434182
17913442972
17913449746
17913457559
17913465188
17913473123
17913477273
17913485147
17913491311
17913499429
17913508401
17913513650
17913519204
17913526712
17913532632
17913538613
17913544778
17913551492
17913557595
17913563210
17913569253
17913574868
17913580422
17913586099
17913591958
17913598855
17913604348
17913610207
17913615456
17913621621
17913626870
17913632912
17913638039
17913643044
17913651040
17913656350
17913663613
17913669961
17913676552
17913680459
17913690591
17913697671
17913704079
17913711281
17913718545
17913725625
17913731301
17913740883
17913746926
17913752663
17913759621
17913764321
17913772194
17913777932
17913784035
17913790383
17913796425
17913801857
17913808144
17913813576
17913818215
17913823952
17913828774
17913834389
17913838906
17913845192
17913849892
17913856117
17913861000
17913867775
17913874306
17913880165
17913885780
17913891579
17913897499
17913902077
17913908913
17913915749
17913921181
17913925941
17913933022
17913938393
17913945900
17913949684
17913957252
17913960792
17913968239
17913974098
17913980446
17913986976
17913993324
17913999611
17914005104
17914011146
17914017311
17914022865
17914029457
17914035927
17914041115
17914047645
17914053077
17914059730
17914065040
17914072303
17914077613
17914083534
17914088905
17914096595
17914100441
17914107704
17914113014
17914120155
17914124183
17914131752
17914135475
17914143775
17914150062
17914156776
17914163490
17914168739
17914175331
17914181983
17914188819
17914195228
17914201148
17914205848
17914211707
17914217811
17914223975
17914230140
17914236610
17914244178
17914250281
17914257911
17914264503
17914270484
17914278236
17914284339
17914291724
17914295814
17914304236
17914311194
17914317664
17914321692
17914329322
17914336036
17914342994
17914346839
17914354285
17914358130
17914366492
17914372779
17914377478
17914386267
17914391150
17914397925
17914402747
17914409583
17914415686
17914420813
17914426917
17914433448
17914438391
17914447119
17914451880
17914458411
17914463233
17914469763
17914476538
17914483313
17914489111
17914497534
17914504675
17914510169
17914516211
17914524084
17914532690
17914539221
17914546973
17914553259
17914559912
17914569861
17914577734
17914585242
17914589392
17914600195
17914607519
17914614966
17914621557
17914628698
17914635046
17914642553
17914650671
17914658300
17914665136
17914672339
17914677343
17914686010
17914691503
17914698523
17914702795
17914715551
17914721899
17914729589
17914734350
17914743688
17914750402
17914759191
17914766577
17914773840
17914780370
17914788610
17914795202
17914803014
17914809301
17914817724
17914826025
17914833349
17914839391
17914847265
17914853429
17914861730
17914869604
17914876379
17914884069
17914891271
17914899450
17914906530
17914914342
17914919347
17914929235
17914934118
17914944372
17914949376
17914960607
17914965245
17914975377
17914980321
17914991063
17914996007
17915005834
17915013036
17915023473
17915031591
17915037633
17915044103
17915054173
17915061315
17915068150
17915077306
17915085057
17915092076
17915102513
17915108922
17915117162
17915125890
17915134434
17915140782
17915145909
17915157323
17915162633
17915173863
17915180760
17915188817
17915196324
17915203465
17915209019
17915217686
17915222996
17915230992
17915236180
17915242344
17915248997
17915255162
17915260228
17915267430
17915272557
17915279698
17915284886
17915292088
17915295811
17915303257
17915308445
17915316868
17915323155
17915330540
17915340916
17915344334
17915354344
17915361668
17915368687
17915376377
17915383030
17915389073
17915396763
17915404270
17915411778
17915419041
17915425388
17915431370
17915438389
17915444004
17915449985
17915456272
17915462681
17915470127
17915475620
17915482944
17915488804
17915494358
17915500095
17915505771
17915512180
17915518650
17915524997
17915530857
17915535862
17915541904
17915548374
17915553501
17915560215
17915565525
17915571750
17915576511
17915583713
17915588840
17915596592
17915600559
17915609165
17915614475
17915620151
17915626316
17915632602
17915639377
17915644260
17915651340
17915658176
17915664340
17915669467
17915677707
17915682773
17915689853
17915695590
17915701633
17915708347
17915714389
17915717929
17915724826
17915731235
17915735995
17915742709
17915749850
17915755344
17915761813
17915767001
17915772311
17915779269
17915784640
17915792636
17915798495
17915805148
17915811069
17915816501
17915821811
17915829135
17915832919
17915840670
17915844455
17915852206
17915859713
17915866061
17915871737
17915878146
17915885348
17915892428
17915899203
17915904940
17915911776
17915917453
17915925326
17915931735
17915941195
17915948336
17915954012
17915960482
17915967501
17915974032
17915980685
17915989840
17915995699
17916002596
17916009859
17916014437
17916021395
17916029818
17916035555
17916041231
17916049532
17916054110
17916063570
17916069674
17916075411
17916081759
17916087191
17916095247
17916101900
17916107943
17916115694
17916122652
17916128878
17916134554
17916141024
17916147432
17916153353
17916161470
17916167025
17916175142
17916181429
17916187960
17916194490
17916201204
17916207613
17916212068
17916219820
17916227938
17916234896
17916240328
17916248506
17916253267
17916260896
17916266145
17916276033
17916282564
17916288728
17916297578
17916304353
17916311678
17916317293
17916326204
17916334138
17916339876
17916346712
17916353120
17916358919
17916365877
17916372407
17916378816
17916387361
17916393526
17916401277
17916407136
17916415071
17916421541
17916429658
17916436433
17916442415
17916450654
17916456758
17916464997
17916470369
17916476533
17916484956
17916492036
17916499726
17916506990
17916516328
17916523713
17916531037
17916538484
17916547578
17916554475
17916560639
17916568208
17916574494
17916581452
17916589082
17916596833
17916605378
17916609834
17916618562
17916623444
17916633698
17916640351
17916647431
17916655671
17916661835
17916668976
17916675202
17916682526
17916691132
17916698639
17916706757
17916713410
17916723053
17916731720
17916738923
17916747162
17916753632
17916761506
17916768097
17916776276
17916784150
17916789276
17916797577
17916802460
17916814545
17916819855
17916829071
17916836457
17916843231
17916849396
17916856781
17916861725
17916869904
17916874054
17916881561
17916886017
17916895538
17916901947
17916906891
17916914520
17916919952
17916927521
17916935638
17916942841
17916948822
17916954803
17916962433
17916969452
17916976227
17916981842
17916987335
17916995941
17916999542
17917007538
17917012787
17917019928
17917028351
17917034393
17917040558
17917046234
17917052337
17917058868
17917063507
17917071563
17917078826
17917083526
17917089935
17917094451
17917101715
17917107086
17917113677
17917120452
17917128204
17917133514
17917139739
17917145233
17917152740
17917158477
17917163665
17917170135
17917175506
17917182098
17917186004
17917193084
17917199676
17917204070
17917211517
17917217315
17917222991
17917229766
17917234222
17917240569
17917243926
17917251250
17917257781
17917263335
17917270782
17917277679
17917283660
17917290069
17917296538
17917301726
17917308684
17917315032
17917320769
17917325835
17917332732
17917338347
17917346160
17917352752
17917357512
17917365447
17917372954
17917379546
17917385405
17917391814
17917399443
17917405791
17917412749
17917418120
17917424590
17917431548
17917436614
17917445952
17917452727
17917457915
17917464812
17917472441
17917479094
17917486052
17917492949
17917500029
17917507048
17917513640
17917519560
17917526701
17917533781
17917541289
17917546355
17917552885
17917559843
17917565153
17917572172
17917576201
17917585417
17917592619
17917599211
17917605742
17917611601
17917620634
17917627653
17917633879
17917641264
17917646330
17917653715
17917661161
17917666899
17917673185
17917680326
17917686430
17917693022
17917698271
17917705534
17917712248
17917717985
17917724638
17917731779
17917737089
17917744657
17917749052
17917757475
17917763883
17917770841
17917776945
17917784086
17917789823
17917795011
17917803617
17917810392
17917815824
17917823637
17917828825
17917835477
17917841276
17917850370
17917857633
17917864652
17917872037
17917877225
17917885099
17917891080
17917899137
17917904935
17917914579
17917921476
17917929410
17917935758
17917941800
17917948941
17917954740
17917963224
17917971952
17917977689
17917985135
17917991300
17917999234
17918006192
17918014737
17918021024
17918028470
17918038236
17918045011
17918053372
17918059842
17918070767
17918077725
17918085477
17918091702
17918098355
17918105985
17918113980
17918120694
17918129788
17918138455
17918144864
17918153470
17918159085
17918165799
17918174466
17918182767
17918190213
17918195828
17918201993
17918210843
17918216824
17918224087
17918230069
17918238614
17918247647
17918254177
17918262295
17918268399
17918276455
17918283169
17918292752
17918299893
17918308499
17918316189
17918325833
17918331204
17918342434
17918347500
17918355984
17918362759
17918372036
17918380276
17918387234
17918392300
17918404018
17918411953
17918421719
17918429470
17918436123
17918443386
17918450771
17918456631
17918461758
17918470058
17918475796
17918480678
17918488186
17918494350
17918501674
17918507839
17918514553
17918520961
17918526027
17918533291
17918539394
17918545742
17918552822
17918558986
17918565578
17918569118
17918576686
17918580226
17918593044
17918599147
17918606899
17918613429
17918619411
17918625270
17918628749
17918638759
17918646022
17918650478
17918656947
17918660854
17918669338
17918673366
17918680507
17918687343
17918692653
17918701137
17918705836
17918713100
17918718654
17918724696
17918733180
17918738490
17918744960
17918751063
17918756373
17918763209
17918768703
17918774928
17918780299
17918786464
17918792140
17918797389
17918803554
17918809657
17918816432
17918821559
17918827845
17918833400
17918839747
17918845607
17918850734
17918857447
17918863307
17918868983
17918874354
17918881556
17918884913
17918892420
17918898158
17918905177
17918911097
17918917140
17918922816
17918928431
17918934840
17918940211
17918947901
17918953578
17918962306
17918970118
17918974940
17918984095
17918990382
17918998377
17919006007
17919012354
17919019739
17919027064
17919033350
17919042322
17919048609
17919056422
17919060267
17919068323
17919074854
17919079676
17919088282
17919093531
17919100550
17919104578
17919112330
17919119288
17919125574
17919133081
17919138392
17919146021
17919151270
17919158838
17919165064
17919171839
17919179285
17919184900
17919191370
17919197290
17919204737
17919211817
17919218408
17919225122
17919232385
17919238550
17919245874
17919252649
17919260645
17919266199
17919274744
17919281397
17919287805
17919293542
17919299890
17919306726
17919314050
17919321252
17919326807
17919333887
17919341760
17919347620
17919355432
17919360864
17919368738
17919374841
17919382776
17919386865
17919396081
17919403283
17919410302
17919417688
17919422265
17919431054
17919438012
17919445825
17919451318
17919459741
17919467919
17919472619
17919482629
17919485376
17919495385
17919503259
17919511071
17919518945
17919526208
17919533349
17919537194
17919546288
17919553063
17919559594
17919567284
17919575463
17919582848
17919592065
17919598107
17919604089
17919612878
17919616967
17919626366
17919631310
17919641015
17919648278
17919655419
17919661828
17919670128
17919678124
17919686913
17919694115
17919700951
17919710473
17919715172
17919726159
17919733483
17919741845
17919748009
17919753746
17919761437
17919767174
17919774620
17919780358
17919788414
17919795433
17919809532
17919817040
17919824486
17919831566
17919839195
17919848778
17919855431
17919865929
17919875877
17919885521
17919894554
17919905846
17919917686
17919929344
17919940086
17919950706
17919967308
17919978355
17919989769
17920002403
17920011741
17920021995
17920030967
17920040428
17920050804
17920060142
17920071006
17920081016
17920089988
17920098350
17920106162
17920115013
17920123802
17920133750
17920142661
17920151695
17920160667
17920170799
17920178489
17920188071
17920197593
17920207114
17920215415
17920224265
17920233726
17920242759
17920251365
17920260459
17920267722
17920277427
17920288352
17920295371
17920305869
17920315696
17920323752
17920331565
17920342307
17920350058
17920362693
17920371360
17920379965
17920400717
17920419882
17920438681
17920456564
17920475668
17920494711
17920512350
17920532919
17920551901
17920569967
17920579550
17920588278
17920598227
17920612387
17920626059
17920640707
17920656515
17920672262
17920682943
17920690695
17920703878
17920713705
17920723043
17920732748
17920742513
17920751730
17920760091
17920770834
17920780172
17920789571
17920799337
17920808309
17920816366
17920826620
17920836141
17920846273
17920854024
17920864400
17920873739
17920882039
17920891805
17920899740
17920912679
17920921285
17920933248
17920939046
17920951619
17920962545
17920973287
17920980977
17920991475
17921000142
17921009480
17921017598
17921028096
17921035603
17921046651
17921055074
17921064229
17921074178
17921087544
17921096028
17921104695
17921111409
17921122884
17921132588
17921141926
17921151875
17921160542
17921171773
17921181294
17921191243
17921202168
17921211079
17921220173
17921228779
17921238667
17921247761
17921259358
17921266987
17921280232
17921290486
17921299519
17921310383
17921320210
17921330097
17921337971
17921350666
17921356098
17921368794
17921378254
17921387287
17921397724
17921407429
17921417805
17921426594
17921438496
17921447529
17921456989
17921467426
17921475422
17921486469
17921496540
17921505329
17921516681
17921526813
17921537922
17921547138
17921557331
17921567829
17921576801
17921586566
17921594745
17921607440
17921618610
17921626972
17921637164
17921649493
17921658954
17921669696
17921679889
17921689044
17921696429
17921708453
17921717120
17921725970
17921734027
17921740192
17921747638
17921753802
17921761127
17921764972
17921775897
17921778155
17921789630
17921796771
17921804095
17921810016
17921815936
17921821612
17921827105
17921834430
17921840716
17921847003
17921852862
17921859698
17921865924
17921870990
17921879290
17921885333
17921891741
17921897479
17921905779
17921911395
17921917437
17921925372
17921930743
17921938555
17921944964
17921951922
17921958147
17921964434
17921969561
17921977374
17921983660
17921992388
17921996783
17922008196
17922016802
17922022600
17922030230
17922036700
17922043169
17922051775
17922056536
17922065569
17922072283
17922081133
17922088213
17922095476
17922102434
17922111162
17922117571
17922123674
17922132219
17922139605
17922145342
17922153459
17922160112
17922167803
17922175310
17922181475
17922189470
17922196611
17922204790
17922210588
17922219133
17922225481
17922233476
17922238176
17922247026
17922251848
17922262285
17922267229
17922276933
17922283891
17922293535
17922298357
17922306718
17922313798
17922319719
17922326066
17922332353
17922338029
17922343584
17922349992
17922355852
17922361528
17922367448
17922374589
17922381547
17922386247
17922392412
17922397722
17922404435
17922410234
17922415605
17922421891
17922429216
17922435197
17922441240
17922449784
17922456498
17922462419
17922466264
17922474198
17922480729
17922486955
17922492997
17922499223
17922506547
17922512650
17922517472
17922524980
17922532670
17922537003
17922543534
17922549271
17922554887
17922559586
17922566056
17922573319
17922577836
17922582169
17922588944
17922594010
17922600541
17922605851
17922612504
17922619034
17922623490
17922628800
17922634720
17922640824
17922645768
17922652299
17922658951
17922664628
17922669755
17922675004
17922680558
17922685746
17922693253
17922698075
17922704789
17922709122
17922715897
17922721207
17922726456
17922729630
17922737992
17922744706
17922748978
17922756119
17922760330
17922766739
17922773026
17922778824
17922783707
17922791458
17922796402
17922803604
17922806839
17922814163
17922820267
17922827042
17922834122
17922840592
17922845474
17922852005
17922857559
17922864090
17922871170
17922876724
17922884232
17922889297
17922896378
17922901871
17922908951
17922912491
17922922500
17922929581
17922935806
17922941055
17922946976
17922951309
17922958328
17922961807
17922970962
17922977615
17922984695
17922990616
17922997879
17923005447
17923010452
17923017471
17923022598
17923030593
17923036209
17923042434
17923049270
17923055130
17923060562
17923067886
17923073379
17923079727
17923085220
17923092361
17923097976
17923106033
17923111587
17923118423
17923124343
17923129775
17923135024
17923142776
17923146621
17923154678
17923158523
17923167800
17923175063
17923181899
17923187392
17923194045
17923200576
17923207229
17923214492
17923220229
17923227065
17923234023
17923239760
17923245132
17923253066
17923258498
17923267470
17923272841
17923279921
17923285170
17923291030
17923296279
17923303664
17923307509
17923314772
17923320021
17923327285
17923331496
17923339736
17923346022
17923352004
17923357741
17923365004
17923370925
17923379836
17923384352
17923393080
17923400160
17923405470
17923411208
17923418532
17923425673
17923431227
17923437880
17923444655
17923451247
17923456496
17923463820
17923472853
17923477614
17923487624
17923491774
17923500868
17923507704
17923515211
17923523024
17923529677
17923535963
17923545973
17923550429
17923559218
17923565321
17923572523
17923578505
17923587111
17923596937
17923602736
17923608778
17923616468
17923622999
17923632582
17923639051
17923646376
17923653334
17923663343
17923667860
17923677259
17923683485
17923691969
17923698683
17923706983
17923713758
17923721998
17923728407
17923736952
17923743421
17923750868
17923757581
17923765638
17923774427
17923782911
17923790235
17923798353
17923804883
17923812147
17923818067
17923828626
17923835157
17923843824
17923850416
17923860547
17923866407
17923874036
17923881849
17923888562
17923898267
17923906324
17923914075
17923921216
17923930860
17923938794
17923946668
17923954724
17923961866
17923968946
17923974927
17923980542
17923986646
17923993115
17923998425
17924003186
17924010449
17924017102
17924023450
17924030042
17924036267
17924041760
17924046765
17924055127
17924058667
17924068005
17924076306
17924083020
17924089978
17924096509
17924102246
17924109448
17924115979
17924121472
17924127514
17924132886
17924139477
17924144482
17924150891
17924155774
17924162793
17924167981
17924175122
17924178906
17924187390
17924191174
17924199536
17924203259
17924212658
17924219250
17924224926
17924230236
17924235424
17924240918
17924245556
17924251477
17924257153
17924262524
17924267163
17924272412
17924277233
17924284497
17924290356
17924297619
17924304211
17924308605
17924314770
17924320568
17924326183
17924333569
17924339184
17924344860
17924350903
17924356030
17924362194
17924368542
17924375378
17924381115
17924388866
17924394604
17924399120
17924405224
17924410717
17924416759
17924422253
17924429333
17924435497
17924441601
17924445995
17924452526
17924458751
17924463878
17924468639
17924475292
17924480236
17924487987
17924492077
17924500194
17924503917
17924512828
17924518932
17924525219
17924530223
17924536693
17924542614
17924548717
17924555248
17924560497
17924567516
17924573314
17924581005
17924586498
17924594066
17924599437
17924607860
17924613414
17924621349
17924627330
17924634166
17924639659
17924646861
17924651866
17924660106
17924665843
17924672191
17924679332
17924684825
17924690440
17924698009
17924703441
17924710765
17924716075
17924724254
17924728160
17924735728
17924739573
17924747630
17924754832
17924761058
17924767589
17924773631
17924779551
17924785594
17924787730
17924796763
17924802684
17924810862
17924816722
17924823802
17924831431
17924837107
17924843882
17924850596
17924857310
17924864634
17924870921
17924878123
17924885142
17924890574
17924899302
17924904917
17924914012
17924920481
17924928294
17924934702
17924940257
17924945994
17924954234
17924958323
17924966380
17924970408
17924979807
17924987131
17924994028
17924996287
17925006602
17925014231
17925019480
17925026499
17925031321
17925037058
17925043223
17925050059
17925055674
17925064158
17925069651
17925077036
17925082529
17925089426
17925094919
17925102304
17925109690
17925117136
17925123117
17925131845
17925138254
17925144907
17925150949
17925155771
17925162668
17925167795
17925175730
17925181650
17925188791
17925196237
17925203073
17925208688
17925216379
17925223337
17925227976
17925239267
17925243662
17925255014
17925259714
17925268625
17925273264
17925283029
17925290536
17925298654
17925303049
17925313425
17925326425
17925345834
17925356271
17925365121
17925374765
17925382699
17925391855
17925400033
17925407052
17925415719
17925424081
17925431161
17925435006
17925444039
17925451913
17925458871
17925462777
17925471139
17925475045
17925484567
17925491830
17925499093
17925507089
17925513253
17925520699
17925528939
17925536141
17925543160
17925550240
17925558114
17925567269
17925577828
17925584786
17925592049
17925601693
17925610116
17925616952
17925625191
17925632821
17925638802
17925646798
17925655404
17925661934
17925668953
17925675057
17925681954
17925687325
17925693978
17925700692
17925707955
17925714730
17925720528
17925726876
17925731514
17925739022
17925744149
17925750130
17925755196
17925761849
17925766976
17925773018
17925778633
17925786751
17925792061
17925799629
17925804939
17925812080
17925817574
17925824776
17925831245
17925837532
17925841133
17925849922
17925855293
17925862007
17925868965
17925875740
17925881050
17925887642
17925894112
17925900886
17925906807
17925911384
17925918159
17925922310
17925927925
17925933845
17925939155
17925945869
17925950935
17925955574
17925961738
17925967293
17925971687
17925976692
17925984871
17925988655
17925995979
17926001716
17926007270
17926012764
17926018318
17926024299
17926029914
17926035347
17926039985
17926045234
17926049995
17926056159
17926060676
17926066474
17926073677
17926079292
17926084358
17926089973
17926096198
17926101081
17926109443
17926114265
17926120246
17926125495
17926133125
17926138496
17926146247
17926149787
17926159370
17926165412
17926170295
17926178290
17926183723
17926191718
17926198249
17926205939
17926209968
17926218513
17926226081
17926231513
17926239448
17926246222
17926253974
17926259833
17926266669
17926273688
17926281012
17926289985
17926295050
17926300910
17926310492
17926316413
17926322638
17926327582
17926333808
17926340583
17926346808
17926351508
17926358344
17926365058
17926370307
17926378607
17926383612
17926390448
17926397040
17926402594
17926409430
17926415595
17926420905
17926427618
17926432929
17926439764
17926445074
17926451422
17926457037
17926464545
17926470038
17926476996
17926482672
17926491766
17926495734
17926504523
17926510504
17926517401
17926524847
17926530401
17926537420
17926544256
17926552252
17926557379
17926564154
17926568914
17926575323
17926581976
17926587774
17926592657
17926600775
17926606268
17926612432
17926619451
17926626226
17926631781
17926638067
17926643865
17926651617
17926656988
17926662725
17926668279
17926675482
17926680792
17926688360
17926692205
17926699713
17926705755
17926712225
17926716497
17926724615
17926731573
17926738226
17926742681
17926751592
17926755743
17926767522
17926772100
17926782354
17926789983
17926796575
17926803594
17926810064
17926816472
17926821294
17926828130
17926833013
17926840215
17926845708
17926853948
17926860174
17926868902
17926875005
17926883001
17926889470
17926897527
17926903203
17926911931
17926919011
17926926458
17926934697
17926940618
17926948247
17926952825
17926962102
17926966802
17926976933
17926986211
17926992375
17926997075
17927006658
17927013738
17927021245
17927027593
17927036870
17927041631
17927050969
17927055730
17927063664
17927070439
17927078252
17927086796
17927093144
17927098942
17927107731
17927114628
17927121586
17927127690
17927135930
17927143376
17927149785
17927158452
17927164982
17927172795
17927178776
17927186345
17927192997
17927201359
17927206120
17927215885
17927224247
17927230839
17927238529
17927246525
17927253361
17927261418
17927268864
17927276554
17927285343
17927295231
17927302067
17927310368
17927316715
17927325260
17927332584
17927340458
17927347111
17927354862
17927360844
17927367863
17927374271
17927379948
17927387333
17927392765
17927399540
17927404972
17927412113
17927417423
17927424869
17927428531
17927435673
17927441471
17927448551
17927453129
17927459171
17927464786
17927470585
17927476566
17927481083
17927487064
17927493961
17927500248
17927506656
17927513187
17927518070
17927526004
17927531375
17927539066
17927544376
17927551639
17927558536
17927565067
17927570621
17927577945
17927583499
17927590579
17927596256
17927603336
17927608707
17927615848
17927621158
17927627139
17927632205
17927640689
17927646426
17927652347
17927658511
17927665164
17927671573
17927675845
17927682986
17927689761
17927695499
17927700259
17927707767
17927713016
17927719180
17927725467
17927732120
17927737735
17927743411
17927746951
17927754153
17927760562
17927766543
17927773196
17927780093
17927786258
17927793704
17927799319
17927805362
17927810733
17927817019
17927823611
17927829104
17927835330
17927840457
17927847598
17927852603
17927860293
17927866641
17927872622
17927878420
17927884402
17927890566
17927896670
17927903140
17927910037
17927916384
17927923769
17927929385
17927936831
17927943301
17927948611
17927955935
17927961001
17927968691
17927976137
17927982302
17927988100
17927994631
17928000246
17928006777
17928012209
17928020022
17928026247
17928033754
17928039614
17928047670
17928054628
17928060122
17928067751
17928075136
17928079165
17928088320
17928092348
17928101686
17928107729
17928112612
17928119326
17928127382
17928133913
17928141481
17928147463
17928154360
17928161440
17928168764
17928176088
17928181886
17928189516
17928195009
17928202638
17928207826
17928215334
17928220094
17928228700
17928234377
17928240968
17928246278
17928252443
17928257692
17928265199
17928269044
17928277162
17928281007
17928288759
17928294984
17928301576
17928305299
17928313722
17928320009
17928327089
17928333375
17928340028
17928347108
17928353517
17928359620
17928366151
17928372316
17928378968
17928387452
17928393312
17928400636
17928405702
17928413087
17928420350
17928427613
17928433534
17928441407
17928447145
17928454225
17928460328
17928467042
17928472474
17928481446
17928487550
17928493470
17928498841
17928505677
17928511231
17928518922
17928525269
17928532410
17928539002
17928545655
17928549378
17928559083
17928563050
17928571290
17928578187
17928585999
17928594422
17928600709
17928606995
17928615296
17928622559
17928630616
17928637696
17928646851
17928653931
17928661561
17928667603
17928674317
17928681946
17928688843
17928694580
17928703736
17928709717
17928717713
17928725525
17928731873
17928737793
17928744995
17928752136
17928758362
17928766358
17928775086
17928780518
17928787781
17928795471
17928802185
17928810730
17928818298
17928825501
17928830322
17928840210
17928845215
17928855408
17928860107
17928870422
17928878540
17928888367
17928896667
17928904846
17928911865
17928919433
17928927246
17928935852
17928942138
17928950500
17928958069
17928966919
17928973388
17928978332
17928989379
17928994629
17929003112
17929010070
17929019836
17929024841
17929034667
17929041625
17929049743
17929057006
17929065490
17929071349
17929080261
17929086120
17929095092
17929100890
17929108154
17929113342
17929118896
17929124999
17929131042
17929136169
17929143737
17929148864
17929155456
17929160094
17929167174
17929173339
17929179626
17929185912
17929191894
17929197387
17929203429
17929210265
17929214904
17929222777
17929230407
17929236083
17929240416
17929246947
17929253051
17929258849
17929265075
17929270018
17929276610
17929283385
17929288329
17929295836
17929299742
17929307494
17929314208
17929321166
17929327269
17929332946
17929338500
17929344115
17929349364
17929354735
17929360594
17929366759
17929372557
17929378233
17929384032
17929388609
17929395201
17929399535
17929408263
17929413390
17929418517
17929424132
17929429381
17929434996
17929440733
17929447020
17929453429
17929458800
17929463438
17929471434
17929478331
17929482664
17929489317
17929495970
17929502196
17929508604
17929514097
17929519835
17929525450
17929529722
17929538023
17929543760
17929549803
17929555113
17929562498
17929565977
17929572935
17929578489
17929584654
17929588255
17929595396
17929601438
17929607237
17929612425
17929618589
17929626890
17929631590
17929637937
17929644956
17929651121
17929656553
17929663267
17929668760
17929674497
17929681577
17929687742
17929693235
17929699156
17929704954
17929713133
17929718931
17929726011
17929731687
17929738035
17929743711
17929751157
17929756773
17929764097
17929768003
17929776731
17929783933
17929790708
17929797178
17929802244
17929809263
17929815915
17929821531
17929828000
17929834104
17929840268
17929845578
17929851743
17929857969
17929862607
17929869931
17929875425
17929882138
17929889280
17929896054
17929902463
17929909299
17929915219
17929922910
17929928952
17929934568
17929939878
17929946591
17929951901
17929958615
17929963986
17929972104
17929975949
17929984555
17929990109
17929998410
17930002438
17930010922
17930014829
17930023923
17930031247
17930036557
17930043210
17930050168
17930056699
17930063351
17930068722
17930075741
17930082883
17930089841
17930097287
17930102902
17930109616
17930116818
17930124142
17930130185
17930138119
17930143429
17930151364
17930158993
17930165402
17930170651
17930177853
17930185116
17930191403
17930197445
17930203976
17930211911
17930219052
17930225094
17930233822
17930240048
17930247067
17930253353
17930260250
17930265621
17930272823
17930280026
17930286678
17930294369
17930302059
17930310238
17930317196
17930326473
17930334164
17930342281
17930352596
17930359554
17930368770
17930377071
17930384029
17930391598
17930398495
17930404171
17930411922
17930420589
17930427181
17930434749
17930442501
17930449825
17930454097
17930463985
17930468197
17930478084
17930485591
17930492855
17930497310
17930506099
17930510433
17930520198
17930528072
17930533931
17930540218
17930549495
17930555477
17930563228
17930569332
17930576167
17930581905
17930590999
17930600215
17930607661
17930613826
17930621028
17930627010
17930635677
17930641109
17930650203
17930659480
17930667232
17930673091
17930680659
17930688533
17930695247
17930703059
17930709163
17930718257
17930726863
17930735103
17930742549
17930748591
17930756953
17930764888
17930769221
17930779292
17930786616
17930793818
17930797847
17930807551
17930812007
17930820918
17930827265
17930834223
17930839839
17930846552
17930853816
17930859858
17930868037
17930874140
17930882746
17930887690
17930893610
17930898982
17930906428
17930910151
17930917109
17930923640
17930928461
17930934321
17930940363
17930946711
17930953181
17930959406
17930965998
17930971064
17930978876
17930985651
17930991633
17930996699
17931002619
17931008845
17931013361
17931021662
17931027399
17931033747
17931039179
17931045588
17931050409
17931056513
17931061090
17931067865
17931072565
17931079096
17931085138
17931091120
17931094355
17931101984
17931109064
17931114130
17931120783
17931124933
17931130426
17931136469
17931142267
17931147455
17931154596
17931159662
17931166193
17931169550
17931176141
17931181757
17931187250
17931190668
17931198602
17931204096
17931209528
17931213861
17931219781
17931226007
17931232355
17931239130
17931245172
17931250604
17931255487
17931262018
17931267389
17931274774
17931278497
17931286920
17931292901
17931299005
17931305475
17931312311
17931318475
17931325433
17931333307
17931338800
17931345636
17931352044
17931358331
17931364923
17931371209
17931376397
17931384332
17931390130
17931396783
17931403863
17931409967
17931415155
17931422479
17931430230
17931437737
17931443231
17931449822
17931455193
17931461846
17931467217
17931474847
17931478753
17931486016
17931491326
17931498956
17931502862
17931510186
17931516534
17931522759
17931526665
17931534600
17931538872
17931547112
17931553948
17931563653
17931569756
17931576287
17931584588
17931589898
17931597039
17931602166
17931608574
17931613518
17931621392
17931626397
17931633782
17931639702
17931647149
17931653618
17931659600
17931665703
17931671746
17931677239
17931684502
17931692070
17931696709
17931704399
17931708977
17931715203
17931721245
17931727410
17931734978
17931742851
17931748467
17931754692
17931764458
17931771172
17931777825
17931785637
17931794060
17931799614
17931808525
17931815788
17931822929
17931828972
17931836113
17931844231
17931851738
17931858879
17931864860
17931871696
17931880363
17931886467
17931892937
17931900627
17931907280
17931914360
17931919731
17931928154
17931935295
17931941887
17931947258
17931953605
17931960136
17931967155
17931974784
17931980888
17931988273
17931995780
17932004631
17932011466
17932019462
17932026664
17932035942
17932043388
17932049980
17932056693
17932065543
17932072440
17932080741
17932089774
17932097038
17932103812
17932112052
17932118949
17932127555
17932134147
17932141410
17932148246
17932158561
17932180656
17932188956
17932194022
17932202872
17932210380
17932218497
17932226737
17932232962
17932242423
17932248099
17932256217
17932265616
17932273307
17932280143
17932288871
17932295218
17932303702
17932308341
17932317130
17932323966
17932332022
17932339224
17932346549
17932352896
17932360037
17932366324
17932376273
17932382620
17932389517
17932398795
17932401602
17932415274
17932422232
17932428946
17932434012
17932447317
17932454336
17932461966
17932466421
17932474173
17932480704
17932488211
17932495413
17932502005
17932506338
17932513785
17932517264
17932524954
17932528677
17932536367
17932542166
17932548086
17932552908
17932560293
17932566885
17932572988
17932578115
17932584463
17932591299
17932596365
17932603140
17932608816
17932615835
17932620535
17932627310
17932632192
17932639395
17932644277
17932651602
17932656301
17932662283
17932669729
17932675955
17932681875
17932689382
17932694997
17932703848
17932707632
17932717031
17932723928
17932731130
17932736623
17932742178
17932750234
17932756948
17932763296
17932769216
17932775869
17932781423
17932787893
17932793447
17932800100
17932803274
17932811147
17932818288
17932824148
17932831472
17932836416
17932843190
17932850759
17932856130
17932862600
17932869374
17932875844
17932882680
17932888967
17932894338
17932898000
17932905751
17932913014
17932917897
17932925038
17932931142
17932936696
17932942494
17932948354
17932954701
17932961659
17932967336
17932973256
17932979237
17932986318
17932992482
17932998769
17933005910
17933012440
17933019948
17933025807
17933031850
17933039296
17933047414
17933052846
17933059437
17933067372
17933071217
17933079152
17933083119
17933092579
17933099232
17933106679
17933112355
17933116078
17933125721
17933132008
17933137623
17933144276
17933151722
17933157887
17933163380
17933171376
17933177540
17933185170
17933191517
17933198414
17933205189
17933210499
17933218128
17933224842
17933232960
17933241505
17933249500
17933256153
17933261646
17933270496
17933278004
17933284473
17933291431
17933297962
17933304371
17933310719
17933316761
17933325977
17933332264
17933338917
17933346058
17933352283
17933359119
17933365650
17933373096
17933378895
17933384937
17933393116
17933400684
17933406910
17933414478
17933421314
17933427662
17933433948
17933440540
17933447315
17933453662
17933460987
17933466785
17933475818
17933483081
17933488269
17933495471
17933503040
17933509021
17933514575
17933522449
17933526721
17933535022
17933543384
17933550159
17933558521
17933565173
17933573230
17933577564
17933586719
17933593555
17933601001
17933607776
17933615894
17933623523
17933629626
17933637195
17933643115
17933651172
17933659900
17933668628
17933676501
17933685351
17933693286
17933700549
17933707690
17933715930
17933722888
17933730090
17933737414
17933744555
17933752612
17933759326
17933768176
17933774829
17933783068
17933789965
17933798815
17933803515
17933811083
17933817248
17933825366
17933830737
17933839892
17933848620
17933856371
17933862231
17933869372
17933875964
17933885180
17933893847
17933899767
17933909533
17933914843
17933924792
17933930468
17933940722
17933946459
17933958910
17933965746
17933973620
17933982165
17933989428
17933997057
17934005907
17934012499
17934019396
17934028185
17934035021
17934043261
17934048082
17934058641
17934064012
17934074388
17934083361
17934089037
17934096178
17934102037
17934108019
17934114916
17934121080
17934127977
17934132799
17934139696
17934145799
17934151598
17934158617
17934163194
17934170763
17934175768
17934181566
17934186815
17934194749
17934202074
17934207201
17934214952
17934218553
17934225694
17934233751
17934238756
17934246446
17934251451
17934259569
17934263170
17934270677
17934277696
17934282884
17934290880
17934296983
17934304185
17934309739
17934315904
17934323167
17934328721
17934334337
17934340623
17934347459
17934352830
17934357957
17934364000
17934370347
17934376695
17934382432
17934387559
17934393113
17934398912
17934404649
17934410569
17934417405
17934422593
17934427232
17934433213
17934436814
17934445970
17934452195
17934457383
17934463670
17934470200
17934474778
17934482529
17934488816
17934496568
17934501572
17934510056
17934516465
17934523240
17934528550
17934533982
17934543687
17934549241
17934556504
17934563096
17934569871
17934576584
17934583420
17934590989
17934596604
17934602402
17934610276
17934616562
17934622544
17934629563
17934637131
17934643845
17934648178
17934656357
17934662705
17934669052
17934678025
17934683396
17934690537
17934697617
17934703781
17934709152
17934716110
17934724106
17934729416
17934736435
17934742661
17934749008
17934755234
17934762619
17934770248
17934777023
17934783798
17934790207
17934796249
17934801559
17934808212
17934815903
17934822006
17934829391
17934835678
17934842087
17934848373
17934853134
17934861313
17934866806
17934873520
17934879318
17934887314
17934895004
17934902511
17934910141
17934917709
17934924118
17934930221
17934936752
17934944442
17934950851
17934957626
17934963363
17934970077
17934975448
17934983505
17934990036
17934995895
17935003951
17935009506
17935017013
17935024154
17935030258
17935036361
17935044296
17935051925
17935058761
17935065353
17935071456
17935080245
17935089462
17935098495
17935105697
17935111800
17935120345
17935127975
17935134811
17935141463
17935148482
17935154464
17935165694
17935173018
17935178756
17935186446
17935192183
17935200179
17935208907
17935216720
17935221663
17935232528
17935237593
17935249556
17935257491
17935266646
17935272994
17935281356
17935287337
17935294966
17935302352
17935307906
17935317244
17935325850
17935334151
17935341170
17935349776
17935357954
17935364302
17935372115
17935378584
17935387801
17935395613
17935408186
17935415816
17935424116
17935429365
17935439436
17935447798
17935453413
17935461104
17935468001
17935476668
17935483137
17935491377
17935499067
17935506636
17935514753
17935522749
17935529951
17935538618
17935545881
17935554731
17935563276
17935569929
17935577925
17935585127
17935594587
17935602094
17935611799
17935616926
17935628034
17935636640
17935645429
17935651472
17935658979
17935667890
17935675275
17935683454
17935688703
17935695783
17935701276
17935707624
17935714155
17935720991
17935727460
17935732893
17935738996
17935745100
17935753278
17935759626
17935764875
17935772504
17935779584
17935786115
17935789960
17935798139
17935804059
17935810651
17935817609
17935824567
17935830426
17935836530
17935842450
17935849652
17935855939
17935862592
17935868512
17935873944
17935879560
17935885358
17935891950
17935898541
17935904340
17935910687
17935916303
17935922040
17935926679
17935932660
17935938703
17935945233
17935952741
17935958356
17935964337
17935969159
17935975568
17935981915
17935988263
17935993268
17935998578
17936006085
17936009381
17936017255
17936024152
17936030133
17936036664
17936042218
17936047833
17936054181
17936060284
17936065594
17936070355
17936077740
17936083844
17936089459
17936095196
17936101910
17936109601
17936115033
17936121685
17936127362
17936133648
17936140179
17936146283
17936152081
17936158795
17936163555
17936169903
17936174664
17936183209
17936188275
17936195355
17936202008
17936210308
17936215862
17936222149
17936229168
17936236187
17936241436
17936249432
17936256146
17936262615
17936268108
17936275372
17936279583
17936288616
17936296795
17936303326
17936309429
17936316448
17936323101
17936330608
17936338055
17936343975
17936349651
17936357525
17936364666
17936370952
17936377178
17936384014
17936390545
17936396282
17936404155
17936410869
17936417095
17936424419
17936429973
17936438640
17936444133
17936452617
17936459209
17936466472
17936472759
17936478313
17936485271
17936491130
17936498699
17936506389
17936513042
17936519756
17936527873
17936534404
17936540691
17936548503
17936555095
17936561076
17936567058
17936572856
17936579997
17936586772
17936593242
17936599590
17936606486
17936611980
17936620158
17936625468
17936633159
17936640727
17936647502
17936652812
17936658793
17936666850
17936673503
17936681498
17936686747
17936693583
17936700053
17936707682
17936714335
17936720866
17936727397
17936734111
17936741618
17936748515
17936755595
17936761271
17936768717
17936774821
17936782633
17936789530
17936796183
17936802287
17936807597
17936814494
17936821269
17936831706
17936838053
17936846537
17936852702
17936860392
17936866496
17936874003
17936880839
17936888834
17936897379
17936904948
17936911600
17936919291
17936927531
17936935526
17936942667
17936952616
17936957682
17936966166
17936973185
17936981974
17936990641
17936998942
17937005228
17937013651
17937018595
17937029825
17937037210
17937045206
17937054178
17937060770
17937070475
17937077005
17937084024
17937090677
17937102579
17937112100
17937120401
17937129923
17937137613
17937144754
17937150675
17937159586
17937167215
17937176309
17937184000
17937192972
17937200601
17937207437
17937216531
17937224100
17937232217
17937241373
17937249612
17937255777
17937263467
17937269143
17937276712
17937283182
17937289956
17937295877
17937302591
17937310220
17937316507
17937322671
17937329507
17937336160
17937341958
17937349221
17937355020
17937359292
17937366677
17937373696
17937380593
17937384072
17937392251
17937398355
17937404153
17937411843
17937419351
17937425881
17937430642
17937438516
17937443948
17937450478
17937456887
17937463723
17937469582
17937476357
17937482156
17937488076
17937493447
17937500527
17937507485
17937513711
17937520486
17937526345
17937532815
17937537148
17937544594
17937550820
17937557534
17937563454
17937567483
17937575722
17937582680
17937589577
17937595925
17937600075
17937607766
17937613137
17937618813
17937625832
17937633217
17937638466
17937644570
17937649758
17937656899
17937661354
17937669106
17937675331
17937680825
17937687599
17937694557
17937700173
17937707558
17937714028
17937719338
17937726174
17937732582
17937739967
17937745400
17937751625
17937758339
17937764259
17937771217
17937774879
17937783974
17937790993
17937798073
17937803810
17937809425
17937818275
17937824562
17937830543
17937837562
17937843849
17937852028
17937858681
17937865394
17937870888
17937875770
17937884987
17937890907
17937896888
17937903907
17937909034
17937919288
17937926796
17937932960
17937940162
17937946754
17937955055
17937961036
17937968055
17937975502
17937983009
17937990455
17937996498
17938002540
17938006568
17938014381
17938018531
17938029212
17938035743
17938040748
17938047279
17938052955
17938060645
17938067054
17938074439
17938081397
17938088721
17938094947
17938101051
17938110084
17938118018
17938124793
17938132300
17938139197
17938147193
17938155860
17938160987
17938167701
17938174720
17938181006
17938187476
17938194434
17938201270
17938206702
17938215430
17938222083
17938228308
17938234168
17938241187
17938247412
17938255347
17938262549
17938268470
17938276282
17938283057
17938289527
17938294409
17938302893
17938309912
17938318091
17938325110
17938331336
17938338049
17938345191
17938353003
17938360388
17938366858
17938373022
17938379980
17938386206
17938394751
17938400244
17938409033
17938415503
17938424841
17938432348
17938438513
17938447119
17938452734
17938460119
17938465918
17938474707
17938483557
17938490149
17938495520
17938502722
17938510290
17938516577
17938524389
17938532202
17938538855
17938547644
17938554235
17938562048
17938568518
17938576330
17938582983
17938592260
17938597204
17938606054
17938613378
17938620458
17938624792
17938634496
17938638952
17938649999
17938656652
17938664037
17938671606
17938677465
17938685094
17938694189
17938700475
17938710729
17938718175
17938723913
17938732091
17938740636
17938747289
17938755285
17938765233
17938774633
17938782201
17938788915
17938796483
17938803136
17938812535
17938818456
17938827794
17938837743
17938845494
17938852269
17938859227
17938866613
17938872838
17938878697
17938887853
17938895726
17938902379
17938908238
17938913976
17938920934
17938926793
17938932897
17938937962
17938945470
17938949498
17938958165
17938964452
17938971410
17938976659
17938983250
17938989171
17938994054
17939001439
17939005345
17939013097
17939021092
17939027562
17939033909
17939039158
17939045811
17939050816
17939057774
17939063267
17939070653
17939077305
17939082066
17939089879
17939096043
17939102025
17939107518
17939115452
17939121067
17939126500
17939132298
17939136875
17939143101
17939148899
17939156712
17939161595
17939167149
17939173496
17939178318
17939185215
17939190525
17939196385
17939202244
17939207737
17939213230
17939219151
17939224827
17939229038
17939236912
17939242283
17939247532
17939253391
17939259007
17939264927
17939269993
17939276279
17939282261
17939288364
17939294529
17939300571
17939305210
17939311863
17939319858
17939325413
17939330906
17939336765
17939344150
17939351169
17939358066
17939365513
17939372165
17939378818
17939386387
17939392612
17939399082
17939404575
17939412693
17939419040
17939425571
17939432712
17939439548
17939445224
17939451389
17939458835
17939464694
17939471652
17939478916
17939485629
17939492038
17939497348
17939504367
17939511508
17939517124
17939523776
17939530124
17939535007
17939543552
17939549777
17939557895
17939564243
17939571323
17939578281
17939586032
17939592929
17939598666
17939607150
17939613010
17939620151
17939626193
17939632846
17939639010
17939647433
17939654147
17939659335
17939666476
17939673007
17939680148
17939687167
17939693332
17939699252
17939707553
17939714267
17939719455
17939726962
17939732882
17939739840
17939746066
17939752169
17939760043
17939765536
17939771212
17939777560
17939788424
17939794161
17939801669
17939809359
17939814669
17939822299
17939828341
17939835299
17939841464
17939847567
17939855074
17939861422
17939867831
17939873080
17939879977
17939885836
17939894137
17939901095
17939907992
17939914706
17939921725
17939927645
17939934054
17939941439
17939948336
17939956576
17939964083
17939970797
17939977083
17939985018
17939990938
17940001070
17940008699
17940016756
17940025545
17940032503
17940041109
17940048250
17940058809
17940065340
17940073763
17940081453
17940087557
17940095918
17940102815
17940112764
17940120271
17940126680
17940133089
17940139497
17940147920
17940154268
17940161165
17940167268
17940173616
17940180818
17940186983
17940193880
17940200105
17940207612
17940214082
17940223360
17940228364
17940239046
17940244050
17940256013
17940262483
17940271272
17940280122
17940288423
17940295198
17940301484
17940309968
17940316743
17940325349
17940330110
17940341706
17940348603
17940357514
17940365022
17940373506
17940380525
17940387666
17940396638
17940405244
17940412385
17940420869
17940428010
17940434907
17940444917
17940451142
17940460664
17940467561
17940475556
17940483674
17940489594
17940497773
17940503937
17940509675
17940516511
17940521882
17940528718
17940533112
17940540375
17940544037
17940552094
17940559052
17940565461
17940571137
17940578217
17940583832
17940590302
17940595978
17940602143
17940608735
17940614594
17940621186
17940627106
17940632416
17940639679
17940646088
17940653168
17940659027
17940665680
17940670807
17940677643
17940682038
17940691437
17940698578
17940706391
17940711701
17940716644
17940722870
17940728363
17940735992
17940742218
17940748322
17940754425
17940759674
17940766632
17940771088
17940776764
17940782440
17940790924
17940797699
17940802399
17940809173
17940813995
17940819977
17940825775
17940834808
17940840729
17940846710
17940851349
17940856231
17940864471
17940867706
17940877227
17940883453
17940890045
17940897308
17940901580
17940909698
17940916778
17940922760
17940929412
17940935577
17940942291
17940948455
17940954620
17940961273
17940967132
17940973968
17940979705
17940985259
17940992278
17940998382
17941005401
17941012603
17941018707
17941024017
17941032439
17941036529
17941044891
17941048858
17941058868
17941063201
17941072356
17941078704
17941084319
17941091704
17941098418
17941105437
17941110259
17941119231
17941126678
17941132049
17941139373
17941144622
17941153472
17941159881
17941167510
17941173919
17941180693
17941186065
17941192107
17941198943
17941205291
17941211089
17941220000
17941226470
17941233550
17941239836
17941246978
17941252837
17941261748
17941268523
17941274993
17941280058
17941286467
17941292632
17941298796
17941304961
17941313017
17941320158
17941325774
17941332427
17941339201
17941346220
17941351775
17941358916
17941366179
17941373015
17941378813
17941385466
17941391997
17941400358
17941405791
17941413664
17941419218
17941427763
17941431608
17941439787
17941446928
17941453581
17941460844
17941467802
17941473539
17941479765
17941486052
17941490690
17941497343
17941503386
17941510527
17941518217
17941524870
17941530485
17941537931
17941543913
17941551847
17941557340
17941563993
17941571623
17941578459
17941584013
17941591398
17941596891
17941603788
17941609831
17941617460
17941623808
17941631559
17941637113
17941644437
17941650358
17941658720
17941664762
17941671781
17941680570
17941686124
17941691923
17941699979
17941705961
17941713529
17941719572
17941728177
17941735074
17941744291
17941749235
17941757047
17941764859
17941771451
17941777677
17941787198
17941793729
17941801908
17941808072
17941814237
17941821927
17941828702
17941834867
17941842496
17941851102
17941858487
17941864530
17941872891
17941878507
17941887540
17941893338
17941902799
17941911954
17941918118
17941925870
17941933255
17941941190
17941949002
17941954556
17941961575
17941970792
17941979031
17941986783
17941994046
17941999783
17942003934
17942014859
17942019559
17942031033
17942036160
17942047268
17942052090
17942063138
17942067898
17942076077
17942082791
17942093045
17942100003
17942110073
17942117459
17942123501
17942130276
17942139553
17942146145
17942153042
17942161709
17942168728
17942174465
17942180447
17942188259
17942195217
17942200405
17942207607
17942214382
17942220852
17942225735
17942231838
17942236965
17942244411
17942249477
17942256618
17942262478
17942269619
17942274563
17942280422
17942286770
17942292934
17942299404
17942306484
17942312710
17942317104
17942324184
17942330410
17942335171
17942341274
17942348415
17942353847
17942361110
17942365993
17942372341
17942377163
17942383632
17942388393
17942396328
17942402431
17942408596
17942414150
17942419826
17942425930
17942431423
17942436611
17942442775
17942449306
17942454921
17942461147
17942465358
17942471828
17942477565
17942484340
17942490810
17942496547
17942501430
17942508327
17942512904
17942518153
17942524318
17942530483
17942536342
17942542140
17942547633
17942552882
17942561305
17942564723
17942572841
17942579311
17942585109
17942591456
17942597560
17942603602
17942607997
17942615382
17942621974
17942627955
17942633571
17942638942
17942645167
17942650783
17942657435
17942664149
17942668971
17942674830
17942681300
17942687098
17942693385
17942696864
17942707179
17942714137
17942720179
17942725550
17942731715
17942739283
17942745814
17942752955
17942761256
17942768763
17942773585
17942780238
17942785426
17942792140
17942797267
17942804896
17942811549
17942818018
17942824244
17942830653
17942837672
17942844202
17942851282
17942857752
17942864649
17942871729
17942877833
17942884730
17942890589
17942895594
17942902247
17942907679
17942915796
17942921107
17942927576
17942932886
17942940516
17942946009
17942953821
17942961695
17942968042
17942974268
17942980310
17942985132
17942991236
17942998865
17943006250
17943012354
17943019251
17943025293
17943030603
17943038904
17943045923
17943052759
17943058557
17943065759
17943070886
17943077905
17943083032
17943090051
17943094995
17943103540
17943110498
17943116541
17943123132
17943129602
17943136377
17943142969
17943150232
17943157556
17943165430
17943171106
17943177759
17943183008
17943190210
17943193933
17943204187
17943210290
17943216577
17943223779
17943230371
17943237024
17943243554
17943250879
17943256738
17943265222
17943270288
17943278405
17943284082
17943291162
17943298547
17943305810
17943311792
17943319665
17943325280
17943331384
17943338403
17943344750
17943350244
17943359704
17943366967
17943373864
17943377831
17943386071
17943393456
17943401574
17943405908
17943416650
17943423058
17943432397
17943436791
17943445885
17943452721
17943459252
17943465783
17943475060
17943482201
17943491967
17943496300
17943507104
17943511803
17943521813
17943529015
17943535729
17943542077
17943551232
17943560204
17943568383
17943577477
17943583641
17943591576
17943599266
17943607384
17943613243
17943622460
17943628868
17943633690
17943646752
17943654625
17943661705
17943670616
17943676598
17943684715
17943690941
17943698082
17943707665
17943714989
17943723900
17943731041
17943740074
17943746544
17943753563
17943761742
17943768150
17943774803
17943783165
17943792503
17943800804
17943807274
17943816856
17943823570
17943828575
17943838829
17943844444
17943854820
17943862693
17943871177
17943878440
17943886253
17943892662
17943901146
17943908653
17943915916
17943921897
17943928611
17943935081
17943940513
17943944236
17943953025
17943956748
17943966331
17943972862
17943979453
17943985191
17943991721
17943998435
17944003135
17944011375
17944016563
17944022849
17944027976
17944033775
17944040672
17944047324
17944052695
17944061423
17944064902
17944073142
17944076926
17944085349
17944088889
17944097739
17944104453
17944111106
17944117454
17944124045
17944130271
17944136863
17944143149
17944149924
17944156089
17944163352
17944168845
17944175498
17944181601
17944186179
17944192649
17944198569
17944205527
17944211508
17944217185
17944220786
17944228354
17944235861
17944241721
