18014100246
18014106349
18014111171
18014116786
18014121913
18014128200
18014134669
18014139979
18014146266
18014150966
18014158107
18014164638
18014172328
18014178065
18014184474
18014190760
18014198024
18014204005
18014211451
18014217494
18014224879
18014230433
18014236903
18014245570
18014251063
18014256495
18014264369
18014272242
18014277186
18014283900
18014291102
18014297450
18014304591
18014311244
18014318812
18014324793
18014328700
18014338343
18014345789
18014354090
18014360133
18014365321
18014374842
18014380823
18014391810
18014399195
18014407435
18014415125
18014421534
18014431360
18014435816
18014445643
18014453882
18014459314
18014467493
18014473475
18014482935
18014491236
18014497706
18014505640
18014512720
18014519678
18014525721
18014534632
18014541040
18014548242
18014554895
18014560022
18014567713
18014575769
18014584375
18014592310
18014600427
18014606836
18014615503
18014624170
18014631311
18014637537
18014647241
18014653650
18014661646
18014667566
18014674280
18014680322
18014688196
18014694299
18014704126
18014712121
18014720056
18014724634
18014733972
18014741662
18014747339
18014756677
18014764795
18014771814
18014779870
18014787805
18014795007
18014802270
18014810083
18014818017
18014823999
18014833459
18014839990
18014848046
18014854455
18014863061
18014869409
18014878991
18014888757
18014896142
18014901452
18014911096
18014918725
18014926171
18014932763
18014942284
18014949181
18014956689
18014963158
18014968896
18014976586
18014982568
18014994103
18014998681
18015007836
18015016564
18015023949
18015030236
18015037499
18015046166
18015053551
18015064782
18015071007
18015080956
18015088463
18015096337
18015105614
18015113854
18015123070
18015128929
18015138695
18015145287
18015153343
18015160057
18015172264
18015179833
18015186913
18015194298
18015201439
18015209191
18015216026
18015222801
18015230858
18015239586
18015244896
18015252892
18015260643
18015268517
18015274376
18015284325
18015292625
18015299583
18015306114
18015313072
18015320701
18015325950
18015333519
18015343101
18015349815
18015357261
18015364097
18015369896
18015377281
18015383079
18015395347
18015400779
18015409446
18015417442
18015424827
18015432334
18015439537
18015446373
18015453636
18015462059
18015467491
18015476036
18015483909
18015492088
18015498374
18015506736
18015512901
18015521140
18015527061
18015535423
18015541892
18015550071
18015554710
18015564841
18015572410
18015580161
18015587180
18015595786
18015604453
18015611289
18015621970
18015628135
18015636252
18015642661
18015652793
18015659324
18015667869
18015676413
18015685996
18015691977
18015699302
18015707297
18015714316
18015720237
18015727927
18015736411
18015743125
18015751914
18015759421
18015765708
18015775595
18015782797
18015791098
18015798544
18015807761
18015814230
18015822775
18015830039
18015839133
18015846823
18015856467
18015863364
18015873007
18015881796
18015889181
18015898093
18015903586
18015910605
18015917990
18015927511
18015933432
18015941122
18015946921
18015954794
18015961386
18015967611
18015973959
18015989218
18015995993
18016003195
18016011740
18016019125
18016026083
18016034079
18016041281
18016049154
18016055136
18016063131
18016068991
18016077902
18016083639
18016094381
18016101278
18016108419
18016115926
18016121542
18016130941
18016136007
18016146749
18016150533
18016162252
18016171529
18016178854
18016186849
18016195516
18016202840
18016210836
18016217794
18016224752
18016231588
18016239034
18016246724
18016254598
18016262716
18016269002
18016276265
18016283284
18016291951
18016299886
18016309285
18016317281
18016323140
18016331624
18016338338
18016347798
18016351705
18016362996
18016372884
18016380635
18016387959
18016396749
18016404439
18016411763
18016417684
18016426839
18016431111
18016440816
18016448994
18016456075
18016463338
18016471394
18016478230
18016482991
18016493062
18016500874
18016505940
18016515034
18016522053
18016528462
18016535481
18016542500
18016550129
18016555195
18016566487
18016575032
18016582661
18016590962
18016599263
18016604695
18016612019
18016617329
18016625141
18016632466
18016639851
18016647114
18016655293
18016662922
18016669941
18016676960
18016684040
18016689839
18016697285
18016702534
18016709736
18016718403
18016724629
18016728474
18016736225
18016743488
18016749897
18016756916
18016763508
18016769794
18016777363
18016782795
18016790851
18016798115
18016803730
18016811176
18016818439
18016825519
18016833820
18016840534
18016849140
18016856220
18016862690
18016871113
18016875934
18016884235
18016890827
18016897419
18016904743
18016912189
18016919025
18016927143
18016931293
18016940570
18016947345
18016952655
18016960224
18016966815
18016971271
18016982929
18016987689
18016996845
18017001361
18017010455
18017015765
18017024005
18017030353
18017040057
18017046222
18017052386
18017059772
18017067401
18017075763
18017082660
18017088397
18017095721
18017104205
18017110431
18017119220
18017125506
18017134601
18017142596
18017149371
18017155963
18017161639
18017171222
18017177874
18017187335
18017194781
18017202838
18017211688
18017218219
18017231158
18017244097
18017249407
18017256610
18017261614
18017268328
18017275408
18017281939
18017287615
18017295245
18017301775
18017310626
18017316790
18017325762
18017331500
18017339007
18017345232
18017353838
18017360064
18017368487
18017374224
18017382342
18017390154
18017397600
18017403887
18017411455
18017417132
18017423907
18017431963
18017438616
18017448198
18017452837
18017459795
18017468645
18017477739
18017482012
18017491777
18017501299
18017508928
18017515947
18017523271
18017530596
18017536943
18017545183
18017552873
18017558855
18017566484
18017571062
18017580461
18017587969
18017593767
18017598161
18017607012
18017615251
18017623735
18017628496
18017637773
18017642412
18017651445
18017656145
18017664262
18017670732
18017679948
18017686723
18017694292
18017701860
18017709184
18017715410
18017723955
18017733171
18017740617
18017748979
18017755143
18017764238
18017774064
18017780656
18017789140
18017795427
18017803422
18017811784
18017820268
18017829179
18017839067
18017844804
18017854936
18017861527
18017870255
18017877641
18017884904
18017890946
18017897782
18017904313
18017913102
18017921586
18017925675
18017934892
18017938676
18017947831
18017954667
18017961015
18017969804
18017975358
18017982194
18017985795
18017992387
18017997391
18018004716
18018008439
18018016434
18018023392
18018028946
18018034195
18018039933
18018045548
18018051529
18018058121
18018064713
18018070267
18018075272
18018081559
18018086502
18018090897
18018096817
18018103104
18018108231
18018115189
18018120560
18018127884
18018131363
18018138565
18018141800
18018149796
18018155655
18018161026
18018165177
18018170548
18018176407
18018180679
18018188736
18018193741
18018200211
18018206619
18018211319
18018217423
18018222000
18018228897
18018235062
18018238541
18018245438
18018250931
18018256180
18018262649
18018268936
18018275833
18018280350
18018287125
18018292618
18018299209
18018304703
18018311905
18018317642
18018324661
18018328323
18018337295
18018344681
18018351822
18018357681
18018362503
18018371658
18018376602
18018382705
18018390213
18018395889
18018403762
18018411392
18018418411
18018424514
18018429885
18018437271
18018441421
18018450393
18018454482
18018464370
18018468032
18018479080
18018486282
18018493667
18018501235
18018510085
18018516799
18018525161
18018532729
18018539504
18018545608
18018551833
18018559158
18018566360
18018571242
18018577895
18018583266
18018587905
18018594985
18018600600
18018608291
18018615554
18018621779
18018628859
18018634780
18018640090
18018646804
18018652053
18018659987
18018663772
18018671279
18018677077
18018683181
18018686965
18018694411
18018698622
18018708754
18018714980
18018721205
18018726149
18018732375
18018739028
18018743788
18018751052
18018758315
18018764662
18018771193
18018776930
18018782118
18018787856
18018793044
18018801344
18018806593
18018812575
18018818007
18018825209
18018831862
18018837660
18018843642
18018851759
18018857680
18018863966
18018867750
18018875441
18018879408
18018888136
18018892103
18018903639
18018912611
18018919447
18018925306
18018930250
18018938185
18018941664
18018952467
18018959059
18018965773
18018972242
18018978834
18018985975
18018990858
18018999525
18019006788
18019012709
18019019728
18019026258
18019032301
18019040785
18019046949
18019056471
18019061170
18019070509
18019075514
18019084486
18019091810
18019097425
18019105421
18019113599
18019121717
18019128004
18019135938
18019141859
18019151258
18019157423
18019167921
18019174634
18019181715
18019189649
18019196851
18019202894
18019209608
18019215955
18019224256
18019230726
18019239209
18019246106
18019253064
18019260144
18019266980
18019274915
18019280713
18019287915
18019295301
18019303174
18019308606
18019316358
18019323194
18019331433
18019337903
18019344495
18019352918
18019360669
18019367383
18019375440
18019382276
18019390332
18019396802
18019404370
18019410107
18019419080
18019425488
18019433484
18019439954
18019449902
18019457715
18019463879
18019470349
18019479565
18019484814
18019494336
18019498547
18019508801
18019515149
18019520215
18019527051
18019533764
18019540539
18019546093
18019554577
18019558117
18019565747
18019571728
18019577404
18019583630
18019589489
18019596203
18019602185
18019609143
18019614025
18019622204
18019625683
18019632946
18019640026
18019646618
18019652355
18019657910
18019664196
18019670178
18019676220
18019682507
18019690197
18019696117
18019702038
18019708752
18019714489
18019720287
18019725842
18019733410
18019740551
18019746044
18019753307
18019758556
18019766491
18019772777
18019778454
18019783947
18019791698
18019797863
18019804577
18019811779
18019816234
18019824352
18019829357
18019836376
18019840343
18019848827
18019854259
18019859386
18019866344
18019870983
18019877758
18019882457
18019889659
18019892894
18019900829
18019906444
18019912670
18019918773
18019923534
18019930614
18019935985
18019942272
18019949535
18019956066
18019961803
18019966503
18019972911
18019978282
18019984752
18019991405
18019995921
18020003307
18020008678
18020014903
18020021007
18020027660
18020035167
18020041148
18020048778
18020055431
18020062389
18020069530
18020075450
18020083324
18020091197
18020096812
18020104686
18020110362
18020118541
18020125804
18020134532
18020140452
18020146190
18020152659
18020156810
18020164683
18020167918
18020178477
18020186595
18020193919
18020201548
18020209544
18020214976
18020222911
18020228892
18020236216
18020242442
18020247935
18020255381
18020264231
18020269785
18020276682
18020282908
18020291087
18020297862
18020307139
18020317881
18020327341
18020333750
18020338755
18020350230
18020352915
18020365244
18020375742
18020382517
18020390757
18020396921
18020403513
18020410593
18020417185
18020422861
18020429453
18020436228
18020443552
18020450327
18020456125
18020464243
18020469919
18020478159
18020485178
18020491526
18020498117
18020503244
18020510813
18020517954
18020524851
18020530222
18020538339
18020544565
18020550363
18020556162
18020564157
18020571909
18020578867
18020583872
18020591318
18020598947
18020606332
18020613168
18020619760
18020626535
18020633005
18020639902
18020644785
18020652048
18020659738
18020666330
18020671640
18020680734
18020686960
18020693490
18020698923
18020706613
18020712655
18020720712
18020727121
18020736215
18020742318
18020749948
18020756234
18020764596
18020770883
18020778756
18020785226
18020793588
18020799997
18020808419
18020814767
18020822579
18020828561
18020835641
18020841500
18020850961
18020857858
18020867318
18020874154
18020881295
18020887765
18020894906
18020903207
18020911874
18020918771
18020925668
18020931527
18020940011
18020947762
18020955514
18020961922
18020972359
18020978646
18020986703
18020994820
18021002633
18021011483
18021020272
18021026986
18021035836
18021044869
18021053109
18021059639
18021068673
18021075997
18021082711
18021089669
18021097969
18021105110
18021111641
18021118660
18021124275
18021131111
18021137154
18021143257
18021148934
18021155586
18021162361
18021168953
18021174996
18021181587
18021188484
18021195564
18021202095
18021207222
18021214424
18021221687
18021227791
18021235054
18021240547
18021247566
18021254951
18021260139
18021265938
18021272713
18021278816
18021284065
18021290474
18021295662
18021303474
18021308601
18021316170
18021321541
18021329536
18021333259
18021342170
18021347847
18021356636
18021360847
18021368782
18021375312
18021381477
18021385322
18021393867
18021400581
18021409980
18021416328
18021422431
18021428352
18021432990
18021439887
18021445197
18021451850
18021459113
18021465339
18021471992
18021477790
18021485542
18021491218
18021498298
18021501655
18021510261
18021515510
18021521125
18021527045
18021533393
18021540900
18021545844
18021552741
18021558356
18021563850
18021571052
18021576911
18021584540
18021589240
18021597053
18021603461
18021608893
18021615973
18021623359
18021630500
18021637580
18021646125
18021651435
18021659613
18021665351
18021674445
18021681098
18021688422
18021695807
18021701972
18021708441
18021713263
18021720282
18021726874
18021733527
18021740058
18021746283
18021751593
18021760809
18021766852
18021773993
18021780646
18021787238
18021795477
18021800909
18021808783
18021814703
18021822882
18021829169
18021836615
18021840582
18021849310
18021857489
18021862494
18021871344
18021876044
18021884344
18021889960
18021898443
18021903753
18021911261
18021918097
18021924261
18021929998
18021936895
18021944220
18021950811
18021957281
18021963995
18021970098
18021975164
18021984014
18021991278
18021998053
18022005133
18022009832
18022017706
18022023138
18022033575
18022037359
18022045233
18022052191
18022058111
18022063421
18022070806
18022077398
18022084173
18022090337
18022096685
18022102728
18022107671
18022115545
18022123418
18022129766
18022135442
18022141607
18022147710
18022153814
18022162054
18022167242
18022176336
18022182439
18022188299
18022194463
18022200628
18022207342
18022213323
18022220464
18022227300
18022235235
18022242742
18022250371
18022257879
18022265935
18022277471
18022285588
18022296392
18022304875
18022311284
18022317815
18022325261
18022332036
18022337956
18022344670
18022349248
18022355718
18022361577
18022370366
18022375859
18022382451
18022387639
18022395207
18022400090
18022406804
18022412724
18022420293
18022427007
18022433781
18022441289
18022447758
18022451909
18022460759
18022464909
18022475041
18022481877
18022488774
18022494999
18022501469
18022507939
18022514470
18022521367
18022528080
18022535771
18022541203
18022548649
18022555607
18022563054
18022569584
18022574833
18022582096
18022590397
18022600285
18022608769
18022615116
18022623234
18022629887
18022639775
18022648258
18022655338
18022661442
18022668705
18022672978
18022683659
18022689762
18022698612
18022703312
18022713566
18022721500
18022729435
18022736332
18022742313
18022750675
18022758366
18022765812
18022771549
18022779239
18022788090
18022798527
18022805912
18022816471
18022821232
18022834110
18022843509
18022851566
18022860294
18022870731
18022883365
18022891483
18022899662
18022908512
18022917728
18022927188
18022939517
18022951175
18022960452
18022969425
18022981754
18022994876
18023005374
18023013675
18023021854
18023029666
18023038333
18023045413
18023055057
18023063479
18023071597
18023079654
18023087649
18023096072
18023104129
18023112674
18023120669
18023127871
18023136111
18023145999
18023152346
18023161929
18023170291
18023178103
18023184878
18023193484
18023200320
18023210513
18023217471
18023226992
18023235110
18023243594
18023252871
18023261111
18023269717
18023278201
18023285220
18023293826
18023303225
18023309267
18023319826
18023326052
18023336062
18023342959
18023351321
18023360354
18023368899
18023375796
18023385073
18023392214
18023402346
18023410952
18023419497
18023427919
18023435732
18023444033
18023453798
18023465639
18023475405
18023484011
18023494203
18023505007
18023515871
18023524660
18023534365
18023543398
18023555177
18023562746
18023574770
18023584413
18023592409
18023602235
18023610963
18023621217
18023630128
18023639040
18023646608
18023658143
18023665834
18023678041
18023689821
18023698732
18023707643
18023716371
18023726259
18023736268
18023745790
18023754701
18023765992
18023775453
18023784242
18023793641
18023802247
18023811891
18023821656
18023830262
18023841310
18023850404
18023860108
18023871766
18023879517
18023890809
18023896607
18023909669
18023920228
18023929627
18023938233
18023947694
18023957642
18023967042
18023976990
18023987549
18023996522
18024006470
18024015503
18024023377
18024034607
18024042359
18024052796
18024060669
18024071900
18024079834
18024090882
18024099793
18024109070
18024119202
18024128540
18024138184
18024147766
18024158020
18024167175
18024176941
18024187012
18024194702
18024205139
18024214722
18024225159
18024234863
18024242371
18024251404
18024259460
18024270935
18024274780
18024283813
18024291748
18024299255
18024305114
18024312378
18024318725
18024324157
18024332275
18024336670
18024344787
18024351623
18024358276
18024364868
18024372009
18024379150
18024386840
18024392150
18024398681
18024405212
18024411498
18024417480
18024424133
18024429443
18024438232
18024442199
18024450622
18024454406
18024462829
18024468078
18024475524
18024483703
18024490112
18024497009
18024503478
18024510131
18024516051
18024524108
18024532104
18024539001
18024546752
18024552733
18024559753
18024563598
18024572997
18024578856
18024585875
18024591857
18024597167
18024603881
18024609496
18024616881
18024623778
18024630736
18024636657
18024642943
18024649474
18024654235
18024660704
18024667968
18024677062
18024682006
18024688292
18024694762
18024700987
18024707030
18024713988
18024720641
18024726439
18024733763
18024738707
18024744872
18024751708
18024758177
18024764525
18024771849
18024778258
18024784361
18024789366
18024796019
18024802489
18024811034
18024817320
18024821959
18024828612
18024835936
18024841917
18024846861
18024854857
18024860472
18024866575
18024873106
18024877684
18024885069
18024890440
18024897581
18024903441
18024912779
18024921080
18024928038
18024935362
18024943663
18024948362
18024955259
18024960264
18024967222
18024973204
18024977720
18024985472
18024992735
18024999205
18025004881
18025010984
18025016661
18025021482
18025029173
18025032347
18025041319
18025047422
18025051939
18025058408
18025064268
18025071287
18025076048
18025083067
18025088194
18025094419
18025099729
18025107481
18025115598
18025122739
18025129392
18025138792
18025145017
18025152585
18025156125
18025166257
18025171384
18025176938
18025183469
18025187620
18025193967
18025200315
18025207639
18025212705
18025220701
18025227048
18025232846
18025238095
18025244321
18025250974
18025256772
18025264096
18025270383
18025276425
18025281308
18025288144
18025292722
18025300656
18025304502
18025313230
18025319272
18025325315
18025331418
18025337399
18025344296
18025350522
18025357663
18025364194
18025369138
18025375668
18025382321
18025387448
18025395505
18025401669
18025408017
18025413754
18025419797
18025423398
18025431149
18025437863
18025444577
18025452450
18025458981
18025464596
18025470578
18025476437
18025482480
18025490231
18025497189
18025502621
18025509152
18025514706
18025521176
18025527890
18025532956
18025541195
18025548153
18025554135
18025557614
18025565731
18025571835
18025578060
18025586178
18025592892
18025599301
18025603817
18025611447
18025616024
18025623776
18025628292
18025637020
18025642574
18025649532
18025655148
18025662411
18025666256
18025673397
18025678524
18025687008
18025697384
18025702633
18025713680
18025724117
18025735592
18025743038
18025750057
18025755733
18025762142
18025768246
18025773433
18025779903
18025785213
18025792660
18025798824
18025805355
18025811275
18025817501
18025821224
18025829158
18025840877
18025850765
18025855709
18025863765
18025873043
18025879146
18025886592
18025893184
18025899593
18025905513
18025912654
18025917659
18025926265
18025932979
18025941036
18025949825
18025955135
18025962215
18025970943
18025976436
18025984737
18025989864
18025997615
18026005611
18026010982
18026018184
18026024348
18026031978
18026037166
18026044612
18026049068
18026057979
18026062495
18026073359
18026080806
18026087581
18026094233
18026102412
18026108516
18026116206
18026124568
18026130183
18026136897
18026142573
18026149592
18026155085
18026163935
18026168635
18026176997
18026183284
18026191706
18026198481
18026206843
18026213984
18026222224
18026228755
18026238032
18026244380
18026251338
18026257746
18026265131
18026272395
18026280329
18026286738
18026293940
18026299860
18026308527
18026314570
18026323725
18026332026
18026339838
18026348444
18026358698
18026368281
18026377314
18026383234
18026391901
18026396723
18026404169
18026408991
18026415400
18026421259
18026426447
18026432428
18026438898
18026443232
18026450067
18026454950
18026460077
18026466303
18026471796
18026476923
18026483271
18026489801
18026494623
18026501032
18026506098
18026510858
18026518060
18026521356
18026528070
18026531366
18026538263
18026543695
18026549616
18026552973
18026561212
18026567804
18026573053
18026578668
18026583124
18026590692
18026596124
18026602960
18026608209
18026613580
18026617975
18026624139
18026630060
18026635553
18026640680
18026647272
18026653680
18026659601
18026665887
18026672052
18026676751
18026680902
18026686578
18026692254
18026697442
18026703363
18026708307
18026713189
18026720330
18026725702
18026730890
18026735894
18026743158
18026749749
18026756158
18026762750
18026768914
18026774163
18026779901
18026785577
18026791497
18026797357
18026803643
18026809991
18026814996
18026820672
18026825616
18026833795
18026837335
18026845635
18026852349
18026857232
18026864495
18026869256
18026875665
18026883172
18026892571
18026902337
18026912347
18026918877
18026925347
18026936700
18026943719
18026949334
18026956292
18026960259
18026969719
18026977410
18026983696
18026989373
18026996331
18027004082
18027010064
18027016961
18027022881
18027029107
18027034295
18027041069
18027044793
18027052788
18027059441
18027065483
18027069268
18027077385
18027083123
18027089287
18027094109
18027100090
18027105400
18027111626
18027118340
18027124565
18027126702
18027136101
18027141289
18027147392
18027153313
18027159355
18027166252
18027172295
18027177971
18027182915
18027190483
18027196098
18027202995
18027208672
18027215568
18027221428
18027227653
18027234672
18027240898
18027246452
18027252983
18027258781
18027267143
18027271477
18027279838
18027286674
18027291862
18027297416
18027304985
18027308708
18027317619
18027324211
18027330986
18027336906
18027341911
18027348869
18027355094
18027362175
18027368339
18027374992
18027382560
18027388847
18027395561
18027400505
18027407218
18027414054
18027421684
18027429191
18027435172
18027442252
18027448905
18027454704
18027459892
18027466666
18027473258
18027479850
18027487113
18027493644
18027500114
18027509818
18027519889
18027530509
18027542533
18027551688
18027557181
18027565848
18027574515
18027581656
18027587821
18027595084
18027601798
18027609427
18027616507
18027623221
18027628592
18027635672
18027642752
18027648001
18027654593
18027661185
18027667472
18027672843
18027680777
18027688407
18027690665
18027702078
18027709036
18027714896
18027722281
18027728385
18027737357
18027744376
18027752432
18027758231
18027764517
18027771964
18027778983
18027787466
18027794424
18027804495
18027811819
18027820792
18027828238
18027834769
18027840323
18027847403
18027856131
18027862539
18027870901
18027877859
18027885306
18027890921
18027898306
18027905081
18027912710
18027919119
18027926626
18027933584
18027938711
18027947134
18027953604
18027959219
18027965017
18027971609
18027978079
18027984548
18027990774
18027997122
18028002798
18028010610
18028017446
18028023977
18028030264
18028036306
18028042410
18028048635
18028054556
18028059438
18028067007
18028072439
18028080679
18028085500
18028091299
18028098074
18028104787
18028110891
18028117605
18028124441
18028127920
18028135671
18028142141
18028147390
18028153371
18028160268
18028168325
18028175405
18028181997
18028189321
18028195668
18028201589
18028208852
18028216237
18028222341
18028227773
18028232595
18028239431
18028244130
18028251760
18028255239
18028263600
18028266835
18028274587
18028280812
18028286977
18028294911
18028300466
18028305959
18028312001
18028317372
18028323598
18028329823
18028335072
18028342030
18028346730
18028353017
18028357716
18028364796
18028369679
18028377248
18028385182
18028391591
18028398061
18028403981
18028410756
18028417226
18028422719
18028429555
18028436513
18028441334
18028447926
18028455189
18028461110
18028466908
18028472523
18028480153
18028486928
18028491932
18028498890
18028504811
18028511830
18028518727
18028524281
18028531544
18028537953
18028544484
18028552723
18028557240
18028564686
18028571278
18028579823
18028585133
18028592152
18028599415
18028605885
18028611317
18028618153
18028626148
18028632923
18028638722
18028646229
18028652515
18028659351
18028665943
18028672840
18028679676
18028685657
18028692249
18028699818
18028705128
18028712147
18028718067
18028725574
18028732410
18028738453
18028745594
18028752491
18028759449
18028766468
18028772693
18028780079
18028788013
18028799549
18028807056
18028815296
18028821338
18028829273
18028836048
18028842762
18028848255
18028855823
18028861682
18028869556
18028875476
18028883838
18028889697
18028897144
18028902759
18028910938
18028914783
18028922595
18028927905
18028936450
18028943164
18028949634
18028956714
18028963123
18028968188
18028974719
18028984363
18028989429
18028995898
18029002307
18029008777
18029015124
18029021716
18029028125
18029035144
18029040027
18029048022
18029053027
18029062304
18029067798
18029074328
18029081408
18029088122
18029093799
18029101001
18029108996
18029116137
18029121936
18029131274
18029137439
18029146716
18029152697
18029160205
18029166186
18029174487
18029178759
18029187914
18029195788
18029202868
18029209887
18029216723
18029222827
18029230090
18029238635
18029246264
18029255907
18029262255
18029270007
18029277026
18029285998
18029291979
18029301256
18029309923
18029317858
18029325060
18029332262
18029334643
18029345324
18029352648
18029359850
18029367479
18029375597
18029385668
18029391588
18029399767
18029408861
18029416002
18029424181
18029433214
18029440050
18029452867
18029464159
18029476122
18029485765
18029496691
18029505480
18029511583
18029519762
18029525255
18029531358
18029539598
18029543810
18029555650
18029560960
18029568834
18029577074
18029582994
18029590868
18029597765
18029604661
18029610826
18029618761
18029624071
18029630845
18029637376
18029644212
18029649766
18029657152
18029662645
18029669847
18029673631
18029681993
18029688340
18029694505
18029701097
18029707689
18029713975
18029720140
18029725022
18029731309
18029738145
18029744554
18029751145
18029757066
18029763291
18029767991
18029775865
18029780564
18029788011
18029792710
18029800950
18029805711
18029813523
18029819016
18029826646
18029832383
18029839646
18029845139
18029852586
18029858079
18029865647
18029871934
18029877610
18029883103
18029888779
18029895493
18029901841
18029907578
18029913560
18029919358
18029923997
18029931443
18029936387
18029943589
18029949631
18029954514
18029961045
18029967331
18029979172
18029993638
18030003037
18030011216
18030020554
18030028366
18030038315
18030047715
18030055527
18030060959
18030066757
18030073410
18030082016
18030088791
18030096726
18030106491
18030113388
18030121140
18030127792
18030134995
18030142746
18030148666
18030154892
18030160507
18030167282
18030172287
18030177658
18030182541
18030190842
18030194443
18030203964
18030207504
18030216598
18030220505
18030228927
18030235519
18030241562
18030246994
18030253097
18030258346
18030264511
18030270370
18030276413
18030282699
18030289474
18030296859
18030302108
18030310470
18030317550
18030326034
18030333297
18030339462
18030346115
18030352951
18030359481
18030366012
18030372299
18030377670
18030385482
18030391525
18030397750
18030403488
18030411849
18030418502
18030423690
18030429244
18030438400
18030444869
18030451461
18030457748
18030462508
18030468795
18030474837
18030481734
18030488753
18030496017
18030502853
18030508102
18030514571
18030521712
18030526961
18030534347
18030539229
18030546920
18030553939
18030561507
18030565230
18030572982
18030579940
18030586043
18030592696
18030600936
18030608443
18030613509
18030620040
18030625411
18030633345
18030640120
18030646712
18030653304
18030659957
18030666487
18030672591
18030679427
18030687850
18030697005
18030707259
18030716109
18030725386
18030732466
18030741805
18030748335
18030756392
18030760298
18030769087
18030776472
18030783308
18030789229
18030796187
18030802107
18030808211
18030814680
18030821089
18030826826
18030832991
18030838972
18030843733
18030850142
18030856306
18030862532
18030867781
18030874434
18030881636
18030888533
18030893782
18030900862
18030906477
18030913862
18030918928
18030927412
18030933393
18030940901
18030948835
18030955122
18030960249
18030968183
18030973921
18030980879
18030986494
18030994062
18031001508
18031008039
18031013654
18031020124
18031026106
18031034467
18031043317
18031050153
18031055647
18031063642
18031069807
18031076643
18031084150
18031092512
18031099164
18031106794
18031114484
18031120405
18031128705
18031136457
18031142133
18031151838
18031159955
18031167096
18031172712
18031177167
18031189374
18031194440
18031205243
18031213605
18031223249
18031229779
18031237775
18031244916
18031252606
18031261823
18031271649
18031278241
18031282086
18031290448
18031298200
18031304608
18031310529
18031316937
18031322919
18031329144
18031333905
18031339948
18031346600
18031352521
18031358746
18031369122
18031375958
18031380109
18031389142
18031397259
18031404584
18031411236
18031418622
18031426373
18031431561
18031440350
18031446454
18031452801
18031459454
18031464825
18031470929
18031476605
18031483929
18031488812
18031495282
18031500042
18031507061
18031511761
18031520123
18031526776
18031532269
18031537762
18031543804
18031549786
18031554547
18031561810
18031568829
18031574322
18031577740
18031586834
18031592510
18031598065
18031605023
18031611248
18031616192
18031622723
18031628887
18031635113
18031640728
18031646404
18031652203
18031657940
18031663921
18031671001
18031677288
18031682171
18031688824
18031694622
18031700359
18031707867
18031713482
18031719463
18031725872
18031731792
18031739300
18031744182
18031751995
18031758831
18031764568
18031771465
18031777569
18031783794
18031790813
18031796367
18031802227
18031808391
18031815898
18031821392
18031829937
18031837932
18031842632
18031850444
18031857463
18031863994
18031869609
18031878642
18031885173
18031891460
18031897930
18031904826
18031910747
18031918315
18031925273
18031932536
18031939800
18031947368
18031954631
18031961528
18031968791
18031977763
18031984416
18031993144
18031999126
18032007487
18032011394
18032020732
18032028728
18032035136
18032041850
18032048320
18032055278
18032060466
18032068339
18032075480
18032083232
18032088664
18032098307
18032102214
18032110820
18032117839
18032124430
18032132121
18032138591
18032144572
18032151469
18032158610
18032165812
18032172282
18032179240
18032187907
18032194621
18032201090
18032207682
18032214396
18032221232
18032227824
18032235941
18032243266
18032250346
18032255595
18032263834
18032269266
18032275980
18032282938
18032289286
18032297282
18032304117
18032311442
18032318033
18032324198
18032330729
18032338541
18032343485
18032351725
18032359049
18032365213
18032372477
18032378519
18032386759
18032393534
18032397440
18032406290
18032413797
18032420938
18032427774
18032434976
18032442728
18032447855
18032455850
18032463114
18032470133
18032475870
18032484293
18032488199
18032497965
18032506693
18032512613
18032521585
18032529153
18032536234
18032542703
18032550272
18032556558
18032566141
18032575174
18032581460
18032590250
18032600137
18032610086
18032619546
18032626260
18032634744
18032642679
18032650857
18032658975
18032666421
18032676492
18032682657
18032691201
18032697183
18032704263
18032710183
18032718545
18032724465
18032732461
18032738443
18032748513
18032755654
18032762857
18032770242
18032777566
18032785073
18032792764
18032799783
18032807473
18032814126
18032821755
18032828530
18032837014
18032845254
18032852700
18032860696
18032869973
18032877969
18032884927
18032894387
18032901650
18032908974
18032917641
18032924965
18032930459
18032938271
18032943764
18032953286
18032958962
18032966225
18032971596
18032979897
18032986000
18032993142
18032999367
18033005471
18033012856
18033017678
18033026161
18033031105
18033038552
18033045143
18033050942
18033056191
18033064247
18033069374
18033077126
18033083534
18033089516
18033095986
18033102577
18033109779
18033116127
18033121986
18033129067
18033135292
18033140480
18033147133
18033153908
18033160133
18033166054
18033173012
18033178810
18033184181
18033191688
18033197243
18033203224
18033209205
18033215004
18033220558
18033226478
18033231117
18033238563
18033242836
18033250465
18033258644
18033264747
18033272804
18033279945
18033286354
18033293495
18033301185
18033307838
18033313697
18033319374
18033324928
18033330787
18033336647
18033342628
18033348304
18033354225
18033360267
18033366432
18033373268
18033380409
18033385475
18033392494
18033397559
18033404456
18033409644
18033417396
18033424171
18033430152
18033436866
18033442786
18033448157
18033454017
18033460364
18033466773
18033473121
18033479957
18033486671
18033493140
18033500098
18033506019
18033513953
18033519446
18033526648
18033532142
18033539588
18033545142
18033552466
18033557959
18033566016
18033570166
18033579444
18033586463
18033593116
18033600379
18033606848
18033613135
18033620520
18033628699
18033633887
18033641150
18033647803
18033654578
18033661841
18033667334
18033674841
18033682227
18033687720
18033696204
18033702246
18033710425
18033716773
18033722937
18033729956
18033736853
18033743811
18033750525
18033756323
18033763464
18033769385
18033774695
18033782690
18033789099
18033796118
18033802649
18033809118
18033815405
18033822058
18033830176
18033835608
18033842993
18033846716
18033855261
18033862219
18033869421
18033876257
18033882788
18033889318
18033896337
18033903601
18033911230
18033918127
18033923742
18033932897
18033937719
18033946264
18033951635
18033958593
18033963659
18033971838
18033977331
18033986852
18033990759
18033998876
18034005529
18034012304
18034019018
18034025549
18034032446
18034039648
18034046667
18034053258
18034060339
18034065710
18034074010
18034081518
18034088842
18034096349
18034103246
18034109106
18034116002
18034123266
18034130102
18034135839
18034149572
18034160619
18034168309
18034176183
18034185765
18034192601
18034199498
18034206151
18034212987
18034218846
18034225499
18034231603
18034238805
18034245580
18034253148
18034259801
18034265355
18034272496
18034278661
18034285985
18034293004
18034300755
18034302831
18034313268
18034323766
18034332494
18034344640
18034355199
18034364964
18034374913
18034381871
18034390294
18034397862
18034404698
18034411839
18034419591
18034427647
18034433384
18034442051
18034448948
18034455845
18034463597
18034471165
18034478489
18034483738
18034492466
18034497837
18034504612
18034512608
18034519688
18034525486
18034534764
18034542576
18034550511
18034558506
18034564854
18034572239
18034583714
18034590977
18034598118
18034605503
18034612095
18034618076
18034624790
18034631687
18034638645
18034644443
18034651707
18034658237
18034662937
18034669529
18034676975
18034684849
18034690037
18034696445
18034702122
18034709873
18034715488
18034723118
18034728672
18034735080
18034740329
18034747776
18034754490
18034760593
18034764377
18034772373
18034779026
18034785984
18034792575
18034799350
18034806247
18034812473
18034818943
18034825168
18034832553
18034837253
18034845066
18034849826
18034856052
18034862705
18034868625
18034873508
18034879917
18034884616
18034891757
18034899020
18034905185
18034910739
18034916415
18034922824
18034929538
18034936191
18034940890
18034948093
18034951450
18034959201
18034966647
18034972507
18034979404
18034985202
18034990695
18034995517
18035001803
18035009006
18035014682
18035020297
18035026034
18035031527
18035036532
18035045077
18035049594
18035056613
18035062960
18035069064
18035077365
18035082064
18035088839
18035097628
18035104159
18035110385
18035116488
18035122653
18035127536
18035134616
18035142794
18035151339
18035160494
18035167697
18035175143
18035179598
18035189303
18035198458
18035206027
18035212679
18035219088
18035224520
18035230990
18035237521
18035243990
18035250277
18035257174
18035264071
18035270541
18035277254
18035282320
18035290438
18035295321
18035302584
18035309542
18035316012
18035323275
18035329622
18035335360
18035342989
18035348726
18035357271
18035363192
18035370577
18035376314
18035384249
18035389681
18035397127
18035403414
18035411409
18035419039
18035425569
18035430879
18035437410
18035445040
18035449983
18035457186
18035463960
18035471285
18035478426
18035485079
18035490389
18035497896
18035504121
18035511079
18035517915
18035524385
18035531099
18035537996
18035543733
18035550813
18035558260
18035564241
18035571504
18035578645
18035584810
18035590974
18035597993
18035605867
18035611726
18035618867
18035625886
18035631929
18035637910
18035644075
18035651460
18035658357
18035665803
18035671357
18035679170
18035685517
18035691804
18035696382
18035704744
18035711579
18035718354
18035725862
18035733430
18035739656
18035745454
18035753755
18035759919
18035767732
18035772492
18035782075
18035786836
18035797273
18035802155
18035813203
18035820466
18035828767
18035835297
18035845490
18035849580
18035858735
18035862641
18035871491
18035879059
18035886689
18035893159
18035900910
18035908661
18035915803
18035923005
18035931000
18035938630
18035946198
18035952546
18035959809
18035966767
18035973786
18035980255
18035987519
18035994721
18036002289
18036009919
18036015839
18036024262
18036031464
18036039093
18036045563
18036054718
18036062775
18036069122
18036077240
18036084381
18036092011
18036099884
18036108124
18036114960
18036123077
18036128510
18036136505
18036144012
18036152313
18036159454
18036170868
18036175995
18036186371
18036191620
18036202606
18036209747
18036218170
18036225311
18036235199
18036242584
18036251495
18036258392
18036267059
18036273101
18036282318
18036289154
18036296905
18036304412
18036310882
18036317718
18036324188
18036330963
18036336822
18036341461
18036349822
18036357025
18036363799
18036367584
18036374969
18036382171
18036387908
18036394683
18036401885
18036409881
18036415252
18036424041
18036428191
18036435149
18036442535
18036449981
18036455169
18036461700
18036468963
18036473968
18036481048
18036488311
18036495635
18036499907
18036509917
18036517486
18036524627
18036530364
18036537322
18036543731
18036550139
18036557036
18036563201
18036568816
18036574797
18036580474
18036585356
18036593474
18036600798
18036606353
18036612029
18036617766
18036623503
18036629668
18036636687
18036641570
18036648162
18036653349
18036660735
18036665862
18036672514
18036680083
18036686308
18036691618
18036697600
18036703459
18036709013
18036715727
18036721953
18036727385
18036732329
18036739226
18036744170
18036751311
18036757353
18036764921
18036770781
18036777312
18036783720
18036789702
18036796538
18036802824
18036809172
18036815458
18036820830
18036827116
18036832914
18036840239
18036845854
18036851225
18036858427
18036863920
18036873014
18036879911
18036886259
18036892668
18036899809
18036906034
18036911283
18036920744
18036924711
18036932646
18036938688
18036945524
18036952970
18036957670
18036966947
18036972318
18036979582
18036985258
18036992887
18036999479
18037006376
18037015348
18037022367
18037028776
18037033720
18037041166
18037047575
18037054899
18037059965
18037067167
18037074125
18037079862
18037087491
18037094816
18037105192
18037113004
18037124784
18037131925
18037139310
18037145963
18037153348
18037158719
18037165677
18037172513
18037178189
18037186429
18037192289
18037200406
18037205777
18037214017
18037218228
18037227445
18037231534
18037241117
18037248990
18037254178
18037261075
18037267545
18037274503
18037280911
18037287076
18037293668
18037300382
18037307401
18037313687
18037318509
18037326993
18037332547
18037340726
18037347012
18037353421
18037361539
18037366788
18037372708
18037381314
18037384976
18037392300
18037397976
18037403958
18037407681
18037415432
18037421658
18037428250
18037432156
18037441617
18037449673
18037455899
18037463345
18037468411
18037475613
18037482937
18037491909
18037501309
18037509365
18037516201
18037522793
18037528530
18037535488
18037542568
18037549893
18037556484
18037563442
18037572231
18037577602
18037586514
18037592800
18037600308
18037606716
18037613857
18037620571
18037629238
18037635708
18037643337
18037649807
18037657558
18037663479
18037670437
18037676357
18037683010
18037689174
18037699245
18037706630
18037715847
18037723476
18037732204
18037739162
18037745815
18037754482
18037763820
18037777004
18037785183
18037795558
18037806118
18037811794
18037816371
18037827175
18037831325
18037841823
18037848781
18037856777
18037864711
18037869960
18037878200
18037886440
18037894191
18037901149
18037908961
18037915553
18037923488
18037929835
18037938441
18037945705
18037953883
18037960475
18037965846
18037971278
18037978663
18037985927
18037991542
18037997706
18038003688
18038009547
18038017238
18038023036
18038030116
18038035670
18038041163
18038046595
18038054652
18038060633
18038065272
18038070338
18038077052
18038083461
18038090235
18038096888
18038103602
18038110621
18038115199
18038120936
18038126856
18038133265
18038140040
18038145960
18038151087
18038159510
18038165370
18038172205
18038177454
18038186121
18038191615
18038198756
18038204859
18038209620
18038214930
18038222498
18038228602
18038234705
18038240076
18038245325
18038250574
18038256251
18038261194
18038267237
18038274256
18038278345
18038284876
18038289576
18038294642
18038301050
18038306482
18038313929
18038319483
18038326868
18038332239
18038337793
18038343653
18038349573
18038354334
18038361414
18038366053
18038371363
18038381983
18038387293
18038397058
18038405237
18038410791
18038418909
18038425989
18038432642
18038439783
18038445947
18038452478
18038458032
18038466089
18038469690
18038476831
18038483057
18038488672
18038495020
18038502161
18038512964
18038521936
18038529748
18038535730
18038543481
18038548669
18038556482
18038560693
18038569482
18038573572
18038581994
18038589075
18038594385
18038601648
18038609582
18038616235
18038623376
18038630883
18038636499
18038644006
18038650293
18038656518
18038661096
18038668725
18038675439
18038682092
18038689477
18038695764
18038700769
18038707116
18038713586
18038720605
18038727746
18038733178
18038741845
18038747827
18038755456
18038760705
18038766564
18038771813
18038779443
18038785546
18038792382
18038798058
18038805077
18038810937
18038818017
18038824181
18038830285
18038838036
18038843529
18038851342
18038856896
18038864037
18038870995
18038878136
18038883507
18038891869
18038897545
18038905846
18038911583
18038918725
18038927208
18038933739
18038939965
18038947167
18038954735
18038961998
18038967797
18038973961
18038979760
18038987633
18038995873
18039004479
18039012352
18039018395
18039029259
18039039940
18039047569
18039054405
18039062279
18039067650
18039074608
18039078331
18039086266
18039093407
18039098595
18039104881
18039111107
18039117516
18039122337
18039128746
18039135094
18039142479
18039147301
18039154198
18039158897
18039165794
18039170494
18039176597
18039183250
18039192283
18039198814
18039206321
18039212303
18039218406
18039223655
18039231346
18039236412
18039243492
18039250511
18039255333
18039262168
18039268150
18039274925
18039281089
18039286460
18039293724
18039300682
18039307701
18039313499
18039321617
18039329368
18039335899
18039343650
18039351646
18039357505
18039365440
18039371116
18039379905
18039386436
18039393272
18039400779
18039409080
18039416038
18039424705
18039430930
18039435996
18039446860
18039451804
18039461021
18039465598
18039475364
18039482871
18039489036
18039495688
18039504538
18039512717
18039518943
18039525473
18039533957
18039538718
18039547873
18039555136
18039562278
18039568991
18039576316
18039582358
18039590293
18039596762
18039603415
18039608847
18039615378
18039620627
18039626242
18039633566
18039640036
18039646567
18039651267
18039662314
18039671347
18039676657
18039684897
18039688681
18039697470
18039705161
18039712607
18039718527
18039724570
18039730307
18039737021
18039743552
18039749167
18039757345
18039761496
18039769247
18039774130
18039781027
18039784689
18039791647
18039797384
18039803305
18039806967
18039814291
18039820944
18039827536
18039833700
18039839071
18039843710
18039849081
18039854757
18039859030
18039866720
18039871420
18039878256
18039883505
18039890524
18039894613
18039902304
18039908346
18039915060
18039921408
18039926229
18039932760
18039938925
18039945333
18039950033
18039956869
18039961019
18039967001
18039972860
18039977682
18039982015
18039987875
18039992513
18039999960
18040006551
18040011861
18040016683
18040023519
18040031576
18040036520
18040044149
18040048910
18040054403
18040060628
18040065633
18040070760
18040078023
18040082784
18040090230
18040096822
18040102498
18040107198
18040112813
18040118856
18040123739
18040130391
18040136983
18040142537
18040149068
18040155965
18040160909
18040167440
18040173848
18040180623
18040187154
18040192708
18040199361
18040205586
18040211019
18040217549
18040227010
18040233541
18040240743
18040249471
18040257283
18040265645
18040276082
18040284810
18040292561
18040299153
18040304768
18040311665
18040318318
18040324910
18040332356
18040337056
18040342854
18040348958
18040354390
18040360432
18040366353
18040370991
18040378987
18040384297
18040390645
18040396016
18040403096
18040408406
18040414265
18040420063
18040427327
18040432515
18040439412
18040445332
18040451191
18040455159
18040462849
18040469502
18040474324
18040479634
18040486592
18040492939
18040499287
18040503315
18040511494
18040517536
18040525288
18040531330
18040536213
18040542744
18040548969
18040555378
18040560200
18040567158
18040573444
18040579792
18040584614
18040590900
18040596943
18040603352
18040608173
18040615559
18040620502
18040627338
18040635273
18040641498
18040648640
18040655475
18040660786
18040669452
18040677509
18040685749
18040693622
18040699604
18040706806
18040712726
18040721088
18040727802
18040735248
18040739154
18040747760
18040751728
18040759784
18040768268
18040775165
18040782550
18040789142
18040795856
18040802753
18040809650
18040816608
18040825580
18040831378
18040839313
18040845538
18040854083
18040860736
18040868610
18040872882
18040883685
18040892352
18040901996
18040910052
18040917255
18040927203
18040934894
18040942462
18040948199
18040955218
18040962176
18040967425
18040971637
18040982379
18040989642
18040997516
18041006854
18041015277
18041022418
18041027728
18041036334
18041041827
18041052569
18041058978
18041067584
18041073992
18041081805
18041088275
18041095050
18041102618
18041109027
18041116656
18041123004
18041130572
18041137652
18041144122
18041151629
18041158343
18041169573
18041176165
18041185442
18041191851
18041200457
18041208392
18041214739
18041222002
18041226336
18041237078
18041241472
18041250139
18041257158
18041263079
18041266619
18041274737
18041280657
18041289324
18041295244
18041301897
18041307818
18041313982
18041320269
18041326372
18041333818
18041340654
18041347124
18041352129
18041359880
18041365068
18041372881
18041379412
18041385942
18041391069
18041397112
18041402300
18041410295
18041414018
18041422380
18041426348
18041434953
18041438677
18041446611
18041453203
18041459367
18041465654
18041471880
18041479570
18041484758
18041491838
18041498491
18041504900
18041510881
18041516862
18041521684
18041532976
18041539445
18041544328
18041551164
18041556108
18041564470
18041568254
18041578508
18041583757
18041589311
18041595598
18041601213
18041607560
18041611772
18041619645
18041626115
18041631913
18041636491
18041643327
18041648454
18041655229
18041662492
18041668534
18041674577
18041680680
18041686662
18041692460
18041698747
18041704606
18041712174
18041717484
18041724748
18041729569
18041737016
18041740617
18041748429
18041754228
18041761796
18041767411
18041773759
18041780656
18041787125
18041793595
18041800797
18041807572
18041813370
18041820451
18041828080
18041835648
18041841813
18041847977
18041853409
18041861832
18041869095
18041875443
18041881730
18041888077
18041894852
18041901200
18041906632
18041913407
18041920304
18041925675
18041933854
18041941300
18041947586
18041953019
18041961136
18041968460
18041974259
18041981522
18041987381
18041993057
18042001175
18042007584
18042014481
18042020096
18042027115
18042033219
18042039200
18042045303
18042051529
18042057510
18042065689
18042072647
18042079849
18042086197
18042093094
18042099625
18042106338
18042112015
18042118790
18042125748
18042131241
18042140030
18042148880
18042156204
18042164871
18042174454
18042180801
18042187210
18042195633
18042203689
18042211807
18042218887
18042222793
18042231887
18042239456
18042246475
18042253799
18042259964
18042267044
18042272659
18042281204
18042290054
18042295486
18042302627
18042309524
18042317459
18042322830
18042330520
18042335952
18042343826
18042349136
18042355605
18042362258
18042368850
18042374587
18042381423
18042386794
18042393447
18042400161
18042406387
18042413222
18042420547
18042426284
18042433242
18042440871
18042446914
18042450942
18042460952
18042466994
18042474013
18042481154
18042488540
18042496047
18042502334
18042511184
18042516494
18042524489
18042529616
18042536635
18042541945
18042549392
18042555129
18042563124
18042570754
18042577834
18042583388
18042591262
18042598952
18042606703
18042612807
18042620253
18042629530
18042638075
18042644301
18042649184
18042659560
18042665114
18042675185
18042679884
18042687819
18042694044
18042703505
18042708021
18042717604
18042722487
18042732374
18042737135
18042745680
18042753248
18042762037
18042768934
18042776686
18042782972
18042790785
18042796827
18042802626
18042811171
18042820326
18042827772
18042840589
18042852308
18042857374
18042867628
18042877577
18042887525
18042893873
18042899671
18042906812
18042912916
18042917616
18042922743
18042930738
18042934400
18042943189
18042949964
18042956739
18042960706
18042969801
18042973768
18042982313
18042987257
18042992933
18042998853
18043005384
18043010999
18043017713
18043024183
18043030103
18043036634
18043041212
18043048108
18043057203
18043063001
18043070875
18043075635
18043082044
18043087415
18043095044
18043100477
18043108350
18043115613
18043120801
18043127820
18043134412
18043140210
18043146619
18043153211
18043159803
18043165662
18043171155
18043176221
18043181470
18043186597
18043191907
18043197339
18043203198
18043210645
18043215283
18043220227
18043225659
18043232190
18043237012
18043243420
18043248792
18043254895
18043258130
18043269055
18043275769
18043280286
18043286816
18043293957
18043299512
18043305615
18043311780
18043318921
18043325146
18043331311
18043336499
18043342969
18043349682
18043355298
18043363049
18043368664
18043374096
18043381787
18043387463
18043392285
18043398449
18043408154
18043414441
18043423840
18043431530
18043442334
18043448498
18043458081
18043465893
18043472790
18043479870
18043483898
18043493481
18043499340
18043506237
18043513134
18043520153
18043526135
18043532971
18043539440
18043546032
18043551464
18043557751
18043563610
18043570324
18043579052
18043584301
18043591076
18043596203
18043602856
18043608654
18043613293
18043618420
18043626354
18043632824
18043637768
18043643200
18043651195
18043655041
18043663219
18043669628
18043676403
18043682506
18043688976
18043696605
18043702282
18043709423
18043714367
18043721447
18043728527
18043736034
18043741710
18043748973
18043756420
18043763134
18043769237
18043776561
18043781749
18043789745
18043795116
18043801097
18043806407
18043813243
18043818553
18043825328
18043830760
18043839061
18043844920
18043854015
18043860362
18043867137
18043876353
18043882335
18043888377
18043893687
18043902721
18043908946
18043915050
18043924083
18043930003
18043936717
18043942454
18043952586
18043960399
18043966075
18043973704
18043979869
18043986155
18043992381
18043997691
18044003978
18044010508
18044015391
18044023448
18044030528
18044039683
18044048350
18044056956
18044062449
18044072459
18044080271
18044089060
18044095225
18044102671
18044108836
18044115977
18044121714
18044130869
18044137095
18044141917
18044149851
18044155405
18044162363
18044169260
18044176646
18044183604
18044189402
18044196787
18044203501
18044211252
18044219309
18044224680
18044232554
18044237986
18044245188
18044250437
18044254465
18044263498
18044270395
18044275828
18044283701
18044290842
18044297739
18044304819
18044311167
18044318125
18044324961
18044332468
18044340708
18044349131
18044357187
18044363657
18044368601
18044380319
18044385202
18044398081
18044406198
18044414438
18044421152
18044429270
18044435922
18044443979
18044452890
18044458810
18044467661
18044475839
18044482431
18044490366
18044497995
18044506052
18044514352
18044520761
18044529001
18044537301
18044545114
18044552926
18044560068
18044565561
18044571786
18044576852
18044585946
18044591440
18044597909
18044604867
18044609201
18044615426
18044622201
18044629892
18044635873
18044642099
18044648507
18044654245
18044659555
18044665231
18044673593
18044678781
18044685861
18044691110
18044698434
18044706063
18044712472
18044719613
18044727792
18044735360
18044741219
18044750131
18044756905
18044763314
18044771127
18044777169
18044782906
18044788888
18044794930
18044801095
18044806893
18044813058
18044819283
18044824349
18044831978
18044835274
18044842537
18044848641
18044854256
18044861947
18044867684
18044873787
18044877999
18044885140
18044890999
18044895821
18044901986
18044909493
18044915230
18044921395
18044927071
18044932625
18044938301
18044944039
18044950447
18044956551
18044963387
18044967598
18044974312
18044980660
18044986519
18044994332
18045001228
18045008370
18045014595
18045020088
18045025581
18045032356
18045037300
18045044746
18045051888
18045057747
18045063789
18045070198
18045075996
18045083076
18045089119
18045095711
18045102058
18045109505
18045114448
18045121467
18045128242
18045135811
18045141243
18045148567
18045156379
18045162666
18045168831
18045173774
18045182197
18045189460
18045195625
18045200996
18045208625
18045214668
18045229438
18045236274
18045242378
18045250251
18045256904
18045265327
18045271430
18045278449
18045286750
18045292549
18045301338
18045307624
18045315315
18045321296
18045330451
18045338264
18045345588
18045349555
18045359626
18045367194
18045373908
18045380866
18045387702
18045394233
18045401252
18045407355
18045414435
18045422248
18045427619
18045434760
18045441657
18045449653
18045454658
18045462714
18045468085
18045474494
18045481818
18045487372
18045494696
18045502265
18045508124
18045515693
18045521491
18045528632
18045534247
18045542731
18045548712
18045556769
18045562445
18045570258
18045577155
18045583624
18045590521
18045597174
18045603827
18045609625
18045617316
18045624457
18045629950
18045637030
18045644110
18045651190
18045659308
18045666510
18045673041
18045678900
18045685675
18045691595
18045699469
18045706000
18045713446
18045721869
18045729620
18045735907
18045743231
18045749945
18045758185
18045764044
18045772833
18045778570
18045787298
18045793097
18045800238
18045808722
18045816656
18045822576
18045832159
18045838995
18045846502
18045854925
18045861578
18045867376
18045875433
18045881353
18045889471
18045897466
18045903936
18045911138
18045920416
18045929327
18045937689
18045948736
18045958440
18045965581
18045974615
18045981084
18045989995
18045996465
18046003850
18046015752
18046020635
18046030889
18046038457
18046047124
18046055547
18046062749
18046069829
18046077947
18046085332
18046094121
18046100835
18046108831
18046115056
18046121465
18046130193
18046137822
18046144170
18046151982
18046158086
18046165654
18046172124
18046179936
18046186162
18046194097
18046201482
18046210393
18046217900
18046224675
18046230657
18046238774
18046247258
18046250188
18046260075
18046266911
18046271916
18046279240
18046283879
18046290837
18046297917
18046304387
18046310673
18046317631
18046323002
18046330388
18046335881
18046341435
18046347172
18046352849
18046356328
18046365544
18046371037
18046377018
18046383183
18046389348
18046396061
18046402165
18046408940
18046417851
18046424504
18046429264
18046435551
18046440373
18046447392
18046452275
18046460819
18046464726
18046472538
18046478337
18046484013
18046489323
18046494938
18046501774
18046507755
18046513737
18046519169
18046525089
18046529789
18046535221
18046540775
18046548100
18046553715
18046559086
18046564274
18046569401
18046575565
18046581181
18046587040
18046593143
18046598026
18046603763
18046609562
18046614200
18046620426
18046627323
18046633060
18046639896
18046645511
18046651859
18046658024
18046664127
18046671207
18046678959
18046685001
18046691471
18046697513
18046703251
18046709415
18046715580
18046721134
18046727542
18046734622
18046739872
18046746341
18046751468
18046758304
18046763675
18046771732
18046777896
18046783817
18046789737
18046795719
18046802249
18046806705
18046814273
18046820987
18046826907
18046833865
18046840091
18046845279
18046852420
18046857669
18046870731
18046882877
18046894229
18046905154
18046911929
18046919498
18046926089
18046932315
18046940249
18046945926
18046951297
18046958377
18046963565
18046971255
18046976199
18046985782
18046991763
18046997989
18047003238
18047010684
18047016604
18047022708
18047028933
18047035952
18047043093
18047048159
18047056155
18047063906
18047070986
18047079470
18047086184
18047091921
18047097842
18047104434
18047111453
18047117434
18047124514
18047133181
18047138613
18047144350
18047149538
18047157046
18047162234
18047169070
18047174136
18047182192
18047189822
18047195925
18047202029
18047208071
18047213076
18047219118
18047226504
18047233339
18047239626
18047246340
18047251284
18047257937
18047264773
18047272341
18047281374
18047288393
18047295107
18047302065
18047308413
18047315676
18047322878
18047328798
18047335329
18047342348
18047348879
18047355715
18047361330
18047368532
18047374330
18047384218
18047390871
18047397218
18047403810
18047410341
18047415956
18047422243
18047429506
18047436098
18047442873
18047449342
18047455568
18047462099
18047467836
18047474916
18047482728
18047488588
18047496278
18047501832
18047508668
18047514467
18047524415
18047529909
18047538331
18047544801
18047553529
18047561220
18047566896
18047573121
18047581483
18047589174
18047596559
18047601319
18047610048
18047616334
18047623170
18047629945
18047638124
18047644105
18047654786
18047662171
18047669496
18047676270
18047685670
18047692811
18047700684
18047707215
18047717103
18047723206
18047731507
18047738526
18047743836
18047754700
18047759888
18047770081
18047775269
18047783997
18047791688
18047800965
18047807801
18047814332
18047820984
18047830262
18047837037
18047845948
18047852540
18047861512
18047868409
18047876831
18047883057
18047891602
18047897889
18047906556
18047914856
18047919617
18047927246
18047934571
18047942749
18047948853
18047955139
18047960755
18047968140
18047973450
18047982544
18047986328
18047995484
18047999573
18048008667
18048012634
18048022278
18048027832
18048034912
18048040405
18048046570
18048052795
18048059143
18048064148
18048068603
18048074829
18048081238
18048086548
18048092895
18048098389
18048103393
18048109741
18048114624
18048120910
18048126037
18048132629
18048137878
18048144958
18048150207
18048158203
18048164917
18048171631
18048177063
18048183715
18048190490
18048197021
18048202575
18048208679
18048214172
18048219787
18048225036
18048231018
18048236999
18048241455
18048248352
18048253601
18048260070
18048266113
18048271911
18048277526
18048282348
18048287963
18048294982
18048300781
18048306640
18048312011
18048318054
18048324584
18048328796
18048335448
18048341735
18048347717
18048352599
18048359252
18048364196
18048371581
18048378356
18048384399
18048390746
18048396606
18048402038
18048407958
18048414855
18048421569
18048427978
18048432738
18048438537
18048443419
18048450866
18048456542
18048461669
18048466735
18048475768
18048483153
18048488524
18048495971
18048502074
18048507506
18048513549
18048521117
18048526000
18048532714
