18222350323
18222357281
18222363079
18222368084
18222373455
18222379620
18222385052
18222390545
18222395733
18222401043
18222405743
18222411236
18222417705
18222423138
18222428020
18222434368
18222441143
18222447552
18222453899
18222459698
18222466350
18222472881
18222478924
18222484783
18222490947
18222495281
18222504497
18222510051
18222516582
18222523052
18222529400
18222536296
18222542827
18222551128
18222558391
18222568523
18222576274
18222586894
18222595439
18222601970
18222611553
18222618144
18222625285
18222632427
18222640544
18222647929
18222654277
18222664836
18222671855
18222678752
18222685222
18222691325
18222699443
18222708110
18222714641
18222722880
18222730937
18222737407
18222746196
18222751811
18222761088
18222768168
18222775554
18222782390
18222788432
18222798137
18222806620
18222815471
18222825908
18222836039
18222848429
18222856608
18222866557
18222875712
18222885173
18222894328
18222900492
18222908549
18222917033
18222923258
18222931132
18222939372
18222946269
18222952677
18222961283
18222970683
18222977152
18222985331
18222991557
18223001017
18223007609
18223015482
18223025919
18223033243
18223040385
18223047037
18223055765
18223064493
18223071512
18223080790
18223091105
18223102335
18223110209
18223117350
18223125284
18223134439
18223141642
18223149576
18223156839
18223165323
18223172769
18223178629
18223187418
18223193827
18223201395
18223209329
18223217325
18223223917
18223231363
18223238138
18223247110
18223255045
18223261514
18223269144
18223275797
18223283487
18223292459
18223300272
18223306192
18223314004
18223322183
18223329874
18223338785
18223346353
18223355203
18223363870
18223370035
18223378946
18223385660
18223392923
18223400186
18223409158
18223416421
18223424234
18223431863
18223440530
18223448709
18223459451
18223466897
18223475198
18223483743
18223492349
18223504556
18223514199
18223528420
18223538491
18223550210
18223560525
18223571999
18223578591
18223586892
18223593850
18223604653
18223612649
18223620217
18223627968
18223635720
18223647683
18223655251
18223663735
18223672158
18223680703
18223689248
18223697793
18223705300
18223713906
18223721291
18223728066
18223736733
18223743080
18223752541
18223761513
18223769142
18223776284
18223783669
18223790932
18223798134
18223806313
18223814736
18223822548
18223829018
18223837135
18223843239
18223850990
18223857216
18223866066
18223872536
18223881996
18223889381
18223898109
18223902504
18223912453
18223916725
18223926674
18223934486
18223942238
18223950661
18223958107
18223964699
18223971718
18223979530
18223988014
18223995399
18224002906
18224009376
18224015175
18224024086
18224030311
18224038673
18224046119
18224053443
18224060401
18224067115
18224074501
18224081336
18224088661
18224097755
18224104164
18224111732
18224118812
18224127662
18224136329
18224143043
18224151588
18224160682
18224166236
18224175086
18224180640
18224189613
18224195289
18224203773
18224210242
18224222083
18224229896
18224237586
18224247596
18224254493
18224265723
18224270728
18224280860
18224289222
18224296180
18224306006
18224312537
18224322669
18224328467
18224335059
18224342444
18224349829
18224356971
18224363929
18224372168
18224380530
18224388709
18224397498
18224405249
18224412757
18224420325
18224427222
18224435217
18224443579
18224450842
18224458533
18224465430
18224473181
18224481543
18224490515
18224498389
18224507056
18224514929
18224522620
18224530432
18224537573
18224545263
18224552344
18224559790
18224566504
18224575598
18224584204
18224593176
18224602026
18224610022
18224618200
18224625586
18224632788
18224640112
18224646337
18224654638
18224661596
18224669897
18224678320
18224685705
18224693456
18224700475
18224709997
18224715002
18224725256
18224735388
18224743993
18224751501
18224757970
18224767492
18224774084
18224780675
18224786413
18224793310
18224800329
18224807226
18224814611
18224819982
18224828466
18224833227
18224841710
18224846715
18224856481
18224864904
18224870275
18224878698
18224884252
18224890783
18224896581
18224904821
18224912084
18224919896
18224927282
18224934850
18224941930
18224947240
18224956212
18224961888
18224970250
18224978185
18224984532
18224990087
18224997838
18225004552
18225010350
18225017064
18225023961
18225030431
18225037328
18225043309
18225050450
18225056920
18225062230
18225070531
18225077428
18225085057
18225092198
18225099278
18225106541
18225114598
18225121373
18225127720
18225135899
18225141636
18225150670
18225157445
18225165257
18225172520
18225182774
18225187596
18225197361
18225202122
18225211277
18225218602
18225225621
18225233311
18225239415
18225247227
18225255223
18225263340
18225271519
18225277256
18225284519
18225293369
18225299534
18225308262
18225314610
18225323399
18225329197
18225336643
18225344639
18225353367
18225360142
18225368687
18225374607
18225382297
18225389927
18225396091
18225403782
18225411228
18225418918
18225426243
18225433872
18225438694
18225449619
18225458225
18225464756
18225471958
18225482273
18225490574
18225497348
18225504551
18225512546
18225521518
18225528659
18225535007
18225544162
18225552646
18225560825
18225567234
18225572360
18225583347
18225588413
18225599399
18225607944
18225614414
18225621677
18225632419
18225640414
18225649143
18225657565
18225666843
18225674350
18225683932
18225693698
18225703525
18225711825
18225717685
18225725497
18225733188
18225739291
18225747348
18225754367
18225762484
18225770114
18225777804
18225784091
18225791964
18225796664
18225807834
18225812533
18225822970
18225827609
18225836093
18225842562
18225851962
18225856967
18225867465
18225873995
18225882174
18225889315
18225897372
18225903903
18225910616
18225918917
18225927584
18225934115
18225941012
18225949374
18225956026
18225961947
18225970370
18225979220
18225985262
18225993746
18226003023
18226009371
18226018221
18226027193
18226034945
18226041353
18226050936
18226059908
18226067293
18226072970
18226079134
18226086153
18226091768
18226096712
18226103853
18226109530
18226117220
18226122652
18226129366
18226135652
18226140169
18226147798
18226152681
18226160372
18226165254
18226171236
18226175936
18226183992
18226189607
18226196321
18226202852
18226208223
18226214449
18226220613
18226225984
18226232088
18226237642
18226245271
18226251314
18226256746
18226262117
18226267976
18226273714
18226280916
18226288240
18226294099
18226300752
18226305696
18226312654
18226318330
18226322420
18226331636
18226337312
18226343782
18226350801
18226355745
18226362947
18226368745
18226376130
18226382112
18226386201
18226392915
18226398774
18226403535
18226407930
18226414888
18226421968
18226427522
18226431977
18226437348
18226443696
18226449372
18226455720
18226460725
18226468354
18226473908
18226479219
18226484406
18226489778
18226494904
18226501924
18226508210
18226514924
18226520234
18226526887
18226536408
18226545441
18226555329
18226563325
18226571564
18226579133
18226589143
18226595002
18226605866
18226614594
18226624421
18226634614
18226642609
18226650727
18226656769
18226668244
18226676911
18226684601
18226695221
18226702423
18226710602
18226716462
18226726837
18226735504
18226744110
18226751313
18226758515
18226768769
18226777741
18226786591
18226796478
18226803497
18226814118
18226822479
18226833832
18226841217
18226852875
18226862152
18226868683
18226877899
18226886627
18226895233
18226903717
18226912506
18226922027
18226929901
18226937164
18226947967
18226953094
18226964081
18226972442
18226984893
18226994537
18227005035
18227015533
18227021087
18227032440
18227041473
18227052642
18227061981
18227070220
18227079681
18227086883
18227098235
18227103729
18227114288
18227119598
18227130889
18227140716
18227149078
18227158050
18227165130
18227175262
18227182159
18227192107
18227199615
18227209380
18227217132
18227226043
18227233428
18227244414
18227249358
18227261748
18227270476
18227279448
18227288237
18227297881
18227306365
18227313689
18227325347
18227333892
18227341338
18227349333
18227359465
18227368010
18227376494
18227385161
18227391631
18227402251
18227409453
18227418364
18227425871
18227436186
18227443877
18227452055
18227459868
18227467253
18227471709
18227482146
18227493803
18227500517
18227511320
18227522734
18227533659
18227541166
18227549772
18227559599
18227570952
18227579802
18227587980
18227598600
18227606596
18227618803
18227628813
18227638456
18227647367
18227656584
18227666532
18227677091
18227685941
18227696073
18227706510
18227714506
18227724149
18227731901
18227743314
18227752103
18227762357
18227771390
18227781400
18227792325
18227802396
18227810087
18227819669
18227828824
18227838529
18227848417
18227857999
18227867215
18227877897
18227887235
18227897855
18227907132
18227915006
18227925504
18227933805
18227947843
18227954618
18227965360
18227975797
18227984830
18227995877
18228006192
18228015103
18228023343
18228034757
18228042935
18228053799
18228062344
18228074612
18228080289
18228091702
18228099759
18228110745
18228119900
18228129788
18228138150
18228145901
18228153592
18228160733
18228166958
18228171719
18228179409
18228184414
18228191372
18228198025
18228204861
18228209927
18228217678
18228222805
18228230679
18228234402
18228243008
18228246792
18228254421
18228261196
18228267300
18228270962
18228279751
18228287075
18228293850
18228300442
18228307034
18228312954
18228319302
18228325649
18228331692
18228337734
18228345181
18228351284
18228355984
18228363186
18228368008
18228374355
18228379116
18228386135
18228392971
18228397549
18228404079
18228410427
18228416042
18228421718
18228426906
18228435146
18228440700
18228445766
18228452175
18228457546
18228462551
18228468166
18228474453
18228480251
18228485805
18228491665
18228496059
18228502346
18228507534
18228514736
18228521328
18228527431
18228534633
18228541713
18228547512
18228553188
18228560878
18228569850
18228577419
18228582973
18228589198
18228595241
18228602626
18228607143
18228613857
18228620387
18228626308
18228633510
18228639308
18228645229
18228652614
18228660243
18228665187
18228672023
18228677333
18228685634
18228691737
18228698024
18228704371
18228709071
18228716334
18228722926
18228729030
18228734340
18228742152
18228746791
18228756495
18228762782
18228770472
18228776759
18228783839
18228790736
18228796168
18228803492
18228809718
18228816920
18228824305
18228830409
18228837489
18228844264
18228850733
18228856227
18228864405
18228870997
18228877650
18228882777
18228891749
18228897608
18228904261
18228910487
18228917750
18228923853
18228930140
18228938258
18228946009
18228952662
18228959803
18228967127
18228974024
18228981531
18228987696
18228995142
18229001673
18229008997
18229015223
18229022303
18229028773
18229034205
18229041712
18229047327
18229056055
18229059900
18229069361
18229073389
18229082422
18229089808
18229098291
18229103235
18229109827
18229116724
18229123316
18229129663
18229136743
18229145166
18229154932
18229162500
18229171594
18229177332
18229185877
18229191553
18229200403
18229206262
18229214380
18229222070
18229228357
18229236047
18229242761
18229248743
18229258020
18229263574
18229270776
18229277124
18229283777
18229290002
18229296960
18229303857
18229311365
18229318200
18229324853
18229331445
18229338281
18229345910
18229351342
18229358850
18229366052
18229373132
18229380151
18229386682
18229391992
18229399377
18229407434
18229415002
18229420800
18229429284
18229437524
18229443505
18229451318
18229457543
18229465112
18229472375
18229477990
18229485986
18229491418
18229500024
18229505822
18229513451
18229521569
18229530236
18229536218
18229544518
18229550988
18229559472
18229563927
18229572716
18229579674
18229586449
18229593896
18229602379
18229609582
18229618310
18229626977
18229635033
18229643517
18229652489
18229660668
18229667199
18229675805
18229682457
18229692040
18229698510
18229707665
18229716454
18229723107
18229731530
18229738854
18229744591
18229753014
18229758995
18229770043
18229777245
18229784081
18229792381
18229799645
18229805809
18229814720
18229820580
18229828514
18229836205
18229844200
18229850243
18229858238
18229866173
18229872215
18229880150
18229886497
18229892540
18229900596
18229911217
18229916466
18229924339
18229929649
18229936912
18229940574
18229949119
18229955650
18229963218
18229967003
18229975547
18229983177
18229989708
18229995018
18230001426
18230008079
18230014915
18230021507
18230028221
18230034629
18230041038
18230048057
18230052757
18230060508
18230065269
18230072288
18230077110
18230085044
18230089805
18230097984
18230101341
18230110557
18230116782
18230122642
18230129966
18230136192
18230144859
18230149619
18230156333
18230161216
18230168662
18230173850
18230180625
18230184043
18230193015
18230198264
18230204368
18230210959
18230216636
18230223411
18230229819
18230235129
18230240195
18230246970
18230251975
18230260093
18230264060
18230271933
18230278037
18230283652
18230290061
18230296103
18230301535
18230307944
18230315451
18230320395
18230328147
18230333213
18230340537
18230345420
18230352194
18230359336
18230366538
18230372946
18230378134
18230384848
18230390341
18230397788
18230403769
18230411276
18230417990
18230424582
18230431357
18230437338
18230444113
18230448691
18230460959
18230467612
18230479086
18230485007
18230491598
18230499533
18230510580
18230516379
18230523886
18230531698
18230538107
18230542685
18230549582
18230556540
18230563192
18230570211
18230576681
18230582602
18230589193
18230596456
18230602621
18230609335
18230614279
18230621725
18230628805
18230635824
18230641561
18230648031
18230655050
18230662557
18230668417
18230674948
18230683248
18230689230
18230695150
18230703817
18230709860
18230718465
18230722616
18230731405
18230735372
18230743856
18230750814
18230757406
18230761373
18230771871
18230777791
18230784627
18230792623
18230799154
18230804952
18230811361
18230818380
18230825521
18230831502
18230838582
18230845479
18230850606
18230858114
18230864095
18230872945
18230879171
18230885640
18230891988
18230898702
18230904744
18230910176
18230917501
18230922872
18230931600
18230935262
18230943807
18230950948
18230958821
18230966695
18230973592
18230981343
18230987386
18230994954
18231001729
18231009663
18231014058
18231025594
18231032613
18231038167
18231045979
18231053181
18231061238
18231067342
18231075459
18231083394
18231090657
18231096272
18231104390
18231112507
18231120991
18231125935
18231139424
18231147664
18231153340
18231163289
18231169575
18231177693
18231183125
18231190998
18231198140
18231204975
18231212056
18231220661
18231226094
18231233845
18231239216
18231248188
18231256611
18231262837
18231270527
18231277363
18231283711
18231292072
18231298359
18231306416
18231312946
18231323078
18231330158
18231338764
18231345539
18231353046
18231362934
18231371601
18231379719
18231393513
18231402851
18231414814
18231424213
18231435871
18231445087
18231459308
18231465717
18231479877
18231492206
18231500690
18231506244
18231515033
18231519550
18231531940
18231539874
18231545795
18231553974
18231561298
18231569110
18231574359
18231583820
18231589069
18231597614
18231604022
18231609760
18231615314
18231621600
18231627765
18231633136
18231642230
18231648944
18231655475
18231661578
18231666827
18231675189
18231682330
18231688251
18231694415
18231700213
18231707660
18231712787
18231720355
18231727374
18231733416
18231739703
18231745929
18231752948
18231757892
18231765765
18231773394
18231779498
18231785052
18231790789
18231797198
18231803424
18231810748
18231818377
18231823565
18231832232
18231838702
18231845721
18231851214
18231859149
18231866107
18231871905
18231877642
18231883135
18231889361
18231895709
18231901629
18231908221
18231914446
18231920306
18231926226
18231933428
18231937640
18231944414
18231950579
18231957110
18231961870
18231969134
18231974627
18231981829
18231988238
18231994768
18232002520
18232007647
18232015276
18232020159
18232028154
18232034441
18232043291
18232048906
18232055498
18232062517
18232067339
18232074602
18232080950
18232088396
18232094377
18232100908
18232106768
18232113115
18232120134
18232127458
18232134661
18232141191
18232147417
18232153276
18232160051
18232166460
18232172014
18232180254
18232186418
18232194597
18232201494
18232208391
18232217546
18232222978
18232231218
18232239458
18232244524
18232251848
18232258623
18232265398
18232270524
18232280046
18232286699
18232293352
18232299638
18232304887
18232312333
18232318376
18232326738
18232334245
18232341081
18232347001
18232352494
18232359758
18232365068
18232374345
18232381669
18232389054
18232395524
18232403154
18232410661
18232417375
18232425248
18232432328
18232439713
18232448136
18232455461
18232462174
18232467118
18232475419
18232482682
18232489518
18232495133
18232503556
18232508927
18232516618
18232522965
18232529801
18232536698
18232543473
18232550736
18232557389
18232566483
18232572404
18232580155
18232585648
18232593461
18232599137
18232607071
18232613663
18232620987
18232627701
18232639054
18232646073
18232652970
18232659562
18232666825
18232673661
18232680191
18232687088
18232695450
18232701187
18232707962
18232715470
18232722245
18232730362
18232737198
18232744095
18232751663
18232758438
18232766434
18232771805
18232782486
18232790787
18232799698
18232807816
18232816360
18232823929
18232830154
18232838333
18232847183
18232854324
18232862930
18232870071
18232878738
18232885879
18232894485
18232901504
18232910415
18232918350
18232925430
18232935135
18232941604
18232949234
18232955825
18232965347
18232971939
18232980117
18232987320
18232997573
18233004653
18233013626
18233020828
18233029373
18233036880
18233047317
18233054946
18233064163
18233071670
18233080886
18233088149
18233097366
18233105117
18233117263
18233125869
18233135696
18233144179
18233154006
18233162124
18233172866
18233180129
18233190322
18233197585
18233207046
18233214858
18233222609
18233229445
18233239577
18233244155
18233254714
18233262709
18233269606
18233273818
18233282058
18233288527
18233296523
18233302626
18233308913
18233316542
18233323561
18233329726
18233334914
18233342482
18233348403
18233355177
18233363051
18233369154
18233375624
18233382033
18233389357
18233393874
18233401991
18233409010
18233415175
18233420363
18233427748
18233435316
18233441725
18233448561
18233454909
18233460341
18233466627
18233473402
18233479811
18233487196
18233494032
18233500319
18233505446
18233513197
18233519240
18233524916
18233528395
18233537489
18233543165
18233549330
18233556349
18233561232
18233568678
18233574659
18233580152
18233586378
18233592482
18233599317
18233604200
18233612196
18233617567
18233624891
18233628187
18233636732
18233642713
18233648451
18233654493
18233660413
18233667127
18233671827
18233678785
18233685743
18233691114
18233696729
18233702833
18233707899
18233713697
18233720289
18233725721
18233734083
18233739942
18233751112
18233760023
18233771314
18233779066
18233789014
18233795789
18233800611
18233809522
18233815381
18233821851
18233827771
18233833814
18233839551
18233845472
18233854139
18233861219
18233867627
18233873609
18233880201
18233886731
18233892896
18233899915
18233905469
18233912427
18233919812
18233926099
18233931470
18233939038
18233946118
18233953137
18233959607
18233966687
18233972974
18233980054
18233986401
18233991773
18234001050
18234006360
18234012585
18234018933
18234025220
18234032483
18234039441
18234046094
18234051282
18234057324
18234065198
18234071545
18234077893
18234084180
18234090466
18234097668
18234104321
18234110669
18234117322
18234124402
18234130444
18234135815
18234143567
18234151867
18234158703
18234165051
18234171337
18234177441
18234184216
18234190869
18234196789
18234202771
18234209423
18234215344
18234221203
18234228893
18234234814
18234242993
18234249645
18234255993
18234261608
18234268566
18234275280
18234281689
18234289562
18234295483
18234303051
18234309155
18234315746
18234320141
18234327831
18234335277
18234343456
18234354015
18234361278
18234369213
18234378246
18234387707
18234393383
18234402050
18234408153
18234414745
18234421581
18234427807
18234435131
18234440319
18234447277
18234453441
18234461071
18234467907
18234474132
18234480236
18234487194
18234493236
18234500255
18234505260
18234514659
18234522533
18234529857
18234537059
18234545116
18234551463
18234557262
18234565563
18234570079
18234579173
18234585704
18234594432
18234601756
18234608409
18234615550
18234622447
18234628551
18234636241
18234642528
18234650828
18234658824
18234665050
18234674144
18234682200
18234688060
18234696238
18234703563
18234710215
18234718882
18234723887
18234733836
18234742564
18234748545
18234753062
18234765269
18234772898
18234778758
18234786082
18234794017
18234801707
18234809886
18234817027
18234825266
18234831492
18234839427
18234846751
18234853770
18234860606
18234866160
18234873606
18234878611
18234887583
18234892710
18234898508
18234903513
18234910593
18234914378
18234923228
18234930064
18234935984
18234940989
18234946848
18234953684
18234958567
18234967234
18234974375
18234980356
18234989634
18234997812
18235005320
18235015390
18235024973
18235036692
18235042673
18235049326
18235057444
18235062021
18235069406
18235075937
18235081430
18235086679
18235092783
18235101084
18235106272
18235113779
18235117136
18235125498
18235130197
18235135629
18235143198
18235148142
18235155405
18235159006
18235166879
18235172922
18235177133
18235184030
18235190317
18235196542
18235201303
18235207956
18235213571
18235220041
18235223459
18235232187
18235239816
18235245004
18235251413
18235254709
18235263864
18235269845
18235275644
18235281747
18235286996
18235293771
18235299753
18235306161
18235313546
18235318185
18235324655
18235330758
18235336862
18235342050
18235349313
18235355111
18235361215
18235367318
18235373422
18235380502
18235385385
18235392099
18235398080
18235404244
18235410531
18235416818
18235423226
18235427926
18235435678
18235440988
18235449471
18235455575
18235462838
18235469613
18235474435
18235480965
18235487252
18235496041
18235501412
18235508431
18235514352
18235520882
18235526131
18235533822
18235537850
18235548348
18235556832
18235562630
18235569771
18235575509
18235585274
18235592537
18235600167
18235607491
18235614571
18235621102
18235626351
18235634407
18235641365
18235647896
18235654610
18235662178
18235668099
18235674874
18235681221
18235686592
18235693978
18235700936
18235707283
18235713692
18235719856
18235724800
18235731148
18235739510
18235747078
18235753121
18235758858
18235766304
18235771675
18235778267
18235784248
18235792305
18235798958
18235805428
18235811836
18235818550
18235826729
18235831734
18235838692
18235846382
18235852791
18235858955
18235865486
18235872383
18235878731
18235885017
18235893013
18235901008
18235906929
18235914436
18235922859
18235928779
18235934272
18235942512
18235950203
18235956855
18235961494
18235969978
18235977790
18235982856
18235991584
18235997688
18236005744
18236011421
18236019966
18236024299
18236033515
18236039802
18236048347
18236055610
18236062690
18236070197
18236077216
18236084235
18236091193
18236097846
18236105659
18236113410
18236118903
18236127387
18236134589
18236142463
18236147834
18236158027
18236163947
18236171088
18236179267
18236187873
18236193305
18236203498
18236211921
18236220221
18236229133
18236235236
18236243415
18236251349
18236259223
18236266364
18236273139
18236281134
18236289252
18236295050
18236302619
18236310248
18236317450
18236323432
18236331427
18236337653
18236345343
18236351386
18236360053
18236366217
18236375189
18236382208
18236389838
18236398077
18236404120
18236411627
18236420233
18236428595
18236436224
18236444830
18236450995
18236459601
18236468146
18236475531
18236482245
18236489020
18236495611
18236503058
18236510260
18236516607
18236521978
18236529364
18236534674
18236543036
18236549200
18236555426
18236559210
18236567022
18236573614
18236579962
18236586676
18236593206
18236599920
18236606756
18236613470
18236618780
18236627264
18236633489
18236639715
18236645757
18236653082
18236659551
18236665777
18236672552
18236678899
18236685369
18236690801
18236698186
18236706365
18236712469
18236719121
18236725713
18236732549
18236737615
18236743841
18236750921
18236756902
18236761846
18236767644
18236773687
18236778692
18236786687
18236793523
18236799627
18236804998
18236810796
18236816289
18236820928
18236830083
18236836553
18236846379
18236851934
18236858342
18236864141
18236870854
18236878118
18236885625
18236890447
18236897161
18236902471
18236909062
18236912541
18236922002
18236928288
18236934941
18236942143
18236947270
18236955815
18236961064
18236970219
18236975346
18236984013
18236991399
18236998112
18237003606
18237010075
18237016240
18237023259
18237030095
18237035954
18237041936
18237049260
18237054143
18237062016
18237069584
18237076787
18237082890
18237089909
18237095524
18237103398
18237108952
18237116948
18237125126
18237131352
18237135197
18237144108
18237151188
18237158207
18237165226
18237172062
18237179325
18237185917
18237191715
18237198307
18237205143
18237211674
18237219547
18237227116
18237233158
18237240177
18237246037
18237252934
18237258793
18237266483
18237272526
18237280216
18237286686
18237293339
18237299808
18237306583
18237312687
18237319279
18237326359
18237333805
18237339725
18237345951
18237352787
18237360294
18237366886
18237374820
18237382145
18237387455
18237395511
18237401859
18237408146
18237414066
18237421756
18237429630
18237434940
18237442752
18237449405
18237458438
18237464481
18237473941
18237481876
18237489444
18237497196
18237504764
18237513248
18237518558
18237526615
18237532047
18237540286
18237547550
18237554324
18237559940
18237567142
18237572574
18237579837
18237585391
18237593692
18237599307
18237605838
18237611209
18237619266
18237624759
18237634097
18237641299
18237647708
18237653445
18237660342
18237664126
18237673953
18237681460
18237688418
18237695132
18237701541
18237708194
18237715823
18237722903
18237728396
18237736209
18237744204
18237749881
18237757449
18237764956
18237771243
18237778567
18237786685
18237794497
18237800723
18237808901
18237815005
18237821230
18237828860
18237835207
18237842959
18237851138
18237857913
18237866091
18237874087
18237881167
18237889101
18237897341
18237905520
18237913576
18237919558
18237927004
18237934695
18237942080
18237948977
18237956484
18237963686
18237973330
18237982302
18237989138
18237997927
18238005129
18238013918
18238020937
18238027346
18238037661
18238044252
18238054262
18238060915
18238069277
18238077333
18238085512
18238093263
18238100649
18238108644
18238116335
18238124635
18238130739
18238138674
18238145448
18238156923
18238164125
18238171816
18238179140
18238187074
18238192323
18238199464
18238207460
18238216127
18238221376
18238229127
18238235475
18238241640
18238247987
18238254945
18238261903
18238268495
18238275575
18238280580
18238287660
18238294069
18238299989
18238306581
18238314088
18238319398
18238326722
18238332093
18238338441
18238344850
18238350709
18238358033
18238364320
18238370423
18238375550
18238380677
18238391175
18238399293
18238405946
18238412477
18238418946
18238426942
18238431764
18238438905
18238445924
18238452088
18238457520
18238464967
18238469971
18238475587
18238481690
18238487550
18238494202
18238500367
18238506043
18238514893
18238521058
18238526429
18238533509
18238540589
18238546265
18238553345
18238559937
18238565857
18238570496
18238576783
18238582032
18238589112
18238594422
18238600708
18238607239
18238613709
18238620972
18238627381
18238633484
18238640259
18238647278
18238652222
18238658997
18238664673
18238671509
18238678406
18238684693
18238690674
18238696717
18238703064
18238709046
18238715515
18238722229
18238729736
18238735901
18238744019
18238749756
18238757141
18238763245
18238772705
18238779785
18238786987
18238792358
18238802185
18238809997
18238814941
18238823059
18238830505
18238838928
18238844421
18238852661
18238858093
18238864746
18238871826
18238877990
18238883484
18238892090
18238897888
18238905945
18238913452
18238920593
18238924804
18238934082
18238941467
18238948547
18238955261
18238961853
18238969055
18238974487
18238981750
18238988342
18238995056
18239001647
18239009094
18239014221
18239022643
18239028198
18239035156
18239042236
18239049743
18239056091
18239064758
18239071349
18239077392
18239083068
18239090942
18239096374
18239104491
18239112365
18239119140
18239124450
18239132079
18239139831
18239146972
18239151916
18239161498
18239168273
18239175658
18239182494
18239187804
18239195434
18239203002
18239210753
18239216735
18239224364
18239229918
18239237181
18239242675
18239250426
18239256957
18239263976
18239270690
18239278319
18239282408
18239290465
18239296752
18239303893
18239311644
18239319884
18239326720
18239333922
18239340880
18239347899
18239354735
18239361693
18239368651
18239376952
18239383604
18239389525
18239396422
18239403563
18239410704
18239418150
18239427061
18239435789
18239446104
18239453367
18239463438
18239472044
18239480467
18239493834
18239499022
18239506041
18239512144
18239520689
18239527464
18239535215
18239539488
18239547850
18239552183
18239560728
18239567564
18239572752
18239579954
18239585386
18239589414
18239598448
18239602476
18239611875
18239616087
18239625242
18239632322
18239639280
18239645689
18239652891
18239657224
18239665952
18239673521
18239679197
18239686704
18239693357
18239701353
18239707578
18239716245
18239724790
18239730833
18239737913
18239745115
18239753049
18239760435
18239767270
18239775266
18239781797
18239788205
18239795347
18239801633
18239810666
18239815671
18239824887
18239832029
18239839719
18239846067
18239851621
18239857358
18239866147
18239869870
18239877011
18239882871
18239888730
18239894773
18239900144
18239906919
18239913449
18239919858
18239924313
18239930234
18239934873
18239942502
18239948605
18239955930
18239962766
18239969662
18239975217
18239981869
18239987424
18239994992
18240000119
18240007931
18240013974
18240019772
18240026486
18240033078
18240038632
18240045224
18240052121
18240059689
18240065487
18240071286
18240077878
18240083249
18240091061
18240098080
18240105465
18240112118
18240117367
18240124569
18240131344
18240138546
18240143795
18240150875
18240156246
18240163021
18240169857
18240175534
18240180477
18240186032
18240192562
18240198910
18240206295
18240211605
18240217831
18240224362
18240230221
18240236324
18240242611
18240249691
18240254025
18240260922
18240267391
18240273312
18240278194
18240285885
18240291073
18240298946
18240302975
18240311336
18240318355
18240324215
18240330929
18240335750
18240343746
18240350460
18240355892
18240362423
18240369076
18240374508
18240382930
18240389034
18240395748
18240402950
18240409908
18240415767
18240422542
18240430538
18240437557
18240443721
18240450862
18240456478
18240463985
18240469844
18240476070
18240483272
18240490047
18240496272
18240502986
18240509700
18240516841
18240522273
18240529231
18240534725
18240543147
18240549556
18240555965
18240563106
18240570125
18240577632
18240583675
18240591609
18240598750
18240604854
18240611079
18240617366
18240624934
18240632319
18240639400
18240645381
18240652400
18240658748
18240665095
18240672297
18240683040
18240689875
18240698054
18240705500
18240713252
18240721064
18240728328
18240733393
18240742366
18240750605
18240758906
18240764704
18240772517
18240778376
18240784724
18240791804
18240799555
18240805964
18240812739
18240819026
18240825739
18240832087
18240839594
18240846247
18240853205
18240856989
18240866755
18240874689
18240881342
18240887873
18240894953
18240901240
18240907709
18240915095
18240920161
18240927973
18240935053
18240943659
18240949640
18240956354
18240961847
18240969538
18240975153
18240982477
18240987970
18240997736
18241004633
18241009516
18241017389
18241024530
18241033808
18241039179
18241046442
18241054499
18241061151
18241068781
18241075495
18241081537
18241089777
18241095758
18241103571
18241109552
18241117304
18241123590
18241132990
18241140314
18241147577
18241154596
18241162408
18241170221
18241178217
18241185480
18241191827
18241201227
18241208307
18241215631
18241223443
18241231561
18241237298
18241245660
18241253229
18241260736
18241268487
18241277398
18241286248
18241293084
18241300592
18241307183
18241315667
18241321954
18241332574
18241339837
18241345574
18241352471
18241361199
18241370294
18241377008
18241384881
18241392694
18241399713
18241409722
18241419427
18241427544
18241437249
18241445672
18241455560
18241461663
18241468377
18241476006
18241482781
18241491143
18241498833
18241505730
18241513238
18241521172
18241527581
18241535699
18241542901
18241548211
18241554436
18241559685
18241566948
18241575249
18241581780
18241585686
18241593743
18241599541
18241605645
18241611687
18241618462
18241627251
18241632500
18241639519
18241646416
18241653069
18241659783
18241665703
18241672600
18241680351
18241686028
18241693047
18241699089
18241706169
18241709831
18241719475
18241726494
18241732781
18241737846
18241744011
18241749992
18241756218
18241763725
18241768425
18241776176
18241780876
18241787590
18241794548
18241800774
18241807365
18241813957
18241820366
18241826042
18241833305
18241839531
18241845695
18241851738
18241858574
18241865349
18241872062
18241879387
18241885063
18241891349
18241896965
18241901970
18241908439
18241915275
18241921379
18241926567
18241933036
18241940116
18241944816
18241952812
18241958671
18241964408
18241971183
18241977043
18241982597
18241988639
18241994865
18242004203
18242010978
18242018546
18242025749
18242033317
18242039726
18242046195
18242054130
18242060783
18242068229
18242074210
18242079215
18242087150
18242092521
18242100394
18242106254
18242112601
18242120597
18242127189
18242133780
18242140738
18242147819
18242153373
18242161796
18242169181
18242175101
18242182364
18242189017
18242194144
18242202567
18242208487
18242215873
18242223441
18242229666
18242237174
18242244193
18242249930
18242257743
18242263358
18242271598
18242277701
18242284232
18242290457
18242296927
18242303702
18242311331
18242318411
18242325125
18242332633
18242339041
18242345633
18242352225
18242357779
18242364676
18242371817
18242378470
18242386038
18242391104
18242398917
18242403799
18242411917
18242419424
18242425650
18242432486
18242440725
18242449515
18242458182
18242464468
18242473196
18242481253
18242486868
18242494070
18242499868
18242507620
18242513845
18242521597
18242529104
18242535574
18242542593
18242549185
18242555410
18242561941
18242569448
18242574514
18242582144
18242589285
18242595937
18242603018
18242609548
18242615164
18242622854
18242630727
18242637502
18242644704
18242651418
18242658559
18242665701
18242673025
18242680654
18242686941
18242694692
18242700857
18242708852
18242715261
18242723195
18242729665
18242735464
18242742849
18242748342
18242756337
18242762197
18242769582
18242775319
18242783315
18242791738
18242798757
18242805593
18242812551
18242819265
18242826162
18242832997
18242840566
18242848012
18242855580
18242862477
18242869618
18242877370
18242883046
18242892201
18242902577
18242910512
18242918813
18242926015
18242931874
18242940907
18242946645
18242955434
18242963979
18242970876
18242976430
18242984669
18242992360
18242998585
18243006398
18243013295
18243018971
18243027394
18243033375
18243041920
18243051747
18243058705
18243065175
18243073964
18243083729
18243092030
18243101185
18243109242
18243118397
18243126332
18243133412
18243142811
18243149708
18243157948
18243167591
18243173268
18243184254
18243189320
18243198353
18243207447
18243215016
18243224720
18243232044
18243241322
18243247242
18243255360
18243263844
18243270008
18243278736
18243285023
18243292896
18243297535
18243304920
18243309620
18243317371
18243322742
18243330372
18243336170
18243343128
18243348743
18243356006
18243361500
18243369983
18243376453
18243383167
18243388660
18243396656
18243400867
18243409168
18243420887
18243426563
18243434619
18243440540
18243448413
18243452564
18243460498
18243467090
18243473743
18243480213
18243488025
18243494312
18243498706
18243506213
18243510669
18243518482
18243523669
18243531177
18243536487
18243543201
18243546741
18243554248
18243560596
18243566577
18243571399
18243579272
18243584338
18243590442
18243595569
18243601794
18243607959
18243614551
18243621692
18243627124
18243632739
18243638293
18243644153
18243649341
18243656299
18243661670
18243668078
18243674304
18243680957
18243686694
18243692859
18243697802
18243703845
18243709582
18243714648
18243722338
18243727648
18243735766
18243741870
18243747729
18243753955
18243760241
18243767382
18243772326
18243780810
18243785754
18243792895
18243798815
18243805590
18243811877
18243818652
18243825427
18243832201
18243839037
18243844836
18243852648
18243859911
18243866686
18243873034
18243879259
18243885363
18243892077
18243898363
18243906420
18243911852
18243917895
18243926134
18243933764
18243939928
18243945177
18243952379
18243960192
18243966967
18243973314
18243978869
18243987963
18243992296
18244001940
18244007738
18244020250
18244027025
18244033983
18244043810
18244051012
18244059740
18244066515
18244073107
18244079759
18244086412
18244093248
18244100084
18244106676
18244113756
18244120897
18244128038
18244135728
18244141222
18244148119
18244154710
18244161729
18244169115
18244175951
18244183763
18244190294
18244196336
18244204088
18244209825
18244218553
18244224595
18244231798
18244237779
18244245958
18244252244
18244259141
18244266282
18244273851
18244278550
18244286607
18244293626
18244300340
18244307420
18244312547
18244319627
18244326646
18244334092
18244339524
18244348130
18244355760
18244362657
18244370164
18244376695
18244384568
18244390305
18244395982
18244403977
18244410386
18244417039
18244423325
18244430955
18244435410
18244444688
18244452256
18244459336
18244463853
18244473618
18244478196
18244490464
18244498459
18244504258
18244512070
18244519639
18244526230
18244533921
18244541977
18244549607
18244555832
18244562485
18244571518
18244579392
18244586167
18244591477
18244601670
18244611496
18244617539
18244625534
18244635178
18244642868
18244649643
18244657212
18244664597
18244672836
18244684006
18244691574
18244699570
18244709702
18244716538
18244727219
18244734116
18244748398
18244756821
18244765366
18244771591
18244779282
18244787338
18244793442
18244800400
18244806320
18244814377
18244820419
18244828598
18244834640
18244841598
18244850326
18244856674
18244863205
18244872970
18244880111
18244888290
18244896225
18244905563
18244914779
18244922592
18244929245
18244938949
18244946945
18244954635
18244961105
18244969955
18244978927
18244985824
18244994308
18245001083
18245007247
18245014632
18245020431
18245030380
18245036422
18245042953
18245049056
18245055465
18245061996
18245068404
18245074813
18245081954
18245090133
18245096847
18245102401
18245108565
18245114730
18245120894
18245128829
18245134139
18245141158
18245146529
18245153060
18245158248
18245167281
18245173812
18245180098
18245187545
18245194258
18245201094
18245206221
18245214339
18245219161
18245226668
18245234236
18245240096
18245247359
18245253890
18245259993
18245265425
18245271529
18245277999
18245284834
18245290206
18245296492
18245302290
18245307723
18245313704
18245320601
18245326582
18245331465
18245337935
18245343794
18245350874
18245357527
18245368452
18245374251
18245382490
18245387800
18245395125
18245402205
18245408308
18245413252
18245420881
18245426558
18245433211
18245439253
18245445295
18245450361
18245463057
18245471785
18245479475
18245486006
18245495039
18245502363
18245508772
18245515547
18245521650
18245527754
18245533186
18245539900
18245545698
18245553877
18245558943
18245565595
18245572370
18245578596
18245584944
18245591779
18245598493
18245604353
18245611372
18245617414
18245623640
18245630781
18245637434
18245642927
18245650373
18245656171
18245663801
18245669721
18245677351
18245683149
18245692304
18245699384
18245708112
18245712812
18245721601
18245727460
18245734845
18245741620
18245746869
18245754194
18245760846
18245768781
18245774274
18245780866
18245786847
18245793012
18245800580
18245806378
18245814496
18245820966
18245827497
18245831403
18245840009
18245847089
18245854413
18245861432
18245869489
18245875836
18245880048
18245888043
18245895856
18245903546
18245909589
18245916364
18245922284
18245928387
18245936871
18245943951
18245950848
18245957684
18245965069
18245972516
18245981000
18245987164
18245995160
18246003766
18246010602
18246023907
18246032940
18246039776
18246046917
18246053753
18246060589
18246067303
18246073895
18246080182
18246086712
18246093365
18246099774
18246108258
18246114239
18246121746
18246127239
18246133892
18246141033
18246147137
18246154827
18246160931
18246166546
18246173748
18246179241
18246187359
18246191204
18246200665
18246208416
18246217083
18246223003
18246229534
18246237102
18246242535
18246251324
18246257244
18246266949
18246273968
18246282146
18246290264
18246298626
18246304790
18246312847
18246320720
18246327801
18246335491
18246343853
18246350017
18246358928
18246365398
18246369976
18246380840
18246388652
18246396587
18246403911
18246411479
18246419658
18246425457
18246434856
18246442058
18246450481
18246458537
18246467571
18246476177
18246483867
18246493327
18246502055
18246508647
18246518413
18246525798
18246535136
18246541606
18246546672
18246558025
18246563151
18246574138
18246579509
18246590556
18246597880
18246605815
18246612956
18246623210
18246630778
18246637614
18246646403
18246653727
18246663981
18246670939
18246680766
18246687053
18246695231
18246701640
18246710490
18246720195
18246727214
18246737589
18246744059
18246753092
18246758280
18246765177
18246772502
18246779093
18246784464
18246792277
18246797648
18246803996
18246809306
18246816386
18246821574
18246829691
18246836039
18246842020
18246848490
18246854716
18246861124
18246867289
18246873698
18246880472
18246887308
18246893656
18246900736
18246905436
18246911844
18246918131
18246925333
18246930765
18246937540
18246944437
18246951395
18246956888
18246963236
18246968424
18246975992
18246981241
18246988504
18246994059
18246999918
18247006510
18247012613
18247016947
18247023844
18247030435
18247037027
18247043558
18247049784
18247055338
18247060098
18247067362
18247073526
18247079569
18247086405
18247091898
18247097513
18247103799
18247111185
18247117227
18247122781
18247129007
18247134439
18247140054
18247146402
18247153665
18247160379
18247166482
18247172037
18247178262
18247184488
18247191263
18247198404
18247204812
18247212137
18247218179
18247224405
18247229959
18247236612
18247244363
18247250467
18247256875
18247263406
18247269937
18247277322
18247282937
18247290750
18247296731
18247305276
18247314431
18247321511
18247328775
18247335488
18247342141
18247351113
18247358376
18247365762
18247373818
18247377786
18247386514
18247390603
18247401284
18247407266
18247414040
18247419839
18247426858
18247434060
18247440591
18247447304
18247454751
18247462075
18247467568
18247475320
18247482827
18247489419
18247496743
18247503029
18247511880
18247517495
18247525979
18247532753
18247539101
18247545632
18247551430
18247558327
18247566994
18247572365
18247580544
18247585549
18247592812
18247599465
18247607582
18247613381
18247620278
18247627480
18247633583
18247639076
18247648049
18247654213
18247661659
18247667702
18247676369
18247680397
18247688881
18247694252
18247702858
18247706764
18247716591
18247724525
18247731667
18247738930
18247745949
18247751747
18247758522
18247766029
18247771095
18247779091
18247786171
18247792457
18247797462
18247805702
18247810890
18247818825
18247824684
18247833351
18247839882
18247846901
18247852821
18247861427
18247869178
18247878090
18247885536
18247892128
18247901100
18247907997
18247915687
18247922523
18247931983
18247939552
18247947730
18247956458
18247962562
18247969825
18247978492
18247987098
18248000282
18248009498
18248017005
18248025733
18248030921
18248041419
18248050635
18248060218
18248068152
18248075355
18248082923
18248090491
18248097449
18248105079
18248112281
18248119300
18248124915
18248132178
18248139502
18248147132
18248154517
18248162329
18248169715
18248177283
18248185035
18248192542
18248199866
18248208228
18248216712
18248222754
18248230017
18248238440
18248245764
18248252966
18248261145
18248266821
18248275305
18248284399
18248293066
18248302771
18248309973
18248318823
18248326941
18248333594
18248342322
18248351294
18248356421
18248366186
18248373205
18248382239
18248390112
18248399023
18248405554
18248414221
18248421240
18248430456
18248437903
18248445715
18248452002
18248459265
18248466589
18248472815
18248478003
18248485998
18248491674
18248499121
18248505712
18248512426
18248518835
18248525244
18248532263
18248538854
18248545690
18248551855
18248558569
18248564001
18248570593
18248575659
18248583898
18248591589
18248597082
18248603368
18248609777
18248615881
18248623571
18248630346
18248637121
18248642126
18248649450
18248655492
18248662145
18248666967
18248674962
18248680700
18248687902
18248693578
18248702245
18248708898
18248715185
18248719091
18248729284
18248735570
18248740087
18248747960
18248752599
18248759862
18248766454
18248772741
18248778051
18248785009
18248791906
18248798009
18248803380
18248808995
18248815099
18248821385
18248827001
18248833592
18248839330
18248845433
18248850926
18248855809
18248863805
18248870030
18248876073
18248881810
18248887608
18248893468
18248899449
18248907628
18248914098
18248920201
18248925389
18248932347
18248937352
18248944920
18248948521
18248958714
18248964940
18248970921
18248977635
18248982396
18248990513
18248995823
18249002415
18249012730
18249020787
18249027684
18249036595
18249043431
18249048985
18249056370
18249062046
18249069004
18249074681
18249082981
18249089146
18249098118
18249102330
18249112828
18249118748
18249125218
18249133335
18249140476
18249147190
18249154209
18249160252
18249167576
18249173924
18249178928
18249186070
18249193455
18249201267
18249207310
18249215977
18249221897
18249229465
18249235081
18249242527
18249248020
18249255710
18249259617
18249269932
18249277927
18249284153
18249290378
18249296848
18249304172
18249310581
18249320286
18249326999
18249335666
18249342136
18249349582
18249355991
18249365390
18249371677
18249380466
18249386936
18249394260
18249401523
18249408237
18249414768
18249421482
18249427585
18249434543
18249442478
18249447727
18249455661
18249460727
18249468601
18249473605
18249481906
18249487643
18249495517
18249501132
18249508517
18249514194
18249521823
18249528049
18249536471
18249540744
18249550082
18249557895
18249564914
18249570651
18249577121
18249583774
18249591403
18249599643
18249605197
18249613742
18249621127
18249627719
18249633212
18249640170
18249648227
18249654330
18249660006
18249667514
18249673739
18249682711
18249689364
18249698886
18249706820
18249712741
18249719332
18249728182
18249732943
18249743014
18249747653
18249759249
18249765963
18249774020
18249782015
18249790072
18249797701
18249803805
18249811312
18249819674
18249826754
18249834078
18249840182
18249848299
18249855379
18249862643
18249874788
18249881441
18249891024
18249896883
18249905977
18249910982
18249921541
18249930269
18249940157
18249947115
18249955111
18249962252
18249970980
18249978121
18249988069
18249996736
18250005281
18250014559
18250021456
18250031771
18250038973
18250048433
18250057832
18250067049
18250079012
18250088533
18250096101
18250106172
18250113252
18250121004
18250127779
18250136812
18250143648
18250152193
18250159639
18250168367
18250173433
18250182161
18250186799
18250196504
18250203462
18250210115
18250216340
18250223176
18250230195
18250236970
18250243928
18250250398
18250256868
18250263642
18250270173
18250275422
18250281892
18250289338
18250297151
18250302339
18250310761
18250315034
18250324006
18250331086
18250337861
18250341828
18250351289
18250357881
18250364106
18250370698
18250375520
18250382478
18250388703
18250395173
18250400178
18250408112
18250412751
18250420624
18250426057
18250432587
18250437409
18250445038
18250450471
18250457245
18250461335
18250468354
18250474946
18250481110
18250487214
18250492829
18250499177
18250505341
18250510834
18250517548
18250523468
18250528290
18250535553
18250540863
18250548127
18250553925
18250559540
18250565644
18250571381
18250577607
18250584931
18250590973
18250595307
18250602631
18250607514
18250614472
18250619049
18250628388
18250634979
18250639679
18250646271
18250652557
18250658539
18250666412
18250674774
18250678619
18250688202
18250698212
18250704498
18250711029
18250717804
18250726593
18250732941
18250739105
18250745758
18250750458
18250756988
18250763336
18250771087
18250776825
18250784149
18250789764
18250797210
18250802887
18250810455
18250816192
18250824432
18250832122
18250838653
18250845367
18250850311
18250857574
18250864105
18250868866
18250878082
18250884857
18250891754
18250898590
18250905242
18250912750
18250917755
18250924957
18250932830
18250938568
18250945709
18250953033
18250958709
18250965728
18250971343
18250979705
18250985564
18250992950
18250998504
18251007232
18251011504
18251020049
18251027373
18251034576
18251041167
18251047759
18251054168
18251060821
18251067534
18251074065
18251081267
18251088347
18251094878
18251099944
18251108550
18251114470
18251121001
18251128508
18251136077
18251142180
18251148406
18251154143
18251162322
18251167937
18251175994
18251182341
18251189788
18251193816
18251202788
18251209868
18251216521
18251222991
18251227995
18251235320
18251242522
18251249785
18251256316
18251262358
18251268950
18251276152
18251281645
18251289641
18251296233
18251306181
18251312468
18251321867
18251332487
18251339506
18251347197
18251356596
18251366850
18251374113
18251381682
18251387968
18251396330
18251401884
18251410246
18251417082
18251423979
18251430754
18251437284
18251443876
18251451139
18251456938
18251464811
18251472258
18251480131
18251487638
18251495451
18251500273
18251511015
18251515776
18251527128
18251531706
18251542082
18251550016
18251555998
18251562956
18251571867
18251578458
18251587736
18251592619
18251602018
18251608671
18251617826
18251627592
18251635221
18251642057
18251651945
18251657499
18251668607
18251675748
18251682645
18251691800
18251700528
18251707181
18251716520
18251723172
18251732145
18251738736
18251747525
18251756253
18251763700
18251772428
18251777677
18251789212
18251794461
18251803861
18251811185
18251819852
18251826993
18251838040
18251843106
18251852261
18251859525
18251869168
18251876370
18251885770
18251893216
18251898770
18251905179
18251914883
18251923917
18251929471
18251938077
18251943082
18251947293
18251956204
18251962857
18251970120
18251976895
18251982388
18251990750
18251994412
18252002835
18252009060
18252015713
18252022122
18252028775
18252034817
18252042080
18252047390
18252053006
18252062283
18252070278
18252081082
18252087307
18252095669
18252100552
18252107144
18252114041
18252120510
18252127224
18252132961
18252139736
18252145718
18252152493
18252159634
18252165432
18252171475
18252176968
18252182644
18252188198
18252193874
18252199856
18252206020
18252213589
18252217922
18252224697
18252230801
18252235866
18252242031
18252249233
18252255153
18252261684
18252268032
18252273708
18252278896
18252284817
18252292263
18252298794
18252303737
18252309841
18252315334
18252321376
18252327541
18252332729
18252341396
18252347560
18252353481
18252359401
18252365566
18252369838
18252378383
18252385524
18252392360
18252398342
18252404811
18252410060
18252417629
18252424220
18252430263
18252436733
18252443324
18252449489
18252456752
18252462184
18252469020
18252475124
18252481960
18252489467
18252496425
18252502406
18252509425
18252515956
18252522975
18252530543
18252534816
18252543788
18252550624
18252557338
18252564662
18252569423
18252578517
18252584254
18252592250
18252595973
18252604457
18252610499
18252617274
18252624842
18252633204
18252638453
18252645961
18252652980
18252661036
18252667506
18252675257
18252682337
18252692897
18252699549
18252705714
18252713832
18252721583
18252728724
18252735804
18252741175
18252749354
18252755152
18252761317
18252768397
18252774073
18252781153
18252788538
18252794581
18252803065
18252808924
18252815455
18252822840
18252829310
18252834009
18252842676
18252850184
18252855250
18252863733
18252868799
18252875513
18252882227
18252889307
18252896387
18252902124
18252909510
18252917139
18252923243
18252929956
18252937464
18252945215
18252951380
18252958521
18252964075
18252972742
18252976648
18252984705
18252991236
18252999353
18253006677
18253013330
18253019495
18253026331
18253032800
18253039392
18253047998
18253055139
18253062647
18253067163
18253076624
18253081262
18253090417
18253098657
18253106531
18253112329
18253119775
18253127710
18253133447
18253141504
18253147485
18253155420
18253164209
18253172265
18253179284
18253188440
18253195520
18253203271
18253210107
18253221032
18253229333
18253235742
18253242639
18253251794
18253258752
18253267968
18253272790
18253283410
18253288476
18253299096
18253304223
18253313561
18253322350
18253330712
18253336083
18253347680
18253360680
18253367761
18253378136
18253384911
18253395165
18253402306
18253412011
18253421349
18253430810
18253436974
18253445885
18253452416
18253461754
18253467736
18253475304
18253484337
18253489098
18253499474
18253504601
18253515648
18253520958
18253532189
18253537438
18253547264
18253554589
18253563500
18253570214
18253578820
18253588036
18253596031
18253602257
18253609459
18253617943
18253626122
18253634667
18253641136
18253648949
18253655235
18253662193
18253669823
18253676781
18253683678
18253690392
18253696678
18253703514
18253709129
18253715965
18253721214
18253728111
18253734459
18253739647
18253746300
18253751549
18253759300
18253765220
18253772972
18253776695
18253784935
18253792686
18253799522
18253806114
18253812706
18253823326
18253828941
18253837608
18253844444
18253850669
18253854332
18253863731
18253868675
18253875083
18253882896
18253887901
18253896324
18253899864
18253908103
18253914756
18253921287
18253927024
18253934348
18253939781
18253945152
18253950706
18253958152
18253965965
18253971397
18253977622
18253982993
18253990012
18253994712
18254002647
18254009544
18254015952
18254021689
18254028892
18254036704
18254042747
18254049399
18254056968
18254064048
18254070517
18254077170
18254083396
18254089866
18254098105
18254103598
18254111045
18254116782
18254123679
18254129966
18254136008
18254142722
18254148947
18254156638
18254161582
18254168845
18254173972
18254181662
18254187827
18254196250
18254203391
18254208579
18254217246
18254222739
18254230368
18254235983
18254243430
18254249167
18254257224
18254263754
18254270834
18254277914
18254288168
18254297568
18254307577
18254315878
18254321921
18254332480
18254339743
18254347616
18254357809
18254367331
18254377646
18254386740
18254399740
18254408468
18254417135
18254426474
18254436056
18254446127
18254455587
18254465170
18254474386
18254482809
18254492025
18254500814
18254509664
18254518087
18254526937
18254535665
18254543478
18254552206
18254561483
18254569906
18254574911
18254586385
18254594015
18254603658
18254612691
18254619649
18254629720
18254639181
18254646017
18254655904
18254664388
18254672017
18254680745
18254690694
18254697164
18254706624
18254717794
18254736715
18254752828
18254763204
18254775838
18254789388
18254802449
18254814168
18254823934
18254836812
18254847310
18254860982
18254870015
18254878377
18254887776
18254896382
18254904622
18254913655
18254925496
18254934163
18254942464
18254951497
18254958577
18254967976
18254975361
18254985249
18254992939
18255000630
18255011494
18255019734
18255031636
18255037068
18255050251
18255060078
18255069294
18255078083
18255084858
18255095967
18255103352
18255114216
18255121906
18255130451
18255137714
18255147724
18255156635
18255165119
18255170979
18255180256
18255189960
18255198872
18255208332
18255215351
18255224689
18255233784
18255241718
18255250507
18255260822
18255271747
18255280170
18255290241
18255299884
18255309894
18255319599
18255331317
18255342914
18255352985
18255361286
18255369953
18255378437
18255388019
18255398395
18255407672
18255417926
18255427509
18255436359
18255444843
18255455646
18255464801
18255474200
18255483478
18255493304
18255506000
18255516498
18255526385
18255534930
18255545062
18255554645
18255565875
18255573871
18255585467
18255593768
18255602984
18255613604
18255624408
18255633380
18255641009
18255648455
18255658953
18255666644
18255678485
18255689593
18255699359
18255710162
18255717425
18255729754
18255737689
18255749468
18255757586
18255768877
18255778338
18255787615
18255793352
18255805437
18255811114
18255825030
18255833025
18255842547
18255853167
18255863299
18255871721
18255878679
18255890215
18255897234
18255908342
18255918108
18255928301
18255937029
18255947283
18255956438
18255965959
18255974932
18255982012
18255988054
18255993791
18256000444
18256004289
18256013994
18256019975
18256026445
18256033037
18256039690
18256045244
18256053117
18256058733
18256064287
18256072771
18256078081
18256083513
18256090166
18256094987
18256101823
18256108781
18256114213
18256119279
18256131181
18256137163
18256143022
18256151628
18256156816
18256164201
18256171403
18256177446
18256183854
18256189897
18256194780
18256201127
18256208207
18256212602
18256219865
18256226396
18256232621
18256237626
18256244035
18256249223
18256256608
18256262101
18256269059
18256273454
18256281571
18256286820
18256293290
18256300309
18256306779
18256312760
18256319413
18256325578
18256330949
18256342606
18256350114
18256360612
18256367997
18256378007
18256383988
18256389847
18256397904
18256404313
18256410660
18256417313
18256423905
18256431473
18256438981
18256445450
18256452775
18256460038
18256465592
18256472489
18256478043
18256485795
18256491471
18256498856
18256504410
18256512101
18256516068
18256524430
18256530716
18256537979
18256545548
18256552872
18256559769
18256567276
18256574478
18256581803
18256588272
18256596146
18256602799
18256608719
18256617447
18256625626
18256632279
18256639114
18256646622
18256652786
18256659988
18256666519
18256672195
18256678787
18256685989
18256693130
18256699051
18256707046
18256713272
18256721145
18256727188
18256734451
18256740249
18256749344
18256753189
18256762405
18256769729
18256774795
18256781265
18256789200
18256793228
18256802139
18256809097
18256816055
18256822769
18256829727
18256836380
18256843460
18256850173
18256856948
18256864456
18256871597
18256878127
18256883804
18256891006
18256896621
18256904312
18256909927
18256917922
18256923415
18256930007
18256935500
18256943679
18256949905
18256957290
18256964187
18256971938
18256976577
18256985244
18256991653
18257001235
18257009109
18257017592
18257027663
18257033217
18257040114
18257048537
18257055800
18257061660
18257070144
18257075820
18257083449
18257090041
18257096755
18257104079
18257111647
18257117690
18257125014
18257132460
18257139174
18257146681
18257152236
18257161208
18257166640
18257175429
18257181410
18257190505
18257196425
18257204421
18257212904
18257218825
18257226576
18257234206
18257240431
18257247511
18257255568
18257261183
18257268874
18257276686
18257282606
18257291518
18257299574
18257306776
18257313246
18257323012
18257330702
18257339613
18257346876
18257354811
18257362135
18257372084
18257378676
18257388258
18257394850
18257399916
18257411879
18257421034
18257427137
18257436048
18257441969
18257450086
18257458570
18257463880
18257477430
18257489576
18257498060
18257503980
18257512464
18257520887
18257528883
18257533765
18257543104
18257547620
18257557813
18257565321
18257571546
18257576063
18257584241
18257590467
18257597242
18257602613
18257609998
18257615491
18257622266
18257628309
18257636060
18257640943
18257649366
18257656385
18257663038
18257669629
18257676954
18257682447
18257689039
18257694104
18257702832
18257709912
18257716932
18257727368
18257734632
18257742200
18257751233
18257761609
18257766736
18257773877
18257779798
18257787122
18257792554
18257798963
18257805005
18257811109
18257816235
18257822949
18257828748
18257835156
18257840955
18257846326
18257852002
18257858411
18257864453
18257869824
18257876172
18257881238
18257888257
18257893872
18257898999
18257905347
18257911328
18257917493
18257923718
18257929089
18257935925
18257941113
18257948803
18257954358
18257960095
18257967175
18257973584
18257979931
18257984448
18257991040
18257997754
18258003674
18258011059
18258018444
18258025036
18258030468
18258039563
18258046032
18258052014
18258058972
18258065685
18258072094
18258077404
18258084545
18258090344
18258099865
18258105724
18258112682
18258119396
18258125683
18258133007
18258140087
18258146801
18258152599
18258160961
18258166759
18258174084
18258179577
18258187023
18258192699
18258200878
18258204906
18258213878
18258220409
18258227855
