17806410836
17806418831
17806428536
17806437630
17806446969
17806456551
17806463875
17806472786
17806482003
17806490792
17806498665
17806507820
17806515572
17806523445
17806530098
17806540169
17806547554
17806554756
17806569771
17806578499
17806588631
17806595284
17806607918
17806615059
17806621468
17806630928
17806635323
17806645760
17806648262
17806657539
17806666695
17806675789
17806683357
17806690437
17806697517
17806705025
17806712959
17806718269
17806727302
17806734627
17806742561
17806749336
17806754646
17806761726
17806771614
17806782478
17806790352
17806799018
17806805793
17806813728
17806819648
17806830940
17806837837
17806847053
17806854988
17806860664
17806868965
17806877326
17806885810
17806893501
17806901557
17806909248
17806915962
17806922553
17806930122
17806938178
17806946723
17806954414
17806962958
17806970405
17806976508
17806984565
17806991157
17807000129
17807008063
17807016242
17807023444
17807032416
17807038459
17807047431
17807056647
17807064216
17807071113
17807078681
17807086921
17807096198
17807104010
17807115912
17807124030
17807132331
17807140143
17807147895
17807157599
17807165473
17807172247
17807181647
17807188117
17807197150
17807206183
17807214301
17807223639
17807234076
17807241583
17807248846
17807258673
17807267584
17807277106
17807287176
17807295904
17807302801
17807311346
17807318670
17807326910
17807335455
17807344610
17807351507
17807359442
17807367132
17807375921
17807383917
17807392279
17807399664
17807407354
17807415289
17807423590
17807432989
17807440313
17807447393
17807456549
17807463079
17807471563
17807479620
17807489752
17807497808
17807507574
17807515752
17807524419
17807534856
17807543707
17807552373
17807560430
17807567754
17807575750
17807582952
17807591314
17807599004
17807607854
17807615545
17807622442
17807631963
17807639715
17807650213
17807659490
17807666387
17807673955
17807683721
17807689763
17807698980
17807706365
17807714788
17807723760
17807731267
17807739995
17807747502
17807756413
17807763860
17807771611
17807780034
17807785893
17807795903
17807806645
17807818791
17807827275
17807836308
17807842900
17807851689
17807859257
17807867619
17807874516
17807882207
17807889775
17807896977
17807904423
17807920109
17807928715
17807935856
17807943608
17807951176
17807956059
17807967045
17807976262
17807984684
17807993473
17808000431
17808006779
17808013005
17808022526
17808032597
17808039555
17808049320
17808056034
17808064091
17808069096
17808077336
17808087223
17808094975
17808101994
17808108036
17808116947
17808123356
17808132145
17808138981
17808147404
17808154911
17808162296
17808167362
17808176090
17808184574
17808190250
17808200199
17808208011
17808214481
17808220585
17808229496
17808235660
17808244266
17808250248
17808261295
17808266300
17808275150
17808282901
17808290592
17808297184
17808304813
17808312381
17808321109
17808329349
17808333621
17808343265
17808352848
17808358524
17808367923
17808374332
17808382816
17808389346
17808398074
17808405887
17808412479
17808420352
17808428470
17808434879
17808440982
17808447940
17808455325
17808462833
17808471072
17808478824
17808486087
17808493411
17808500552
17808507266
17808515079
17808522342
17808529666
17808537173
17808544375
17808552066
17808558658
17808566470
17808574099
17808582156
17808591616
17808599795
17808608096
17808615725
17808624636
17808633303
17808644778
17808652102
17808659854
17808667544
17808675723
17808682681
17808691042
17808699648
17808706545
17808716128
17808723574
17808731081
17808738528
17808746096
17808754458
17808761172
17808769656
17808778017
17808785403
17808792422
17808799380
17808806399
17808816347
17808824343
17808829409
17808837832
17808843325
17808853762
17808860903
17808868288
17808874270
17808880068
17808886782
17808893984
17808897890
17808906618
17808910952
17808919252
17808925783
17808930544
17808936830
17808943300
17808949343
17808955812
17808963259
17808969484
17808977663
17808983949
17808992006
17808999025
17809006166
17809010072
17809018800
17809023744
17809031618
17809039125
17809044130
17809051454
17809056154
17809063112
17809070009
17809075563
17809082155
17809088197
17809093263
17809100038
17809106019
17809113710
17809121156
17809127443
17809135438
17809141237
17809148378
17809155519
17809161134
17809170717
17809176637
17809184755
17809190187
17809197511
17809203797
17809210511
17809217164
17809226319
17809233399
17809239747
17809245545
17809253053
17809261659
17809270265
17809280091
17809292176
17809299683
17809311768
17809319703
17809329041
17809337037
17809346864
17809354066
17809360596
17809365723
17809372315
17809377808
17809385865
17809393677
17809401063
17809408082
17809413148
17809420594
17809426514
17809435059
17809440735
17809447449
17809455201
17809461243
17809468628
17809474976
17809483216
17809488770
17809496094
17809500794
17809510742
17809515930
17809523194
17809531067
17809537842
17809544983
17809551087
17809557678
17809566162
17809573364
17809580200
17809586914
17809594727
17809603211
17809612915
17809623108
17809628784
17809638000
17809643311
17809650696
17809656799
17809664307
17809671204
17809679809
17809686462
17809694336
17809701294
17809708740
17809716003
17809723449
17809729858
17809737732
17809744018
17809749939
17809755981
17809765564
17809771667
17809779235
17809784851
17809794006
17809800170
17809806518
17809813781
17809820129
17809828552
17809833923
17809843383
17809849853
17809858276
17809866516
17809872863
17809880309
17809887634
17809893005
17809903075
17809909728
17809916808
17809924560
17809931640
17809937804
17809946166
17809953246
17809961608
17809970519
17809976623
17809985107
17809992980
17810001830
17810011229
17810018615
17810025390
17810035338
17810044677
17810051696
17810062377
17810071593
17810081542
17810088195
17810097411
17810103026
17810112364
17810120482
17810126525
17810130614
17810140135
17810145140
17810153136
17810158019
17810165770
17810171996
17810176878
17810184081
17810189208
17810196166
17810201354
17810207884
17810215147
17810220885
17810226683
17810232481
17810238585
17810244933
17810253050
17810258360
17810265623
17810270567
17810277403
17810282286
17810290282
17810295653
17810302427
17810307799
17810314390
17810319761
17810326964
17810333006
17810339476
17810345640
17810351622
17810358702
17810363524
17810369810
17810375975
17810381285
17810386473
17810392820
17810398008
17810405332
17810412168
17810416746
17810423094
17810429014
17810435240
17810439878
17810446348
17810451170
17810458311
17810463682
17810469663
17810476316
17810481809
17810488462
17810493955
17810500974
17810505003
17810511778
17810518247
17810525022
17810530576
17810536436
17810542600
17810547422
17810554075
17810559446
17810565732
17810571348
17810577329
17810583799
17810589658
17810596860
17810603818
17810613645
17810620176
17810626890
17810633237
17810638242
17810646543
17810654477
17810661924
17810668149
17810674375
17810681455
17810687741
17810692929
17810699338
17810705869
17810712033
17810717710
17810724301
17810730710
17810736142
17810742551
17810747678
17810756101
17810761655
17810769284
17810775388
17810782041
17810788266
17810794919
17810801999
17810808896
17810815976
17810822934
17810828427
17810835446
17810841428
17810847653
17810855710
17810861264
17810868466
17810874814
17810880673
17810886899
17810894162
17810898190
17810906430
17810912655
17810919125
17810925961
17810932675
17810939511
17810947079
17810953610
17810958981
17810966610
17810972226
17810979428
17810985714
17810992123
17810998410
17811006283
17811013180
17811018307
17811025265
17811031735
17811037655
17811045529
17811051754
17811058956
17811065243
17811070736
17811077816
17811084225
17811090328
17811096493
17811104244
17811109859
17811116634
17811123043
17811129452
17811134701
17811142574
17811149532
17811155331
17811161678
17811167293
17811175411
17811181637
17811187252
17811193355
17811200374
17811208492
17811216243
17811223385
17811229671
17811238094
17811244808
17811254879
17811261837
17811268245
17811276912
17811284420
17811291317
17811298641
17811303829
17811310482
17811316951
17811323116
17811327571
17811334285
17811340572
17811346858
17811354427
17811361019
17811367061
17811374568
17811380306
17811387813
17811393733
17811401424
17811409969
17811415889
17811420833
17811426814
17811434688
17811440059
17811445491
17811453181
17811460139
17811466792
17811472896
17811479304
17811485042
17811491694
17811497371
17811504146
17811510615
17811518794
17811525813
17811533076
17811538569
17811546626
17811552546
17811559443
17811567744
17811575373
17811582759
17811589473
17811597529
17811603938
17811611384
17811616755
17811626155
17811631953
17811639216
17811644770
17811652705
17811660883
17811666987
17811674006
17811682307
17811686762
17811695124
17811702570
17811709345
17811715571
17811723322
17811728388
17811736628
17811743098
17811750422
17811756281
17811761652
17811768610
17811773920
17811778925
17811785212
17811790095
17811795893
17811800776
17811806513
17811811274
17811816950
17811821711
17811830256
17811835932
17811841547
17811847528
17811852594
17811858149
17811865778
17811873346
17811878839
17811887751
17811893732
17811902155
17811909174
17811916193
17811924249
17811934015
17811940363
17811946710
17811952936
17811959100
17811963922
17811971246
17811976495
17811982172
17811987848
17811993646
17811999689
17812005243
17812011652
17812018060
17812023798
17812028192
17812035089
17812039972
17812046686
17812051569
17812059381
17812064569
17812069940
17812072992
17812081781
17812085626
17812091607
17812097040
17812103143
17812110162
17812114801
17812120111
17812125604
17812131463
17812135980
17812142633
17812148797
17812155450
17812159295
17812165887
17812172113
17812178888
17812184442
17812190728
17812196038
17812200738
17812207269
17812211968
17812218438
17812224053
17812229913
17812233636
17812240533
17812246392
17812252435
17812259454
17812265374
17812271905
17812278558
17812284417
17812289727
17812296380
17812301995
17812308526
17812314019
17812321770
17812327325
17812334588
17812340874
17812346184
17812351739
17812359185
17812365716
17812371758
17812378594
17812385918
17812392571
17812398980
17812404595
17812410393
17812418023
17812425286
17812431450
17812439385
17812445427
17812453362
17812460137
17812467522
17812475945
17812485039
17812493096
17812500542
17812507134
17812512322
17812520134
17812526848
17812532219
17812538078
17812544914
17812552422
17812558830
17812565117
17812573418
17812578545
17812586113
17812593864
17812600945
17812607170
17812614433
17812620842
17812626457
17812633415
17812638664
17812647148
17812653618
17812659599
17812667106
17812672050
17812679191
17812687065
17812694511
17812699577
17812706169
17812712272
17812719963
17812725334
17812733146
17812739250
17812744987
17812751640
17812759208
17812766960
17812774772
17812782096
17812789054
17812793998
17812803337
17812811027
17812817924
17812826164
17812833183
17812838920
17812845878
17812852043
17812857475
17812863883
17812870841
17812877433
17812882926
17812890128
17812895560
17812903312
17812908683
17812915763
17812921134
17812929130
17812934928
17812942252
17812948295
17812956046
17812962028
17812968741
17812974601
17812983390
17812989188
17812995719
17813001578
17813008414
17813016410
17813023185
17813028373
17813035819
17813043387
17813049796
17813057914
17813064444
17813069571
17813077018
17813084769
17813092642
17813098258
17813107230
17813112662
17813121451
17813127432
17813135367
17813140982
17813150565
17813156424
17813164786
17813172293
17813178763
17813184988
17813191397
17813198843
17813206717
17813212576
17813218558
17813226248
17813232779
17813238028
17813245657
17813251395
17813261587
17813267569
17813275259
17813280447
17813287527
17813294485
17813301443
17813307119
17813315359
17813323111
17813329092
17813337088
17813342825
17813351004
17813355520
17813364187
17813371511
17813378714
17813385488
17813392202
17813398916
17813405081
17813411123
17813417715
17813423635
17813430715
17813436636
17813443350
17813450247
17813456167
17813463003
17813467519
17813474477
17813481496
17813487539
17813493215
17813501150
17813506582
17813513296
17813518240
17813524587
17813531362
17813536916
17813544424
17813551259
17813557912
17813564687
17813570363
17813576955
17813581838
17813589528
17813595632
17813601674
17813606923
17813612783
17813621084
17813628408
17813634511
17813639455
17813645681
17813650563
17813657155
17813662343
17813667714
17813673452
17813680959
17813687123
17813692067
17813697011
17813704396
17813709584
17813716054
17813723928
17813730275
17813738637
17813744924
17813752370
17813759328
17813766652
17813771840
17813780141
17813785390
17813791188
17813796925
17813802785
17813809132
17813815297
17813820180
17813826222
17813832814
17813838063
17813844655
17813851002
17813856923
17813862355
17813868397
17813874318
17813880055
17813884327
17813891469
17813898121
17813902089
17813908619
17813914418
17813919667
17813926442
17813932362
17813937428
17813943226
17813949574
17813955311
17813961659
17813968373
17813973988
17813980458
17813985951
17813992176
17813997975
17814004200
17814010365
17814017628
17814023304
17814028553
17814035450
17814040577
17814048573
17814054554
17814062367
17814068775
17814074513
17814080494
17814086353
17814092396
17814096851
17814103687
17814111134
17814117237
17814124073
17814129871
17814136219
17814141956
17814146900
17814154224
17814160023
17814165088
17814171009
17814179065
17814185596
17814191517
17814197986
17814203968
17814209522
17814217090
17814223682
17814230274
17814235157
17814242054
17814248951
17814255603
17814260974
17814267444
17814274158
17814279102
17814285816
17814292163
17814300952
17814306934
17814315601
17814321826
17814331714
17814338977
17814346057
17814354907
17814363757
17814370227
17814378101
17814385486
17814391711
17814399585
17814406604
17814413318
17814419910
17814424609
17814431995
17814438281
17814444873
17814451953
17814459155
17814466174
17814474597
17814482837
17814489856
17814496997
17814503833
17814510547
17814515246
17814523852
17814529162
17814537524
17814543017
17814551501
17814559008
17814566394
17814572497
17814579516
17814585253
17814592456
17814598498
17814603747
17814611193
17814618212
17814624682
17814630236
17814637499
17814643115
17814650866
17814656542
17814664294
17814670397
17814675768
17814683337
17814689562
17814696032
17814702135
17814710192
17814716479
17814723315
17814729662
17814735705
17814743029
17814749560
17814756945
17814761217
17814770678
17814777392
17814784228
17814792406
17814799669
17814806078
17814812548
17814818834
17814827074
17814834642
17814840136
17814847521
17814854723
17814861193
17814868761
17814873766
17814882616
17814890367
17814897447
17814902574
17814910570
17814914720
17814924669
17814932359
17814940904
17814946214
17814953111
17814960619
17814968309
17814978075
17814983568
17814992601
17814999559
17815008287
17815014391
17815021287
17815029161
17815035081
17815040880
17815047594
17815053758
17815060167
17815065050
17815072191
17815078172
17815085130
17815090562
17815098069
17815102159
17815109666
17815115770
17815122728
17815129136
17815135911
17815141465
17815147752
17815154222
17815159776
17815164842
17815170396
17815177659
17815184129
17815189927
17815195176
17815200425
17815207444
17815213059
17815220506
17815225816
17815231675
17815237901
17815242417
17815248032
17815252366
17815260911
17815266160
17815271653
17815278001
17815283616
17815288743
17815293687
17815299180
17815305039
17815310715
17815316514
17815322495
17815327073
17815333909
17815338853
17815345261
17815352585
17815358628
17815365098
17815370469
17815376938
17815380234
17815388169
17815395615
17815400376
17815407578
17815412339
17815418564
17815425034
17815431931
17815437607
17815443650
17815449387
17815457199
17815463303
17815469040
17815474961
17815481308
17815486801
17815493332
17815498398
17815504624
17815510788
17815515671
17815525620
17815533493
17815541245
17815548996
17815555893
17815564011
17815569016
17815580124
17815587143
17815595139
17815601425
17815607773
17815613754
17815619308
17815628097
17815632126
17815641098
17815647201
17815653488
17815659530
17815666794
17815671310
17815679550
17815686447
17815692795
17815698837
17815705185
17815710922
17815717331
17815724533
17815731552
17815737411
17815743820
17815750167
17815755783
17815762680
17815768661
17815775009
17815780136
17815786178
17815791305
17815797470
17815802658
17815809432
17815814620
17815822189
17815828292
17815834213
17815839889
17815846542
17815850082
17815857772
17815863387
17815869979
17815877364
17815882003
17815889388
17815894088
17815901534
17815906234
17815914657
17815921920
17815928023
17815933272
17815940169
17815946151
17815951095
17815956466
17815964705
17815970199
17815977157
17815983016
17815989486
17815993270
17816001021
17816004805
17816012862
17816016646
17816025008
17816028792
17816038008
17816044966
17816050704
17816059310
17816064925
17816072615
17816078108
17816085982
17816092574
17816098067
17816105208
17816110457
17816118941
17816126448
17816133894
17816140364
17816147933
17816157149
17816163619
17816172713
17816178572
17816188460
17816198164
17816204695
17816214278
17816221297
17816227949
17816234663
17816242354
17816249495
17816254866
17816261397
17816268660
17816274946
17816284285
17816289595
17816296187
17816303145
17816310103
17816317610
17816324507
17816331770
17816338240
17816346907
17816352095
17816358564
17816365095
17816371748
17816378218
17816385298
17816394148
17816401411
17816407270
17816415693
17816422102
17816427473
17816437055
17816445417
17816452314
17816459882
17816467329
17816472883
17816480390
17816487836
17816493269
17816499982
17816508649
17816515974
17816522932
17816527997
17816536176
17816541547
17816549848
17816556867
17816565534
17816570844
17816577985
17816584760
17816591108
17816597150
17816604291
17816608625
17816616864
17816622358
17816628217
17816634137
17816638776
17816645063
17816650922
17816659223
17816664289
17816670270
17816676435
17816682172
17816688886
17816693830
17816701337
17816708661
17816714704
17816720380
17816726117
17816731610
17816736493
17816741986
17816748029
17816756696
17816761884
17816767560
17816774091
17816781293
17816787701
17816794476
17816801312
17816808087
17816812237
17816819256
17816824017
17816830975
17816836835
17816845685
17816853192
17816857953
17816864178
17816869977
17816876202
17816882123
17816888226
17816894452
17816900616
17816904705
17816911541
17816917279
17816923687
17816929303
17816935345
17816940777
17816945843
17816952374
17816957806
17816963604
17816969769
17816975445
17816981488
17816987347
17816994305
17816999981
17817005230
17817011028
17817017010
17817021710
17817028362
17817034893
17817041546
17817046124
17817053753
17817059551
17817064617
17817071636
17817078045
17817084209
17817089642
17817096294
17817103558
17817108745
17817115459
17817121075
17817127239
17817133037
17817140240
17817147686
17817153057
17817161052
17817166179
17817174480
17817180156
17817186992
17817191814
17817198894
17817206035
17817211773
17817218731
17817224651
17817229839
17817236919
17817244304
17817251201
17817256816
17817265056
17817270793
17817277263
17817284709
17817290508
17817298076
17817304119
17817311504
17817318462
17817324382
17817332561
17817339153
17817344585
17817350078
17817358440
17817364116
17817372050
17817378581
17817386882
17817394572
17817401408
17817411845
17817418010
17817425822
17817432048
17817439616
17817446452
17817452983
17817459025
17817467448
17817473308
17817479960
17817486064
17817493388
17817497233
17817506816
17817511576
17817519694
17817527262
17817531779
17817538493
17817544291
17817550639
17817555217
17817563395
17817568705
17817576213
17817581156
17817587992
17817592997
17817599772
17817605387
17817613444
17817619547
17817625834
17817632060
17817637858
17817642008
17817648966
17817655985
17817661845
17817669047
17817673563
17817680521
17817685038
17817691569
17817698405
17817705790
17817711710
17817722086
17817728434
17817734171
17817739542
17817746866
17817752299
17817761393
17817765665
17817775004
17817782511
17817789469
17817794046
17817802836
17817808023
17817816080
17817823465
17817830362
17817838114
17817843302
17817851541
17817856424
17817863809
17817871927
17817879679
17817885111
17817891764
17817899454
17817905069
17817913797
17817919412
17817927591
17817935831
17817941629
17817949381
17817957132
17817962564
17817972574
17817978311
17817987100
17817992776
17818002298
17818009683
17818016824
17818023904
17818029275
17818036294
17818045877
17818053750
17818061746
17818070596
17818078775
17818087930
17818095010
17818103189
17818109719
17818120645
17818127481
17818136087
17818146279
17818152871
17818161782
17818169778
17818176797
17818182717
17818187234
17818198098
17818202493
17818211770
17818218728
17818227090
17818231301
17818240884
17818247537
17818254006
17818260781
17818265237
17818272988
17818277810
17818284890
17818289529
17818295998
17818301064
17818307412
17818314370
17818320656
17818326577
17818332802
17818339089
17818345070
17818351113
17818357155
17818363686
17818374062
17818381936
17818391396
17818399270
17818406105
17818415749
17818424111
17818432473
17818441689
17818450173
17818462136
17818472756
17818479775
17818488259
17818497231
17818506935
17818515114
17818522621
17818531838
17818539589
17818547890
17818556129
17818564430
17818571938
17818579994
17818586281
17818594765
17818602882
17818610817
17818619850
17818627601
17818635963
17818643226
17818650551
17818658790
17818666237
17818673927
17818681495
17818689125
17818695228
17818703468
17818709755
17818719703
17818727211
17818734840
17818743385
17818752174
17818759864
17818770057
17818778907
17818789222
17818798438
17818806983
17818816810
17818826698
17818834388
17818844337
17818852271
17818859412
17818866492
17818876258
17818884620
17818893531
17818901527
17818911414
17818919593
17818927222
17818939185
17818946021
17818956580
17818974708
17818993689
17819010779
17819030616
17819049048
17819066565
17819085669
17819104163
17819124732
17819142371
17819150793
17819158484
17819166907
17819176001
17819186194
17819201147
17819214514
17819229346
17819243506
17819257422
17819271216
17819280371
17819290320
17819300024
17819309607
17819318518
17819330603
17819339819
17819348364
17819357214
17819367346
17819376501
17819387365
17819395666
17819407873
17819418310
17819426367
17819436865
17819445287
17819455907
17819464025
17819476293
17819484411
17819494237
17819502660
17819511205
17819522130
17819531957
17819541234
17819552526
17819565160
17819574865
17819583043
17819592382
17819601598
17819613378
17819623937
17819634252
17819644994
17819653661
17819664525
17819674291
17819686681
17819701817
17819715550
17819727208
17819740880
17819751805
17819766331
17819776585
17819786778
17819794102
17819804295
17819815465
17819825352
17819834263
17819844273
17819853428
17819862584
17819869236
17819881321
17819892125
17819902073
17819913182
17819921666
17819931614
17819941441
17819950657
17819959873
17819969395
17819980259
17819988194
17819999180
17820007725
17820015415
17820023289
17820036594
17820046360
17820055820
17820066502
17820075474
17820086216
17820097324
17820105198
17820117588
17820128940
17820137119
17820144077
17820149936
17820155979
17820164036
17820169529
17820175815
17820183567
17820188450
17820195957
17820202610
17820209812
17820216953
17820223056
17820229343
17820236118
17820242832
17820249912
17820257480
17820263034
17820269748
17820275791
17820283237
17820290256
17820296726
17820304050
17820310886
17820318027
17820326694
17820335117
17820341953
17820349338
17820353854
17820361484
17820367831
17820376987
17820384982
17820390414
17820397372
17820404452
17820412082
17820420932
17820427524
17820432773
17820440829
17820446139
17820452182
17820458957
17820465304
17820471591
17820478183
17820483737
17820491427
17820495456
17820504489
17820510592
17820514743
17820521151
17820526828
17820533786
17820538729
17820544406
17820549044
17820555148
17820560519
17820566378
17820572848
17820578707
17820584994
17820589816
17820598422
17820603854
17820609713
17820615206
17820621432
17820628085
17820633334
17820640109
17820646639
17820653109
17820657626
17820663912
17820670931
17820675509
17820682162
17820688021
17820694063
17820699862
17820706515
17820711764
17820716402
17820724215
17820729098
17820735323
17820742464
17820746004
17820752169
17820756075
17820762667
17820769869
17820774569
17820781160
17820786959
17820790926
17820797884
17820802706
17820809603
17820815157
17820821321
17820828524
17820833834
17820841463
17820848909
17820853670
17820860811
17820868074
17820876619
17820882479
17820888582
17820895784
17820902315
17820908907
17820918733
17820925935
17820934297
17820942659
17820949922
17820957185
17820967073
17820974641
17820982027
17820990877
17820996248
17821002901
17821007539
17821018709
17821024324
17821030061
17821037507
17821043672
17821050630
17821058076
17821064485
17821071077
17821079561
17821085603
17821092622
17821100312
17821107515
17821113740
17821119172
17821126557
17821132722
17821138337
17821145845
17821151826
17821157807
17821162507
17821172090
17821177522
17821183137
17821192719
17821199922
17821204865
17821211945
17821216950
17821224641
17821230012
17821236298
17821243134
17821248750
17821255708
17821261506
17821267243
17821274445
17821279755
17821287568
17821294099
17821300629
17821307465
17821313813
17821319672
17821325898
17821331879
17821337372
17821343049
17821348237
17821353303
17821360444
17821364106
17821371796
17821375580
17821383210
17821386872
17821394745
17821401581
17821407074
17821413971
17821420136
17821426422
17821434296
17821441010
17821447296
17821454315
17821461029
17821465607
17821474823
17821479889
17821489350
17821496002
17821503510
17821509308
17821516632
17821522675
17821530731
17821536652
17821545990
17821553680
17821561249
17821565826
17821574493
17821579437
17821588653
17821597198
17821603912
17821611114
17821618255
17821625885
17821633209
17821638519
17821647186
17821654144
17821662445
17821670013
17821677398
17821682464
17821689361
17821696380
17821703094
17821709930
17821717987
17821722320
17821730926
17821735015
17821743316
17821749664
17821755706
17821762603
17821770477
17821777923
17821785735
17821790618
17821798004
17821807220
17821813201
17821820342
17821829192
17821837432
17821840484
17821852264
17821860198
17821865813
17821873016
17821879974
17821887115
17821894805
17821902495
17821910796
17821918670
17821925567
17821931975
17821939849
17821946685
17821956145
17821962920
17821970794
17821976958
17821984404
17821990508
17821998381
17822004546
17822012297
17822018279
17822025298
17822030730
17822037810
17822043059
17822049773
17822056548
17822064177
17822070464
17822076994
17822083281
17822088713
17822093840
17822101225
17822107024
17822113066
17822118803
17822124846
17822130583
17822136382
17822141447
17822149626
17822153288
17822161406
17822167998
17822173979
17822178862
17822185881
17822192045
17822197966
17822204985
17822212309
17822219450
17822224089
17822232268
17822239592
17822245329
17822250944
17822257963
17822266691
17822273161
17822281218
17822286528
17822292387
17822297880
17822304960
17822309721
17822314909
17822320219
17822326567
17822332609
17822337309
17822343778
17822348173
17822354887
17822360441
17822365690
17822371122
17822376432
17822381681
17822388273
17822394315
17822398527
17822404752
17822408842
17822415006
17822420133
17822427030
17822432462
17822437650
17822443937
17822450285
17822456510
17822461515
17822471525
17822477933
17822485013
17822490568
17822496305
17822503690
17822510221
17822516141
17822522306
17822527799
17822535062
17822541288
17822547025
17822554593
17822561429
17822567716
17822573575
17822579435
17822585050
17822592984
17822596524
17822605619
17822610318
17822616239
17822623380
17822630643
17822636136
17822642484
17822650174
17822657437
17822664456
17822671292
17822678555
17822684476
17822691678
17822699613
17822706143
17822713223
17822720303
17822726956
17822734952
17822742093
17822749417
17822755643
17822762723
17822771146
17822777676
17822786587
17822794034
17822803311
17822811368
17822818509
17822824002
17822833401
17822838528
17822845486
17822850796
17822859890
17822865994
17822872708
17822879055
17822885891
17822892239
17822898709
17822905484
17822911709
17822918423
17822925015
17822932522
17822939114
17822946133
17822950955
17822959316
17822964077
17822971951
17822979153
17822986355
17822992703
17822999355
17823008450
17823014248
17823021816
17823028286
17823034084
17823040676
17823047207
17823053371
17823059170
17823067409
17823074367
17823081753
17823089077
17823097622
17823103542
17823112758
17823122402
17823131618
17823142544
17823149379
17823159267
17823166591
17823173244
17823180507
17823185817
17823193203
17823200588
17823207302
17823215053
17823222438
17823228298
17823234951
17823240871
17823248012
17823254177
17823261928
17823268154
17823272731
17823281398
17823285915
17823294277
17823300807
17823308620
17823316066
17823321315
17823329738
17823335414
17823343166
17823349086
17823357143
17823362758
17823371913
17823380214
17823386989
17823394496
17823401759
17823409694
17823418483
17823426234
17823431544
17823439174
17823444850
17823450831
17823457484
17823463710
17823471034
17823477992
17823485926
17823491298
17823498194
17823503505
17823513270
17823517665
17823526087
17823532191
17823539454
17823546900
17823553675
17823561854
17823569544
17823576319
17823581446
17823587794
17823592921
17823599452
17823606287
17823612147
17823617884
17823624293
17823630274
17823635950
17823641138
17823646448
17823654200
17823660792
17823665675
17823670130
17823677393
17823682154
17823688685
17823693934
17823700770
17823706934
17823712549
17823719324
17823723475
17823730372
17823734949
17823742273
17823748926
17823754664
17823757959
17823765589
17823771509
17823776880
17823780909
17823788660
17823793970
17823799768
17823806116
17823810938
17823818445
17823825220
17823831507
17823837305
17823842249
17823850672
17823856775
17823862390
17823868189
17823872217
17823879236
17823886804
17823891687
17823898218
17823901331
17823909021
17823915308
17823922632
17823929468
17823935022
17823940027
17823947473
17823953027
17823962305
17823967248
17823974390
17823980920
17823987329
17823992334
17823998193
17824005395
17824010827
17824015588
17824023095
17824028650
17824034204
17824040918
17824046716
17824052697
17824058984
17824064843
17824071130
17824077966
17824083215
17824088464
17824095544
17824100671
17824107934
17824113427
17824119592
17824126916
17824132714
17824141564
17824146142
17824153039
17824160241
17824167870
17824173547
17824180566
17824188134
17824193749
17824199670
17824207116
17824214379
17824220177
17824228051
17824233300
17824239342
17824247033
17824254540
17824260583
17824268639
17824273705
17824280846
17824286461
17824294640
17824300439
17824306725
17824313561
17824318932
17824325829
17824332360
17824337365
17824345055
17824353417
17824359398
17824366967
17824371178
17824379662
17824386986
17824395592
17824401940
17824407494
17824414574
17824420372
17824425926
17824433678
17824441307
17824447838
17824454003
17824459496
17824467674
17824474449
17824482994
17824490868
17824497826
17824504540
17824512779
17824518578
17824527367
17824535301
17824541588
17824548363
17824556908
17824563011
17824569176
17824575706
17824583580
17824587303
17824594993
17824602623
17824608116
17824616050
17824620750
17824627769
17824633079
17824639671
17824647361
17824653221
17824658775
17824666038
17824670128
17824681114
17824689598
17824695762
17824704917
17824712852
17824718833
17824726158
17824732200
17824739463
17824746665
17824752036
17824761741
17824769370
17824778404
17824784995
17824793113
17824799583
17824807517
17824813743
17824821861
17824828147
17824836021
17824842551
17824853355
17824858909
17824868552
17824873557
17824884666
17824892661
17824900535
17824906089
17824915244
17824919639
17824928122
17824936057
17824945090
17824949546
17824960959
17824969260
17824975669
17824983115
17824992026
17825000876
17825008445
17825015586
17825024192
17825031455
17825041159
17825048545
17825053732
17825063254
17825071066
17825079550
17825087302
17825095847
17825103781
17825112936
17825120688
17825128928
17825135214
17825143210
17825150534
17825159079
17825166586
17825177450
17825187460
17825194418
17825205465
17825210104
17825218893
17825226095
17825233297
17825238485
17825242880
17825250448
17825257284
17825263021
17825269308
17825275534
17825282125
17825287374
17825295065
17825298788
17825306967
17825312887
17825318685
17825324789
17825329367
17825336630
17825343771
17825348898
17825355184
17825361593
17825366903
17825373556
17825380758
17825386800
17825392294
17825398153
17825403768
17825412130
17825418295
17825423727
17825429525
17825435262
17825441976
17825448080
17825453939
17825458700
17825465291
17825472433
17825476644
17825483053
17825488607
17825493429
17825499044
17825505575
17825511312
17825515890
17825522847
17825528524
17825535421
17825540426
17825546285
17825552083
17825558370
17825565450
17825571004
17825576986
17825583638
17825590108
17825593770
17825600606
17825607076
17825613484
17825619527
17825626668
17825632405
17825639363
17825645650
17825651998
17825658223
17825663106
17825670796
17825678243
17825684346
17825691609
17825699666
17825708699
17825715779
17825722493
17825730733
17825736287
17825744038
17825753926
17825760457
17825766621
17825773579
17825779256
17825786091
17825793172
17825800068
17825805012
17825813252
17825817341
17825825581
17825831563
17825838521
17825844563
17825850789
17825857014
17825861775
17825869831
17825875264
17825882344
17825889485
17825895649
17825902729
17825908589
17825916706
17825923542
17825930378
17825938008
17825945881
17825952595
17825959553
17825965290
17825972675
17825980061
17825986408
17825992756
17825999836
17826007343
17826014423
17826020283
17826026875
17826034138
17826041523
17826048176
17826054890
17826060017
17826068683
17826076740
17826084003
17826089619
17826096393
17826103657
17826110309
17826116230
17826125141
17826130390
17826138141
17826144733
17826153644
17826160114
17826166278
17826173542
17826179523
17826185627
17826191608
17826198383
17826206562
17826211811
17826218280
17826223285
17826231098
17826237323
17826247028
17826253803
17826261554
17826269183
17826274860
17826279559
17826292011
17826300433
17826307086
17826317279
17826326739
17826335345
17826339740
17826350482
17826358539
17826363666
17826370929
17826377887
17826385516
17826392352
17826399127
17826405108
17826412433
17826420245
17826426471
17826433978
17826438372
17826445514
17826453448
17826460406
17826468219
17826475665
17826481829
17826487994
17826497760
17826504412
17826511126
17826518267
17826526690
17826533282
17826539935
17826547991
17826551837
17826563616
17826570696
17826578631
17826587969
17826594927
17826601946
17826609087
17826617510
17826624834
17826632342
17826640826
17826647845
17826657488
17826664324
17826671465
17826679461
17826686724
17826693560
17826703386
17826709978
17826720110
17826727495
17826736895
17826742388
17826751360
17826756914
17826764910
17826770647
17826780535
17826787493
17826794817
17826800737
17826805986
17826812151
17826819231
17826826616
17826831133
17826837786
17826844988
17826850237
17826854997
17826862993
17826868547
17826875200
17826879656
17826886247
17826890947
17826897173
17826905290
17826909868
17826917924
17826924516
17826930620
17826937212
17826943925
17826950700
17826958330
17826963884
17826971574
17826976945
17826983293
17826987871
17826994829
17827001848
17827007036
17827011857
17827017900
17827022661
17827029985
17827035356
17827041581
17827048478
17827055375
17827059892
17827065873
17827072465
17827077226
17827082658
17827090043
17827095414
17827102189
17827107987
17827114823
17827118730
17827125749
17827131364
17827138322
17827143754
17827149919
17827155534
17827161820
17827168717
17827174394
17827180314
17827187089
17827192094
17827198502
17827205399
17827211381
17827218156
17827224320
17827229935
17827235978
17827242570
17827248673
17827254777
17827259659
17827265946
17827272782
17827277787
17827284440
17827290665
17827298661
17827305436
17827311051
17827317521
17827323929
17827328995
17827338150
17827344742
17827351639
17827357499
17827363114
17827372147
17827377213
17827382706
17827390396
17827395768
17827403275
17827407608
17827414871
17827422257
17827429032
17827435135
17827439163
17827448319
17827455765
17827461014
17827469986
17827480423
17827486221
17827495987
17827503922
17827511429
17827520706
17827526138
17827534256
17827539932
17827546951
17827554092
17827561600
17827567581
17827574600
17827581314
17827585281
17827593277
17827599441
17827605545
17827610672
17827617508
17827622635
17827628677
17827634414
17827638992
17827644973
17827650894
17827657058
17827663650
17827669998
17827674820
17827681655
17827688186
17827694473
17827699783
17827707473
17827712722
17827719253
17827724563
17827732437
17827738540
17827744521
17827749954
17827758437
17827765212
17827771133
17827775100
17827782424
17827788406
17827794143
17827803237
17827808303
17827815688
17827820449
17827829177
17827835464
17827841933
17827848830
17827856948
17827864944
17827870986
17827877212
17827884048
17827890456
17827895949
17827905776
17827909804
17827916945
17827924392
17827929397
17827937026
17827943618
17827954116
17827960341
17827969313
17827976516
17827984206
17827989455
17827998000
17828006728
17828012709
17828021315
17828025588
17828036635
17828044325
17828053725
17828063002
17828072279
17828078871
17828087294
17828094618
17828104750
17828109999
17828119887
17828130995
17828138930
17828147047
17828154677
17828160292
17828166640
17828175856
17828182387
17828191481
17828199110
17828206923
17828211683
17828221571
17828229139
17828236830
17828244642
17828252150
17828257765
17828266249
17828271986
17828281141
17828285963
17828297987
17828303846
17828313612
17828321729
17828329908
17828336378
17828342542
17828351637
17828358839
17828366102
17828373182
17828378370
17828387037
17828394056
17828401197
17828408033
17828413953
17828419508
17828425733
17828431226
17828435743
17828442884
17828447584
17828453992
17828458936
17828465101
17828470411
17828477552
17828483167
17828489271
17828496534
17828502820
17828508741
17828513379
17828520398
17828525037
17828531690
17828536023
17828542676
17828549329
17828554944
17828560071
17828566602
17828571790
17828578199
17828584851
17828590833
17828596326
17828603101
17828607739
17828617993
17828622815
17828630811
17828638013
17828643811
17828649304
17828656445
17828662305
17828668347
17828674024
17828683057
17828689038
17828693555
17828699658
17828705701
17828712720
17828720288
17828729443
17828735181
17828741101
17828747693
17828753491
17828761731
17828768445
17828774853
17828780530
17828786938
17828791150
17828798230
17828803723
17828810498
17828817700
17828822949
17828828808
17828835583
17828842175
17828849133
17828854626
17828860852
17828866345
17828871228
17828878735
17828883129
17828889843
17828895520
17828901501
17828907421
17828914685
17828919872
17828926098
17828932690
17828938732
17828946362
17828953503
17828958630
17828965527
17828970654
17828976269
17828983410
17828990856
17828994885
17829002148
17829008862
17829015087
17829021130
17829025585
17829033337
17829040172
17829048717
17829053966
17829060131
17829065319
17829071361
17829080272
17829086071
17829092235
17829098461
17829103954
17829109508
17829115551
17829122204
17829127269
17829134472
17829139537
17829146923
17829153820
17829159984
17829166942
17829173900
17829179515
17829184520
17829192943
17829198741
17829204051
17829209117
17829215282
17829222728
17829227855
17829235607
17829241527
17829248058
17829255626
17829262462
17829269908
17829276683
17829286510
17829295177
17829299510
17829308543
17829319408
17829326244
17829334178
17829342540
17829348521
17829356456
17829359874
17829367808
17829374217
17829380198
17829385447
17829392283
17829400096
17829404612
17829411570
17829418528
17829424998
17829430674
17829437815
17829443858
17829451304
17829457103
17829464671
17829469981
17829476878
17829485484
17829495188
17829502696
17829508799
17829516429
17829524851
17829531993
17829541148
17829548960
17829554698
17829563120
17829572398
17829578196
17829587290
17829593455
17829601817
17829608897
17829616282
17829625010
17829630869
17829640024
17829647532
17829654856
17829662791
17829668894
17829676706
17829683420
17829693003
17829700876
17829706858
17829715525
17829722727
17829729685
17829738474
17829744150
17829753855
17829758493
17829765634
17829774729
17829781687
17829789072
17829797373
17829806040
17829812143
17829818796
17829827402
17829835397
17829841867
17829851083
17829857736
17829866892
17829871591
17829883249
17829892770
17829903329
17829909555
17829917490
17829926279
17829935190
17829941171
17829949045
17829957284
17829964853
17829970041
17829976205
17829981088
17829986886
17829991952
17829999948
17830005746
17830011544
17830015695
17830022836
17830028756
17830035531
17830042550
17830047921
17830054879
17830059274
17830065683
17830070932
17830076425
17830082040
17830088143
17830094918
17830099191
17830105966
17830110360
17830117074
17830122689
17830128976
17830135690
17830141305
17830144601
17830151254
17830156136
17830162240
17830168771
17830174935
17830180428
17830186166
17830191293
17830195687
17830201730
17830206490
17830213509
17830218270
17830223763
17830229317
17830233468
17830239083
17830243783
17830250741
17830256783
17830261727
17830266854
17830272225
17830277108
17830282479
17830288949
17830294076
17830298836
17830304024
17830309273
17830314949
17830319161
17830325936
17830330330
17830336434
17830341500
17830348091
17830353463
17830358773
17830365547
17830370186
17830377510
17830382942
17830388985
17830394295
17830399605
17830406136
17830412667
17830419502
17830427071
17830434456
17830441170
17830451180
17830460274
17830468880
17830476753
17830483345
17830490486
17830497200
17830504890
17830510811
17830517342
17830524055
17830530586
17830536629
17830543831
17830552315
17830556038
17830566292
17830572456
17830578499
17830583565
17830590034
17830598335
17830605415
17830611030
17830618049
17830622566
17830629280
17830635505
17830643745
17830649238
17830655220
17830658943
17830667854
17830674446
17830678840
17830682624
17830691291
17830698310
17830704231
17830710090
17830716560
17830721870
17830729621
17830735053
17830743354
17830748969
17830755073
17830758857
17830766303
17830772285
17830779182
17830785224
17830791145
17830797065
17830802253
17830809638
17830815070
17830823005
17830828559
17830833991
17830840339
17830846931
17830853217
17830857673
17830867316
17830871955
17830878913
17830885199
17830891913
17830897956
17830902717
17830908576
17830915595
17830921637
17830927558
17830933722
17830939338
17830946662
17830954169
17830961737
17830968573
17830975836
17830982489
17830987982
17830994391
17831004340
17831014166
17831022955
17831033881
17831043036
17831050726
17831061041
17831068060
17831076910
17831084174
17831092535
17831097845
17831103400
17831111151
17831115607
17831123114
17831128851
17831135260
17831141913
17831149908
17831157110
17831162298
17831169134
17831177984
17831185797
17831193487
17831199164
17831207037
17831214483
17831219915
17831224554
17831234991
17831239508
17831249456
17831255377
17831264105
17831270269
17831277960
17831287908
17831295538
17831304571
17831313238
17831319158
17831327154
17831333685
17831339910
17831349065
17831355718
17831364019
17831370855
17831377142
17831387090
17831392889
17831400091
17831408453
17831416753
17831424444
17831430669
17831437749
17831446477
17831454107
17831460393
17831466009
17831474737
17831481939
17831492437
17831498723
17831505437
17831513738
17831519231
17831527654
17831532842
17831542302
17831547551
17831553716
17831560918
17831567266
17831572881
17831579045
17831588140
17831593389
17831601750
17831605107
17831614324
17831621221
17831626225
17831633122
17831637944
17831644292
17831650090
17831656133
17831660771
17831666264
17831672124
17831679082
17831684514
17831690739
17831698064
17831703557
17831710393
17831717534
17831724553
17831731206
17831740056
17831745732
17831752385
17831761296
17831766179
17831772954
17831778630
17831785344
17831790837
17831796147
17831799992
17831806218
17831812199
17831816899
17831823246
17831829472
17831834721
17831841374
17831849675
17831854374
17831861088
17831866520
17831872563
17831878239
17831883427
17831888249
17831893681
17831899967
17831908085
17831913395
17831919499
17831925297
17831930119
17831936527
17831941044
17831949223
17831953251
17831960575
17831965275
17831972782
17831977238
17831984501
17831991459
17831996220
17832003178
17832007694
17832014347
17832020695
17832026432
17832033207
17832040226
17832045170
17832052372
17832058292
17832064823
17832070926
17832077274
17832083744
17832090885
17832094852
17832103336
17832109989
17832117374
17832124088
17832131046
17832137760
17832144901
17832155887
17832162296
17832169559
17832175296
17832183963
17832190555
17832198306
17832205753
17832212100
17832218265
17832224613
17832231510
17832236514
17832244693
17832250247
17832257755
17832262576
17832270389
17832275211
17832283023
17832288150
17832297549
17832303409
17832311832
17832319339
17832329410
17832336001
17832343326
17832351016
17832359195
17832369327
17832374698
17832381228
17832386722
17832394229
17832399722
17832408084
17832413577
17832420718
17832426822
17832433657
17832439700
17832446475
17832450320
17832458865
17832464968
17832472537
17832479067
17832484011
17832491580
17832497927
17832502505
17832510134
17832517092
17832523501
17832529238
17832536135
17832543581
17832548953
17832556399
17832563235
17832569460
17832576235
17832583193
17832588259
17832596194
17832601076
17832608767
17832616518
17832622317
17832627138
17832635439
17832640261
17832647585
17832652956
17832660830
17832666140
17832674441
17832679873
17832687380
17832694765
17832701967
17832707766
17832714968
17832722902
17832730776
17832736635
17832744814
17832752870
17832758242
17832766481
17832770998
17832780092
17832787172
17832794802
17832801637
17832807375
17832814882
17832823488
17832828249
17832837709
17832844057
17832850649
17832859316
17832866518
17832872194
17832879701
17832888551
17832896486
17832903261
17832911317
17832919679
17832925539
17832934389
17832942628
17832949464
17832956544
17832963991
17832973573
17832980104
17832986451
17832995668
17833004762
17833013490
17833022096
17833029664
17833040406
17833047486
17833054200
17833062196
17833067872
17833078004
17833084535
17833092103
17833098573
17833105653
17833110719
17833118592
17833126222
17833133302
17833138551
17833147279
17833155824
17833162293
17833170533
17833178712
17833184754
17833193726
17833202210
17833209473
17833216675
17833224488
17833231141
17833238587
17833244141
17833251465
17833256775
17833264344
17833270569
17833277100
17833283143
17833288636
17833293824
17833300538
17833305726
17833313416
17833319458
17833325623
17833331726
17833337220
17833342591
17833350769
17833356995
17833363220
17833369446
17833375489
17833381653
17833387696
17833393860
17833400025
17833404297
17833410889
17833416809
17833422852
17833429016
17833435120
17833439453
17833446961
17833453674
17833460205
17833466858
17833471741
17833478638
17833484985
17833490784
17833496948
17833502502
17833509399
17833515625
17833521973
17833527099
17833533508
17833540161
17833545227
17833551208
17833557190
17833562988
17833567993
17833574524
17833579651
17833587219
17833592712
17833598877
17833604431
17833609924
17833613281
17833621032
17833625000
17833631347
17833642822
17833649047
17833655639
17833663208
17833668884
17833680664
17833690795
17833697997
17833705566
17833710632
17833717346
17833722411
17833730163
17833736755
17833742797
17833749572
17833755920
17833761962
17833766845
17833773376
17833778258
17833786681
17833792419
17833800170
17833804320
17833812133
17833818664
17833825194
17833834106
17833839416
17833846496
17833851989
17833859862
17833865172
17833872863
17833877807
17833887145
17833892760
17833898803
17833906066
17833910827
17833918456
17833923156
17833930724
17833937621
17833943663
17833950865
17833955931
17833963195
17833969664
17833973387
17833982909
17833989012
17833994933
17834000670
17834007628
17834014464
17834021483
17834027525
17834032835
17834040343
17834045470
17834051390
17834056700
17834065062
17834071349
17834077025
17834082945
17834089903
17834094420
17834102782
17834108946
17834113585
17834121397
17834128355
17834134276
17834139525
17834146727
17834152586
17834158995
17834164549
17834172667
17834179136
17834185118
17834190184
17834196592
17834202879
17834211485
17834218138
17834223326
17834230467
17834239805
17834249205
17834256956
17834265562
17834274351
17834281004
17834290342
17834297056
17834307920
17834314390
17834322935
17834330137
17834337156
17834343382
17834349180
17834356382
17834364194
17834370969
17834377012
17834384275
17834390562
17834397214
17834403928
17834410398
17834416929
17834423887
17834431516
17834437192
17834444394
17834449949
17834457090
17834465635
17834472226
17834478147
17834486142
17834492978
17834500913
17834509824
17834515744
17834523984
17834533078
17834541562
17834546933
17834554196
17834561948
17834568601
17834576779
17834582395
17834590085
17834596738
17834602109
17834609555
17834617124
17834624997
17834630551
17834640256
17834645993
17834653500
17834660458
17834668454
17834674435
17834683102
17834688718
17834697812
17834706479
17834715512
17834722714
17834727963
17834735409
17834743283
17834750973
17834756039
17834765927
17834771237
17834779477
17834786435
17834792233
17834798459
17834807553
17834814450
17834821102
17834828183
17834835202
17834841183
17834848080
17834854061
17834860958
17834869015
17834877255
17834883541
17834890927
17834898007
17834904415
17834909969
17834916256
17834922848
17834929928
17834938229
17834943844
17834950924
17834957333
17834964413
17834970882
17834977474
17834984981
17834991024
17834997860
17835004085
17835008968
17835014522
17835020626
17835027340
17835032284
17835039425
17835044857
17835051204
17835056637
17835062740
17835066097
17835074764
17835080501
17835085994
17835091854
17835097408
17835103389
17835109005
17835114986
17835120052
17835127681
17835131954
17835138240
17835144405
17835149654
17835155269
17835160579
17835166744
17835173458
17835178462
17835183284
17835188106
17835194270
17835199642
17835206111
17835212459
17835216609
17835223079
17835228816
17835233760
17835237788
17835244197
17835250179
17835256404
17835260860
17835266780
17835271724
17835277095
17835282405
17835289119
17835294795
17835300166
17835305537
17835311153
17835318049
17835322322
17835329036
17835335200
17835341853
17835347712
17835353999
17835359370
17835364131
17835370967
17835377803
17835383784
17835389277
17835394709
17835400874
17835407466
17835414363
17835421382
17835428279
17835434321
17835439387
17835445368
17835450923
17835457575
17835462702
17835472102
17835478572
17835484553
17835491206
17835498591
17835505671
17835511836
17835516291
17835525080
17835533381
17835538508
17835545527
17835552729
17835559321
17835566645
17835574274
17835580317
17835587336
17835593500
17835599970
17835606013
17835611811
17835617548
17835624750
17835631403
17835637751
17835644343
17835650873
17835658136
17835663263
17835670160
17835677057
17835683588
17835689936
17835695612
17835701960
17835707575
17835712030
17835720514
17835726007
17835733454
17835738886
17835746210
17835751703
17835758417
17835764032
17835772455
17835778742
17835785272
17835790949
17835797601
17835801935
17835808771
17835814386
17835822565
17835828180
17835834711
17835840814
17835846857
17835852899
17835858820
17835866083
17835873712
17835879938
17835884943
17835891168
17835898065
17835904230
17835909540
17835917169
17835922357
17835929437
17835934564
17835941827
17835947442
17835954278
17835960565
17835968988
17835975946
17835980829
17835987298
17835995111
17835999200
17836008050
17836014398
17836021417
17836029412
17836037042
17836044122
17836050897
17836055963
17836064019
17836071404
17836079095
17836084222
17836091912
17836096734
17836103936
17836110528
17836117669
17836126641
17836135430
17836144585
17836150201
17836158562
17836165704
17836172234
17836179864
17836187920
17836195794
17836203240
17836208489
17836217034
17836221856
17836228997
17836236504
17836244011
17836251824
17836257378
17836265007
17836271477
17836276604
17836283989
17836288994
17836297722
17836303643
17836311638
17836319329
17836326165
17836332207
17836339714
17836345635
17836354058
17836360039
17836368767
17836374199
17836381828
17836388970
17836396599
17836402519
17836410576
17836417961
17836423882
17836431023
17836438347
17836443779
17836451714
17836457878
17836464775
17836474419
17836480034
17836488335
17836492729
17836502556
17836509758
17836517937
17836524650
17836531791
17836536674
17836542839
17836548698
17836554313
17836558342
17836565239
17836572014
17836579216
17836585441
17836589470
17836595451
17836601493
17836607109
17836611320
17836618278
17836624687
17836631279
17836636039
17836642387
17836647148
17836652580
17836659355
17836666740
17836671317
17836677726
17836683158
17836689201
17836695304
17836701652
17836707816
17836714591
17836721366
17836727653
17836732169
17836738822
17836744071
17836750114
17836755485
17836761832
17836768546
17836773795
17836780692
17836786429
17836792960
17836798209
17836806144
17836810355
17836817863
17836824149
17836829703
17836835135
17836841117
17836846732
17836852652
17836859183
17836864127
17836868888
17836873160
17836879813
17836884757
17836892203
17836896964
17836902152
17836908255
17836913687
17836919120
17836925528
17836931693
17836938346
17836945609
17836949942
17836957694
17836965384
17836972647
17836979483
17836984061
17836992301
17836999259
17837005484
17837011649
17837016837
17837024161
17837032523
17837038870
17837044547
17837052603
17837059500
17837066641
17837073355
17837079947
17837086294
17837093497
17837100638
17837107168
17837112478
17837120047
17837125784
17837133963
17837139578
17837147696
17837154104
17837159964
17837166311
17837173391
17837181326
17837187918
17837193838
17837200369
17837207144
17837214163
17837222158
17837227774
17837235281
17837243032
17837248342
17837254019
17837261770
17837268179
17837275930
17837283193
17837290151
17837298574
17837302786
17837311941
17837319143
17837324575
17837332632
17837340139
17837346914
17837352590
17837359792
17837366140
17837372060
17837384634
17837393545
17837400564
17837409170
17837418203
17837427114
17837434438
17837442739
17837449270
17837456106
17837463369
17837469533
17837476613
17837484182
17837490041
17837497243
17837505117
17837510488
17837515981
17837525258
17837532216
17837538930
17837545949
17837550893
17837559499
17837564504
17837571889
17837579030
17837586293
17837591725
17837598927
17837604298
17837612111
17837618398
17837624989
17837631093
17837638112
17837645253
17837652394
17837659901
17837665395
17837674489
17837680714
17837688039
17837695302
17837701710
17837707997
17837715260
17837724965
17837731007
17837738820
17837745289
17837755177
17837762135
17837769703
17837777455
17837786366
17837793873
17837801686
17837808888
17837815296
17837823841
17837831105
17837841236
17837847218
17837854908
17837863453
17837872486
17837880116
17837886830
17837895619
17837902516
17837911854
17837919605
17837928028
17837935902
17837941944
17837949635
17837959095
17837967640
17837973987
17837982593
17837992298
17837999134
17838007191
17838014820
17838020679
17838029346
17838035389
17838044483
17838051014
17838062000
17838068348
17838078785
17838092090
17838098926
17838108081
17838115528
17838125171
17838133777
17838139759
17838148731
17838165393
17838177295
17838185108
17838190540
17838196460
17838201221
17838209522
17838214893
17838221240
17838226001
17838233142
17838238452
17838243457
17838250049
17838255786
17838261584
17838267749
17838273059
17838278674
17838284106
17838289722
17838295154
17838303210
17838309619
17838315722
17838322253
17838326892
17838334094
17838338366
17838344836
17838351672
17838359607
17838364856
17838371020
17838375781
17838382373
17838388598
17838394641
17838402026
17838406787
17838412951
17838417224
17838421618
17838427783
17838432727
17838440295
17838445849
17838453051
17838459704
17838466479
17838473437
17838478686
17838485278
17838491869
17838497790
17838504382
17838510973
17838515307
17838521410
17838527819
17838535693
17838542101
17838548815
17838554430
17838561266
17838567919
17838574389
17838579943
17838585985
17838592211
17838597094
17838604113
17838609606
17838620104
17838625597
17838632250
17838639391
17838644396
17838651415
17838657335
17838663866
17838672106
17838678942
17838683825
17838690294
17838698168
17838704332
17838711595
17838718614
17838725267
17838731859
17838738207
17838744615
17838749437
17838758226
17838763963
17838770860
17838776842
17838783617
17838789781
17838796129
17838803575
17838810106
17838815660
17838822618
17838829210
17838834581
17838842577
17838848436
17838857774
17838862230
17838871080
17838877611
17838882066
17838890733
17838897325
17838903428
17838908983
17838916307
17838921251
17838928392
17838934800
17838943040
17838949266
17838957139
17838962999
17838968736
17838977464
17838984666
17838989122
17838998216
17839003221
17839012071
17839018785
17839023973
17839031907
17839038560
17839045640
17839052476
17839058763
17839065476
17839071580
17839079637
17839087266
17839094895
17839103318
17839111741
17839118516
17839123887
17839131882
17839138657
17839143418
17839152146
17839157456
17839164963
17839170945
17839177659
17839185654
17839191025
17839197617
17839204209
17839211899
17839219590
17839225388
17839230942
17839237656
17839244858
17839252182
17839263413
17839273667
17839281907
17839289963
17839296311
17839303391
17839309372
17839320053
17839328476
17839334152
17839341416
17839348068
17839353867
17839359116
17839367661
17839373825
17839379624
17839385483
17839394882
17839402268
17839408371
17839416672
17839422043
17839431564
17839441452
17839446823
17839454819
17839461166
17839467087
17839474289
17839481125
17839488693
17839494247
17839501022
17839506271
17839513351
17839519943
17839527450
17839532760
17839543686
17839551498
17839558761
17839566269
17839573654
17839581771
17839589645
17839595932
17839603195
17839609359
17839618026
17839625717
17839632736
17839642074
17839648422
17839656600
17839661300
17839669967
17839678390
17839683883
17839691879
17839697799
17839707015
17839716171
17839723800
17839726730
17839740218
17839746993
17839753585
17839763290
17839768539
17839777389
17839785934
17839792830
17839800399
17839807662
17839812789
17839818038
17839824508
17839830184
17839837691
17839842940
17839849349
17839855452
17839861678
17839867659
17839874556
17839880904
17839889449
17839896407
17839903731
17839911421
17839916121
17839923018
17839930220
17839938826
17839944869
17839951216
17839955550
17839963240
17839971480
17839976485
17839983504
17839990218
17839996809
17840001692
17840008345
17840015486
17840021223
17840027632
17840033003
17840038618
17840043745
17840049055
17840053633
17840060652
17840066511
17840071455
17840076277
17840083662
17840087324
17840095381
17840099409
17840105452
17840111311
17840117109
17840122969
17840128523
17840133467
17840138105
17840146406
17840151899
17840157454
17840163496
17840167707
17840174116
17840180159
17840186201
17840191694
17840196516
17840201521
17840207258
17840213179
17840218305
17840225325
17840232649
17840238569
17840244917
17840250410
17840256635
17840262434
17840269148
17840275739
17840280866
17840288252
17840294721
17840300337
17840308332
17840316572
17840321760
17840327863
17840335004
17840341779
17840350629
17840355085
17840362592
17840369550
17840378034
17840384199
17840391157
17840398237
17840405500
17840412092
17840419172
17840426801
17840433210
17840442304
17840448896
17840458661
17840465009
17840473859
17840480939
17840488935
17840495587
17840503766
17840508588
17840514814
17840522748
17840528180
17840534772
17840540509
17840547894
17840555219
17840560712
17840567243
17840572980
17840581525
17840589520
17840594891
17840603131
17840607098
17840613934
17840621381
17840627606
17840634503
17840640912
17840647137
17840654950
17840662091
17840670148
17840676739
17840681988
17840689923
17840693768
17840702130
17840708844
17840715802
17840723492
17840728924
17840734112
17840740704
17840747723
17840753277
17840760113
17840767132
17840774823
17840780682
17840784832
17840794476
