18327012653
18327018695
18327025531
18327032306
18327043048
18327051044
18327058063
18327063556
18327070392
18327076312
18327082232
18327089374
18327096576
18327102801
18327109210
18327116961
18327122332
18327128558
18327134600
18327142718
18327149493
18327156390
18327163287
18327170977
18327178240
18327186297
18327194781
18327200213
18327205462
18327213030
18327220538
18327230609
18327238909
18327247149
18327254534
18327260943
18327270647
18327275042
18327283953
18327293047
18327300127
18327306536
18327314654
18327321612
18327333514
18327342364
18327351885
18327359942
18327368181
18327375750
18327384661
18327393023
18327400347
18327409014
18327416765
18327423601
18327430986
18327435808
18327446306
18327452593
18327459429
18327466387
18327473162
18327481401
18327487566
18327496477
18327504289
18327511003
18327516924
18327525286
18327531023
18327539873
18327547136
18327557878
18327565508
18327572893
18327581499
18327588945
18327595354
18327602861
18327610673
18327617937
18327625261
18327632646
18327640764
18327646318
18327654680
18327663103
18327671708
18327678300
18327685685
18327693559
18327700517
18327709123
18327714860
18327724626
18327731401
18327737443
18327744889
18327750627
18327758989
18327765580
18327772966
18327780107
18327787492
18327796647
18327803056
18327811112
18327819474
18327826554
18327835526
18327842668
18327850724
18327857621
18327865556
18327871964
18327878007
18327887040
18327893876
18327900590
18327907059
18327915910
18327923600
18327929154
18327935136
18327944474
18327952408
18327960404
18327968583
18327974686
18327984818
18327990738
18328000443
18328009049
18328018265
18328026261
18328033463
18328041886
18328050248
18328059342
18328065567
18328075394
18328082535
18328091324
18328099137
18328108902
18328118057
18328126969
18328136185
18328143997
18328150467
18328158035
18328166092
18328174698
18328181778
18328188736
18328197891
18328205887
18328213394
18328217911
18328230789
18328238724
18328246048
18328254593
18328263260
18328270889
18328278579
18328286453
18328294327
18328300308
18328309463
18328317825
18328324539
18328333206
18328341934
18328349136
18328357070
18328361587
18328371170
18328377456
18328386795
18328394241
18328402053
18328409805
18328418044
18328427383
18328435439
18328442703
18328450393
18328458999
18328464553
18328472732
18328480666
18328489272
18328497329
18328504775
18328511062
18328519729
18328525710
18328534377
18328540725
18328549392
18328555984
18328565017
18328569594
18328580703
18328588820
18328599074
18328605483
18328613112
18328620437
18328628249
18328636184
18328643630
18328650161
18328657241
18328665602
18328673903
18328680739
18328686232
18328694045
18328701735
18328708022
18328716261
18328724806
18328731703
18328739516
18328745680
18328755263
18328762221
18328772170
18328780104
18328789137
18328800368
18328810500
18328819472
18328829237
18328834486
18328847853
18328857741
18328862135
18328871351
18328875807
18328885695
18328893263
18328900709
18328908522
18328916761
18328924696
18328931410
18328943678
18328954420
18328964796
18328973646
18328987379
18328997816
18329008070
18329021070
18329033460
18329043592
18329053785
18329064893
18329074720
18329085157
18329099927
18329114881
18329123975
18329133436
18329142896
18329152723
18329162000
18329170850
18329179517
18329188611
18329198743
18329207532
18329216077
18329226270
18329235059
18329244153
18329252759
18329262403
18329272229
18329280042
18329289563
18329301404
18329309888
18329318006
18329327771
18329336133
18329344556
18329353040
18329362744
18329367688
18329380994
18329386304
18329397595
18329406262
18329415539
18329424206
18329433057
18329443921
18329451428
18329461072
18329468396
18329478528
18329486096
18329500561
18329512036
18329519665
18329531628
18329540539
18329552258
18329560742
18329576672
18329588146
18329596508
18329609020
18329617870
18329629955
18329643017
18329654308
18329664990
18329674328
18329688122
18329694164
18329710216
18329723705
18329735119
18329746776
18329758007
18329768200
18329778454
18329789928
18329800182
18329810558
18329822216
18329832958
18329844554
18329855297
18329864574
18329874462
18329883861
18329894237
18329903209
18329912547
18329921947
18329932506
18329942027
18329952098
18329963939
18329973888
18329982127
18329991283
18330000438
18330009288
18330021190
18330030589
18330039744
18330049083
18330058177
18330067515
18330076060
18330085399
18330095225
18330104258
18330114390
18330123179
18330132029
18330141429
18330151499
18330161936
18330169871
18330180430
18330189585
18330198802
18330208445
18330218089
18330227671
18330237071
18330246653
18330256297
18330264903
18330274912
18330285960
18330293772
18330304270
18330314158
18330326182
18330334238
18330346140
18330354563
18330363901
18330371592
18330383249
18330391550
18330404673
18330410593
18330422495
18330428171
18330441294
18330450937
18330462961
18330471140
18330480783
18330490732
18330499887
18330508310
18330517404
18330526865
18330542307
18330558298
18330567270
18330584787
18330595468
18330605783
18330611642
18330617929
18330624582
18330631967
18330639474
18330646554
18330653207
18330658883
18330666025
18330670968
18330679635
18330686532
18330691781
18330698312
18330705026
18330713388
18330719552
18330726144
18330731515
18330738229
18330743417
18330750192
18330755441
18330761239
18330766427
18330773507
18330780526
18330786996
18330793588
18330798165
18330804330
18330810433
18330816293
18330822701
18330828683
18330833383
18330840096
18330849374
18330858956
18330868417
18330878548
18330886300
18330895638
18330906319
18330914559
18330924691
18330931222
18330941292
18330953560
18330964547
18330971505
18330978341
18330985116
18330991036
18331002083
18331008370
18331013985
18331021981
18331028450
18331034371
18331040902
18331047493
18331055184
18331061959
18331067452
18331072396
18331079293
18331084419
18331092293
18331100350
18331106697
18331112190
18331118355
18331125069
18331131172
18331138313
18331147102
18331152290
18331157173
18331164253
18331171822
18331177925
18331183174
18331192390
18331199898
18331204842
18331213631
18331219429
18331227119
18331233833
18331241585
18331248115
18331254341
18331259773
18331266853
18331273384
18331278328
18331284065
18331291206
18331296089
18331302009
18331309028
18331315742
18331321296
18331328010
18331333808
18331340400
18331347297
18331352424
18331359504
18331364570
18331371406
18331376411
18331382942
18331389594
18331396186
18331400642
18331406623
18331412971
18331418159
18331424079
18331430793
18331436469
18331442573
18331448737
18331456916
18331466010
18331472419
18331479743
18331486396
18331491340
18331496101
18331502936
18331508247
18331514960
18331520942
18331526496
18331533210
18331538886
18331545417
18331550178
18331556464
18331562018
18331569709
18331574836
18331581489
18331586554
18331592353
18331598090
18331603278
18331609748
18331615912
18331621650
18331628424
18331632636
18331639411
18331644049
18331650580
18331655890
18331661994
18331667487
18331673163
18331680182
18331686041
18331691290
18331697821
18331703864
18331710761
18331715827
18331720770
18331728644
18331734503
18331740363
18331748297
18331752692
18331761053
18331770514
18331780463
18331788580
18331797552
18331805060
18331811468
18331818304
18331824469
18331830023
18331835577
18331843390
18331850348
18331856756
18331863104
18331869757
18331876593
18331882330
18331890204
18331896978
18331902838
18331908026
18331916388
18331922674
18331930548
18331936773
18331943731
18331949224
18331955511
18331961492
18331968145
18331974920
18331981695
18331989202
18331993353
18332001531
18332007635
18332013860
18332020941
18332028082
18332034918
18332041876
18332048223
18332053472
18332059820
18332065252
18332073125
18332079656
18332084966
18332090215
18332097600
18332103948
18332110479
18332116826
18332124090
18332131963
18332137090
18332143377
18332148931
18332157293
18332161382
18332169988
18332177007
18332183355
18332189702
18332196660
18332203557
18332208684
18332215642
18332223455
18332229558
18332235234
18332243108
18332250859
18332255620
18332263799
18332269231
18332277288
18332282964
18332289861
18332296636
18332302861
18332309453
18332317754
18332325505
18332331242
18332339299
18332346867
18332353886
18332362004
18332368962
18332377812
18332384099
18332393498
18332402226
18332410527
18332417119
18332426274
18332432561
18332440190
18332445805
18332453312
18332461308
18332468022
18332474247
18332481328
18332488591
18332495732
18332502140
18332509343
18332516301
18332523503
18332530766
18332537907
18332545292
18332552738
18332559635
18332566777
18332574406
18332579716
18332587589
18332595768
18332602665
18332610355
18332617069
18332623173
18332631474
18332637394
18332646244
18332652042
18332661015
18332665714
18332675175
18332681583
18332689701
18332696171
18332705326
18332713199
18332719120
18332725590
18332734745
18332741398
18332750187
18332756717
18332766727
18332771366
18332780948
18332788089
18332796573
18332803897
18332809696
18332816288
18332825931
18332833927
18332841617
18332846256
18332855655
18332859928
18332870365
18332878116
18332885196
18332889163
18332897525
18332904178
18332910892
18332917911
18332924259
18332930789
18332937625
18332944400
18332951358
18332957767
18332962955
18332970218
18332975406
18332985660
18332990848
18332997317
18333004336
18333010989
18333016482
18333023685
18333028506
18333037051
18333042972
18333047854
18333054873
18333062259
18333069095
18333077639
18333085147
18333090579
18333097598
18333104678
18333110232
18333117862
18333123233
18333129214
18333135318
18333140811
18333146975
18333153323
18333159793
18333164553
18333171939
18333177310
18333183352
18333190127
18333195986
18333201968
18333207705
18333213503
18333219973
18333226809
18333231692
18333239626
18333245791
18333251345
18333256777
18333262820
18333269656
18333275759
18333281191
18333287478
18333293886
18333299197
18333305727
18333312868
18333318850
18333324221
18333330446
18333337832
18333344240
18333350161
18333355227
18333363527
18333369692
18333375551
18333381167
18333388613
18333394289
18333400332
18333406862
18333413210
18333419741
18333425112
18333432070
18333438356
18333444948
18333453554
18333459047
18333466677
18333471865
18333478823
18333485903
18333492616
18333499086
18333505434
18333512026
18333519228
18333525270
18333530763
18333540285
18333547121
18333553957
18333559755
18333566713
18333573671
18333577455
18333586427
18333593873
18333600221
18333608339
18333613588
18333620851
18333626222
18333636842
18333644410
18333651185
18333657960
18333665284
18333673158
18333679017
18333688234
18333696351
18333702821
18333708314
18333716249
18333722352
18333730592
18333738832
18333745362
18333751710
18333758485
18333765443
18333772523
18333778626
18333785890
18333792359
18333799195
18333807374
18333813844
18333821412
18333828187
18333834901
18333841676
18333848145
18333856385
18333863648
18333869508
18333876588
18333883790
18333889283
18333896607
18333902650
18333909852
18333917664
18333924317
18333930787
18333937501
18333944092
18333950989
18333958985
18333963868
18333971741
18333978821
18333985169
18333992615
18333999329
18334004761
18334012879
18334018433
18334026917
18334034973
18334042115
18334049073
18334056336
18334066529
18334074097
18334081482
18334087280
18334095215
18334102234
18334108826
18334116699
18334124573
18334131714
18334137329
18334144592
18334152649
18334158508
18334166748
18334175049
18334182251
18334190430
18334198669
18334206360
18334212707
18334221130
18334228576
18334237976
18334244079
18334252197
18334260498
18334269165
18334273864
18334283203
18334290039
18334298828
18334305420
18334313171
18334319885
18334328796
18334335998
18334343933
18334353271
18334362060
18334369323
18334377624
18334384521
18334393493
18334401733
18334409850
18334414306
18334423949
18334428161
18334436340
18334442321
18334450866
18334457580
18334464294
18334470275
18334478576
18334486388
18334494384
18334502624
18334508971
18334515563
18334524962
18334529845
18334538268
18334545653
18334553100
18334559264
18334567687
18334573668
18334582457
18334586425
18334594909
18334598693
18334605407
18334613219
18334619506
18334623534
18334632262
18334639403
18334647216
18334653197
18334661254
18334667235
18334673461
18334679747
18334684081
18334690184
18334696593
18334702452
18334709288
18334714537
18334721190
18334727354
18334732481
18334739745
18334745177
18334753050
18334758971
18334766356
18334771727
18334777037
18334786009
18334792601
18334799620
18334804564
18334810484
18334815184
18334821837
18334826719
18334834410
18334840758
18334846495
18334852293
18334858030
18334864561
18334868834
18334875059
18334881346
18334888060
18334892881
18334900511
18334905943
18334911131
18334916075
18334921873
18334928770
18334934507
18334940733
18334946348
18334951292
18334957029
18334962034
18334970030
18334976682
18334980161
18334988096
18334994627
18335000791
18335007627
18335015318
18335021726
18335026426
18335033140
18335038511
18335045042
18335050901
18335057676
18335064756
18335069395
18335076536
18335080869
18335088438
18335095273
18335101194
18335106626
18335113645
18335119260
18335125730
18335133298
18335139280
18335144895
18335152341
18335159726
18335164914
18335171811
18335178281
18335183957
18335190427
18335195981
18335203855
18335208676
18335213681
18335221433
18335225095
18335232602
18335237729
18335244992
18335252317
18335259702
18335266477
18335273007
18335279416
18335286008
18335294064
18335300168
18335308286
18335314938
18335321652
18335328732
18335335385
18335340756
18335347592
18335355649
18335362729
18335369076
18335375058
18335381528
18335389340
18335396786
18335404233
18335410702
18335417660
18335424069
18335431332
18335436398
18335443966
18335451230
18335458127
18335464047
18335470944
18335476498
18335484066
18335491635
18335499997
18335506832
18335512020
18335520382
18335525814
18335533505
18335539120
18335546017
18335552609
18335560971
18335566220
18335574948
18335587826
18335595211
18335602963
18335615048
18335622189
18335627926
18335637203
18335642574
18335649471
18335657955
18335664669
18335671139
18335677486
18335684078
18335689022
18335697506
18335705318
18335711178
18335717220
18335724911
18335730526
18335738826
18335743343
18335751644
18335759395
18335766109
18335772823
18335779537
18335786434
18335794857
18335802059
18335807979
18335815609
18335821651
18335828670
18335834529
18335844173
18335852168
18335859676
18335867854
18335873775
18335881648
18335888362
18335898067
18335903621
18335910945
18335919185
18335926570
18335932674
18335940547
18335946895
18335956233
18335962947
18335971553
18335978816
18335986262
18335992366
18336000606
18336009395
18336017390
18336028315
18336036311
18336043208
18336049678
18336056758
18336062190
18336070002
18336077143
18336084712
18336091304
18336099116
18336107173
18336115351
18336123347
18336125971
18336136897
18336141719
18336152827
18336161799
18336167719
18336175898
18336181880
18336188471
18336197749
18336205561
18336211054
18336217158
18336226069
18336232356
18336237543
18336242854
18336250605
18336256525
18336262812
18336272700
18336279719
18336286127
18336293757
18336301142
18336307123
18336314875
18336321528
18336328669
18336335383
18336342035
18336348200
18336354731
18336360651
18336367426
18336374079
18336380365
18336387140
18336396723
18336402765
18336409601
18336416620
18336422541
18336429132
18336435663
18336441767
18336448114
18336453607
18336460626
18336467645
18336473810
18336478632
18336485529
18336491388
18336496698
18336502435
18336509760
18336515314
18336521417
18336526605
18336531183
18336538690
18336542474
18336549371
18336555719
18336561456
18336566949
18336571283
18336576898
18336583246
18336589532
18336594293
18336600885
18336606012
18336611200
18336616388
18336621942
18336627862
18336632318
18336639276
18336645074
18336650140
18336657098
18336663018
18336668451
18336676385
18336682000
18336688897
18336694696
18336699700
18336705255
18336713067
18336718316
18336727166
18336733026
18336738763
18336744500
18336750237
18336757928
18336764092
18336770013
18336775750
18336782464
18336788506
18336793267
18336801141
18336808404
18336814324
18336823174
18336832024
18336838738
18336845269
18336855340
18336862054
18336869256
18336877556
18336886590
18336892388
18336899346
18336906487
18336912285
18336919793
18336926384
18336933709
18336940178
18336946587
18336954888
18336962395
18336968071
18336975396
18336979912
18336989251
18336997124
18337003411
18337009636
18337017327
18337022881
18337030876
18337037895
18337043450
18337050408
18337058037
18337062676
18337070427
18337076592
18337085320
18337091972
18337098625
18337104118
18337110954
18337117485
18337125542
18337130058
18337137871
18337144829
18337151298
18337159416
18337163750
18337172356
18337179802
18337185295
18337191215
18337198601
18337205864
18337213066
18337218132
18337227653
18337233146
18337240532
18337247184
18337254387
18337261650
18337269218
18337275688
18337282524
18337290275
18337297721
18337303947
18337312309
18337319511
18337326713
18337333000
18337339042
18337347831
18337356132
18337362113
18337370475
18337374626
18337383720
18337392265
18337398246
18337407645
18337413749
18337421928
18337431327
18337437614
18337446525
18337454154
18337464286
18337470084
18337477653
18337484672
18337491019
18337497062
18337505485
18337512809
18337520743
18337528739
18337535941
18337542655
18337547294
18337555899
18337562980
18337573172
18337580619
18337588370
18337594596
18337602286
18337609366
18337617606
18337625662
18337632804
18337638968
18337647086
18337653983
18337659903
18337668143
18337676077
18337684195
18337693045
18337699271
18337705924
18337712698
18337720267
18337729239
18337734305
18337743094
18337749197
18337760428
18337766836
18337774283
18337782156
18337788138
18337795218
18337799063
18337808035
18337814993
18337821097
18337827139
18337834036
18337839956
18337845327
18337851919
18337857840
18337863516
18337871145
18337877615
18337884024
18337889822
18337895681
18337903494
18337910208
18337914907
18337921865
18337926260
18337934072
18337941091
18337947256
18337952993
18337959158
18337964651
18337968923
18337975637
18337981680
18337987112
18337992666
18337999685
18338007314
18338013357
18338023122
18338029287
18338036245
18338042776
18338049184
18338057058
18338062307
18338069570
18338076223
18338080923
18338087758
18338094716
18338099721
18338107412
18338113881
18338119741
18338125783
18338130849
18338137441
18338143728
18338149709
18338155996
18338162160
18338167409
18338172292
18338179616
18338185964
18338190969
18338198354
18338205983
18338211415
18338217641
18338224843
18338230702
18338237416
18338242482
18338250051
18338255788
18338262563
18338268910
18338274831
18338281728
18338287892
18338294301
18338302602
18338309865
18338316640
18338322560
18338330006
18338336232
18338343251
18338351369
18338357533
18338365224
18338370839
18338376759
18338383961
18338392750
18338399281
18338405812
18338412709
18338418446
18338424183
18338431935
18338438344
18338445057
18338451771
18338458607
18338464650
18338471791
18338478260
18338484608
18338492359
18338500172
18338508839
18338519947
18338526356
18338536854
18338546131
18338554737
18338563526
18338572926
18338580494
18338588856
18338597828
18338604725
18338614796
18338623341
18338631275
18338641346
18338651050
18338660145
18338670399
18338678516
18338687733
18338694874
18338700611
18338707020
18338713794
18338721180
18338727466
18338733814
18338740284
18338748523
18338754627
18338760242
18338766407
18338773059
18338780811
18338788562
18338796375
18338801319
18338808216
18338812122
18338821765
18338827320
18338833789
18338840198
18338847217
18338853259
18338859607
18338867236
18338873950
18338879993
18338886890
18338894031
18338900562
18338906970
18338916309
18338922107
18338929370
18338935229
18338940112
18338947681
18338955432
18338962207
18338968555
18338975329
18338982471
18338987659
18338993884
18339000598
18339008838
18339015552
18339022571
18339029773
18339035815
18339042102
18339048083
18339055835
18339064074
18339069323
18339075549
18339083239
18339089587
18339096423
18339103442
18339110034
18339117663
18339123278
18339129992
18339137499
18339143786
18339150500
18339160143
18339165514
18339173266
18339179003
18339185778
18339195300
18339205981
18339214465
18339222643
18339232409
18339238695
18339247851
18339254565
18339261400
18339268358
18339277270
18339287462
18339293688
18339299791
18339305529
18339313707
18339321154
18339326220
18339333178
18339339464
18339346788
18339352953
18339358568
18339365404
18339371630
18339376574
18339382494
18339387743
18339395189
18339401171
18339405931
18339412035
18339418871
18339425829
18339430590
18339436754
18339443712
18339449754
18339454759
18339461900
18339468065
18339474779
18339480028
18339486742
18339494371
18339499864
18339506456
18339512865
18339518358
18339525133
18339532274
18339539110
18339545518
18339550767
18339554307
18339560838
18339568712
18339573472
18339580614
18339587327
18339593309
18339598863
18339602952
18339609605
18339616563
18339622117
18339626817
18339633592
18339639817
18339643785
18339651231
18339655687
18339662400
18339667527
18339674058
18339680345
18339685472
18339692002
18339697801
18339705186
18339710984
18339717576
18339721299
18339727525
18339734666
18339741746
18339749925
18339758286
18339767686
18339775132
18339783433
18339792588
18339798264
18339805161
18339813279
18339822922
18339830552
18339837083
18339842576
18339848069
18339854783
18339860520
18339867905
18339874558
18339881028
18339889329
18339895615
18339902756
18339908677
18339915635
18339922593
18339927231
18339933640
18339940293
18339945786
18339953720
18339960068
18339966477
18339972397
18339977829
18339985581
18339992966
18340000473
18340007126
18340011765
18340019211
18340025070
18340031601
18340039047
18340045151
18340052292
18340059311
18340065354
18340072495
18340078903
18340083664
18340089768
18340097824
18340106003
18340111862
18340118576
18340124374
18340131882
18340137924
18340143845
18340150680
18340156357
18340163925
18340168991
18340175461
18340181015
18340189316
18340195724
18340202194
18340209945
18340216476
18340223495
18340231369
18340234909
18340244980
18340251388
18340256576
18340265915
18340272445
18340280014
18340285751
18340293197
18340299362
18340308151
18340314437
18340322738
18340332565
18340337692
18340348068
18340355087
18340361678
18340369979
18340376876
18340383041
18340391708
18340397567
18340406661
18340413253
18340420089
18340428268
18340434310
18340441695
18340446639
18340455550
18340461715
18340469588
18340475997
18340482345
18340491500
18340498031
18340506392
18340516585
18340525069
18340531600
18340539107
18340548384
18340556746
18340563521
18340571700
18340579451
18340584700
18340594100
18340603316
18340609419
18340617598
18340627364
18340633101
18340642134
18340648665
18340658553
18340662825
18340672163
18340679915
18340687666
18340694991
18340703108
18340711043
18340721907
18340729353
18340738814
18340746199
18340754133
18340759260
18340769087
18340777266
18340785994
18340793562
18340801252
18340808577
18340816511
18340822920
18340831038
18340839766
18340847151
18340854109
18340863142
18340869856
18340879988
18340887251
18340894514
18340902082
18340907148
18340914289
18340919172
18340927290
18340936628
18340940229
18340948896
18340956831
18340963300
18340969831
18340976606
18340982893
18340988386
18340996687
18341002424
18341008955
18341016096
18341024580
18341030073
18341037702
18341042646
18341050275
18341057538
18341061994
18341069196
18341074384
18341081586
18341087201
18341093000
18341098066
18341104047
18341110334
18341113874
18341122358
18341127546
18341134382
18341138471
18341145124
18341151105
18341157148
18341161176
18341167829
18341174909
18341180585
18341186200
18341191632
18341197858
18341203229
18341209577
18341214520
18341222333
18341227521
18341234662
18341239789
18341245221
18341251386
18341256757
18341263410
18341268964
18341275311
18341281964
18341286664
18341293866
18341300641
18341306439
18341314008
18341319928
18341325970
18341332745
18341338910
18341344586
18341352154
18341359112
18341365460
18341369916
18341378338
18341383710
18341390240
18341397198
18341403973
18341410565
18341417767
18341424847
18341430340
18341437909
18341443951
18341451031
18341457440
18341467144
18341473980
18341482525
18341491986
18341499920
18341509075
18341515728
18341524944
18341531597
18341538738
18341546490
18341553570
18341560284
18341567181
18341573223
18341580669
18341586529
18341596355
18341603924
18341608929
18341621868
18341628765
18341637920
18341645428
18341652386
18341657940
18341669414
18341676983
18341685222
18341691570
18341699138
18341705486
18341713665
18341720806
18341727459
18341734661
18341742962
18341752971
18341759258
18341767498
18341772625
18341780376
18341788677
18341793987
18341801982
18341809917
18341817119
18341825237
18341829143
18341839458
18341845439
18341855449
18341862102
18341868511
18341874858
18341881633
18341888591
18341894695
18341903606
18341909953
18341917339
18341924174
18341930583
18341938884
18341944865
18341953532
18341961772
18341969829
18341976176
18341984965
18341990458
18341999675
18342005229
18342014811
18342021342
18342029765
18342035868
18342043193
18342050700
18342060832
18342068095
18342074687
18342082804
18342090617
18342099894
18342107951
18342116068
18342124308
18342129801
18342137797
18342143595
18342151896
18342161295
18342168681
18342175150
18342181498
18342189616
18342194621
18342202311
18342210490
18342216959
18342223246
18342230875
18342238077
18342244608
18342251017
18342258036
18342265299
18342272440
18342279032
18342286722
18342292948
18342299235
18342307718
18342312845
18342321390
18342329264
18342336283
18342343851
18342349283
18342356974
18342364969
18342372721
18342379923
18342387918
18342394693
18342402994
18342407938
18342416727
18342423929
18342432535
18342436868
18342445780
18342451456
18342455850
18342462198
18342469400
18342476602
18342483743
18342491373
18342498331
18342505472
18342512064
18342518838
18342524637
18342532083
18342539224
18342546121
18342552652
18342558694
18342564737
18342571084
18342577859
18342584939
18342589639
18342596048
18342601907
18342608438
18342614724
18342621255
18342628030
18342634256
18342639871
18342650613
18342660379
18342667092
18342674905
18342681619
18342691262
18342699014
18342706094
18342712625
18342718423
18342726113
18342733743
18342739297
18342746621
18342753518
18342760964
18342767251
18342772744
18342778542
18342784951
18342790993
18342796609
18342801736
18342809487
18342815407
18342822793
18342832070
18342836587
18342843362
18342849465
18342855080
18342861306
18342866738
18342874001
18342879677
18342885720
18342891762
18342898049
18342904458
18342912636
18342918862
18342924477
18342929177
18342935769
18342942727
18342949868
18342957802
18342965187
18342972023
18342978127
18342985207
18342991432
18343001137
18343007485
18343014382
18343020729
18343028847
18343034584
18343042763
18343046364
18343054848
18343059242
18343068459
18343074440
18343081337
18343088905
18343093849
18343101051
18343106789
18343112648
18343118446
18343126991
18343133217
18343139809
18343147621
18343152199
18343159523
18343166054
18343173378
18343179359
18343188270
18343191871
18343199867
18343206520
18343212440
18343218666
18343225807
18343233619
18343239418
18343246925
18343260292
18343265541
18343274635
18343283302
18343289588
18343297950
18343304176
18343311378
18343318336
18343325416
18343333778
18343339149
18343346534
18343350440
18343359290
18343365882
18343372962
18343380775
18343385413
18343392432
18343399390
18343405555
18343411292
18343420142
18343427039
18343434424
18343440650
18343446082
18343453162
18343457374
18343465613
18343473365
18343478553
18343485694
18343492103
18343498084
18343503699
18343512061
18343519996
18343525733
18343532630
18343538611
18343546302
18343550513
18343560828
18343567725
18343574256
18343581641
18343587683
18343595801
18343603491
18343609351
18343617163
18343624548
18343628638
18343637000
18343643713
18343650366
18343657080
18343663733
18343671179
18343678137
18343686377
18343691504
18343699683
18343707678
18343714270
18343723425
18343730200
18343739722
18343746435
18343754980
18343763098
18343769934
18343776343
18343784033
18343791113
18343798925
18343805212
18343814245
18343821447
18343829077
18343835546
18343843908
18343851965
18343858129
18343867529
18343874426
18343883886
18343896154
18343904821
18343913061
18343919714
18343927953
18343934789
18343942663
18343952673
18343959936
18343966100
18343977758
18343984838
18343992345
18343998937
18344004919
18344011938
18344018041
18344024755
18344030370
18344036291
18344044713
18344048681
18344055883
18344062597
18344068944
18344074804
18344080175
18344087194
18344093480
18344099218
18344106725
18344113073
18344118139
18344125158
18344132360
18344136327
18344145726
18344152501
18344157384
18344163671
18344170079
18344176488
18344182897
18344189794
18344195287
18344200597
18344206395
18344212621
18344217870
18344224523
18344230016
18344235387
18344241734
18344247716
18344250890
18344258580
18344264806
18344269566
18344276463
18344282445
18344287938
18344295018
18344299596
18344304967
18344310094
18344317357
18344323338
18344330174
18344337010
18344341038
18344348302
18344354161
18344359471
18344366185
18344369969
18344376866
18344384068
18344390172
18344395726
18344401280
18344407505
18344413792
18344422398
18344430577
18344438633
18344446995
18344455967
18344462925
18344471043
18344476902
18344483921
18344493077
18344502903
18344510410
18344516392
18344523716
18344528782
18344536594
18344542332
18344550266
18344560886
18344565403
18344574680
18344581760
18344588230
18344597019
18344604404
18344612095
18344620518
18344626621
18344632786
18344640598
18344648166
18344654514
18344662998
18344667087
18344677402
18344683140
18344688511
18344696506
18344704014
18344709507
18344719089
18344726108
18344732151
18344740268
18344747776
18344754367
18344761875
18344768589
18344775608
18344782199
18344788303
18344795383
18344802341
18344809787
18344817966
18344823032
18344829868
18344838229
18344845737
18344852451
18344862521
18344866000
18344873996
18344881076
18344886874
18344895053
18344903232
18344909152
18344917453
18344924045
18344929233
18344937167
18344946200
18344952243
18344960666
18344967318
18344978427
18344985385
18344992465
18345001010
18345009066
18345017855
18345024142
18345030124
18345040438
18345044711
18345053256
18345062594
18345069003
18345078097
18345083224
18345093539
18345099032
18345105990
18345113619
18345121127
18345128817
18345135348
18345143893
18345151095
18345158785
18345163424
18345173006
18345180636
18345186068
18345193636
18345201083
18345206515
18345213900
18345221651
18345229525
18345236239
18345243624
18345248751
18345255282
18345265474
18345270357
18345279879
18345285799
18345293001
18345299227
18345308809
18345317171
18345324923
18345332003
18345339205
18345346224
18345353731
18345361849
18345369600
18345378267
18345384310
18345392061
18345399324
18345408846
18345416963
18345425203
18345435030
18345441133
18345450411
18345457552
18345465425
18345471284
18345481111
18345489046
18345496736
18345504488
18345510530
18345518465
18345527376
18345535615
18345543184
18345551362
18345557405
18345564119
18345569978
18345577852
18345583772
18345590303
18345595735
18345603730
18345610566
18345616609
18345621431
18345626985
18345632661
18345639497
18345646150
18345651521
18345660066
18345666291
18345673554
18345681062
18345685761
18345694001
18345701081
18345708528
18345714387
18345721894
18345729646
18345734040
18345744599
18345751191
18345757294
18345763459
18345768586
18345774506
18345782807
18345787446
18345791718
18345797883
18345804108
18345809479
18345815217
18345821320
18345827363
18345833039
18345838288
18345843476
18345849457
18345854096
18345861298
18345868500
18345873810
18345879670
18345884125
18345890778
18345897065
18345901825
18345906769
18345912934
18345917389
18345923859
18345930329
18345936127
18345941742
18345946991
18345953644
18345959076
18345965668
18345970001
18345975983
18345981903
18345988556
18345993744
18345999726
18346006378
18346013031
18346019867
18346024323
18346031464
18346037384
18346042755
18346050262
18346055023
18346062347
18346068085
18346075165
18346081634
18346089264
18346096222
18346102936
18346109405
18346115265
18346123321
18346128448
18346136932
18346143341
18346150238
18346157501
18346164032
18346169159
18346175689
18346183563
18346189178
18346195953
18346203216
18346209808
18346217804
18346224395
18346231964
18346237884
18346247283
18346256134
18346261566
18346269866
18346277008
18346283843
18346290557
18346297210
18346304168
18346310699
18346318206
18346323272
18346330657
18346337737
18346344085
18346350066
18346356475
18346362945
18346370574
18346377288
18346383514
18346390472
18346396453
18346403289
18346410186
18346418670
18346426116
18346433135
18346439116
18346445586
18346452666
18346458831
18346465728
18346473723
18346477569
18346486236
18346493316
18346499236
18346506743
18346512420
18346519255
18346524749
18346531890
18346537566
18346545623
18346552458
18346558928
18346567351
18346574065
18346581511
18346589202
18346594634
18346603179
18346612700
18346618865
18346626799
18346634184
18346640715
18346648711
18346657134
18346664336
18346670561
18346678252
18346686186
18346692900
18346700285
18346707976
18346715178
18346722929
18346726897
18346735075
18346741789
18346750395
18346759916
18346766569
18346773161
18346780424
18346787809
18346796660
18346804838
18346813078
18346823881
18346829496
18346840239
18346845426
18346856718
18346867033
18346874174
18346883024
18346892240
18346897245
18346907499
18346913236
18346923368
18346931791
18346939054
18346945890
18346953580
18346962492
18346968961
18346978605
18346986661
18346993742
18346999906
18347008878
18347016630
18347023893
18347030729
18347037687
18347045804
18347052335
18347059842
18347066312
18347075589
18347083341
18347090726
18347097623
18347107633
18347115689
18347124173
18347132169
18347140409
18347149320
18347156827
18347164212
18347170255
18347178311
18347183927
18347193509
18347199063
18347206998
18347212674
18347218900
18347225980
18347231168
18347237576
18347243863
18347251004
18347255887
18347262234
18347267728
18347274014
18347279935
18347285855
18347292081
18347298611
18347305142
18347310086
18347316739
18347323331
18347328885
18347335110
18347341031
18347346402
18347354153
18347359524
18347367703
18347371304
18347378506
18347384427
18347390530
18347394009
18347401394
18347406948
18347412930
18347418301
18347425503
18347432522
18347439053
18347444607
18347449673
18347457730
18347467495
18347472683
18347480374
18347486599
18347493862
18347499539
18347504055
18347511501
18347518520
18347524807
18347530605
18347536831
18347543118
18347548794
18347556057
18347561611
18347567348
18347574306
18347578762
18347585293
18347590969
18347599331
18347605923
18347611904
18347616848
18347624050
18347629177
18347636196
18347641628
18347650356
18347657192
18347664455
18347668422
18347676113
18347684658
18347690822
18347699062
18347707302
18347714809
18347723842
18347730373
18347736232
18347744472
18347750514
18347759365
18347777797
18347782863
18347790798
18347798122
18347805385
18347814235
18347821559
18347827968
18347836452
18347842311
18347849635
18347857326
18347864345
18347872462
18347878810
18347885402
18347892726
18347897487
18347905971
18347913112
18347920009
18347926723
18347934108
18347940455
18347947230
18347956874
18347962855
18347968959
18347976283
18347982447
18347988490
18347995448
18348002528
18348009425
18348015651
18348021693
18348029017
18348037440
18348045191
18348053004
18348059291
18348066615
18348073634
18348078944
18348088160
18348096217
18348102747
18348109767
18348117884
18348123316
18348130213
18348136683
18348143763
18348150965
18348158045
18348166224
18348171473
18348180079
18348186671
18348193690
18348199061
18348206690
18348212855
18348219263
18348226038
18348234278
18348240931
18348247217
18348253992
18348258082
18348267359
18348274805
18348280298
18348288965
18348295252
18348304041
18348311182
18348317774
18348327112
18348332544
18348340601
18348351892
18348359522
18348367884
18348372949
18348382410
18348386926
18348397058
18348405481
18348414026
18348422266
18348429529
18348436792
18348441980
18348451196
18348455469
18348464868
18348472986
18348479639
18348484949
18348494531
18348499048
18348509363
18348513757
18348524316
18348530786
18348538904
18348547265
18348557153
18348566064
18348575219
18348582055
18348589929
18348598779
18348606713
18348615380
18348622277
18348630639
18348638574
18348647302
18348655053
18348664208
18348669641
18348680322
18348688439
18348695275
18348704369
18348710717
18348719384
18348727319
18348735009
18348741296
18348749047
18348758874
18348764245
18348775170
18348780175
18348788293
18348794945
18348801049
18348806908
18348814355
18348820580
18348826989
18348833947
18348840294
18348845116
18348852379
18348859398
18348865990
18348872826
18348879662
18348884728
18348893639
18348900231
18348905907
18348911461
18348917199
18348923607
18348928246
18348935814
18348941307
18348948143
18348953392
18348960839
18348966698
18348973961
18348980370
18348986412
18348991966
18348997826
18349003685
18349009667
18349015038
18349021202
18349028832
18349035362
18349040855
18349045616
18349051414
18349057640
18349063683
18349070213
18349075828
18349081383
18349086632
18349091698
18349096825
18349105369
18349110985
18349117393
18349123741
18349128929
18349134361
18349139610
18349145286
18349150963
18349157982
18349162986
18349169090
18349173423
18349179954
18349184288
18349192527
18349197471
18349203514
18349209800
18349214988
18349221519
18349226768
18349234764
18349239830
18349246055
18349250633
18349259056
18349269554
18349276512
18349286704
18349292869
18349299583
18349306114
18349313255
18349318809
18349325767
18349334312
18349343345
18349348838
18349354881
18349360252
18349368186
18349374351
18349382773
18349388572
18349394736
18349402061
18349409873
18349413352
18349422141
18349426414
18349434531
18349438376
18349446067
18349453513
18349460471
18349466269
18349473288
18349479758
18349486228
18349493186
18349498374
18349505088
18349512168
18349517966
18349525290
18349531333
18349536460
18349542319
18349548850
18349554465
18349561606
18349567160
18349572898
18349580527
18349586875
18349593833
18349600119
18349606711
18349614523
18349622336
18349628439
18349635214
18349641989
18349649008
18349656271
18349661581
18349669394
18349677267
18349682089
18349687887
18349694479
18349701071
18349707602
18349714743
18349721701
18349729635
18349734823
18349741903
18349749045
18349755697
18349761374
18349769125
18349774618
18349782553
18349786032
18349793966
18349799337
18349806784
18349812765
18349819357
18349827536
18349834188
18349841024
18349846517
18349854635
18349860067
18349869955
18349875936
18349891744
18349897848
18349909872
18349917257
18349923116
18349931844
18349936178
18349945638
18349956380
18349963583
18349970663
18349978353
18349983724
18349991231
18349998373
18350004659
18350009847
18350017599
18350025289
18350031331
18350038900
18350044271
18350050618
18350059408
18350065999
18350072774
18350079732
18350087606
18350093648
18350100606
18350107381
18350114644
18350120565
18350126973
18350133199
18350140645
18350146565
18350153462
18350159261
18350166219
18350171956
18350179280
18350185994
18350194051
18350199971
18350208150
18350217122
18350225606
18350234029
18350242451
18350251302
18350257344
18350265523
18350273579
18350281453
18350287923
18350296773
18350303853
18350312947
18350319356
18350328450
18350336323
18350344319
18350349080
18350360005
18350368062
18350375630
18350383381
18350391133
18350398152
18350405903
18350413960
18350421589
18350427998
18350435139
18350441609
18350446064
18350452778
18350459065
18350464558
18350471455
18350478230
18350482990
18350489765
18350496113
18350502339
18350507832
18350513691
18350520222
18350526630
18350531574
18350537861
18350544453
18350549335
18350558613
18350564716
18350572468
18350578815
18350584614
18350591328
18350596882
18350602192
18350609028
18350616413
18350621723
18350630207
18350634845
18350641865
18350646808
18350653339
18350660419
18350665912
18350670917
18350676166
18350682575
18350688800
18350693927
18350701740
18350707294
18350710529
18350718647
18350724018
18350729267
18350734333
18350740253
18350747028
18350751361
18350758136
18350763446
18350769916
18350774738
18350780536
18350788043
18350792804
18350799274
18350804279
18350810260
18350813312
18350821307
18350828326
18350834430
18350839252
18350844867
18350851276
18350855792
18350863788
18350870685
18350876483
18350882526
18350888507
18350894855
18350899493
18350906512
18350914264
18350919940
18350926349
18350932391
18350938739
18350943866
18350951739
18350959613
18350965960
18350972003
18350978106
18350984332
18350990863
18350997882
18351003375
18351010882
18351018023
18351024066
18351030596
18351036456
18351043780
18351048297
18351055987
18351062884
18351069415
18351074542
18351081317
18351089007
18351096270
18351102557
18351109881
18351116656
18351123431
18351129717
18351137774
18351144244
18351152605
18351158892
18351166460
18351171282
18351177996
18351185564
18351192034
18351201067
18351207415
18351214678
18351220781
18351226763
18351233233
18351239092
18351245684
18351254107
18351258013
18351266375
18351272295
18351278032
18351285601
18351292925
18351298540
18351303545
18351310686
18351318499
18351324419
18351330156
18351336504
18351344622
18351350420
18351356829
18351363542
18351371172
18351374590
18351383196
18351392595
18351397295
18351404924
18351411272
18351417741
18351422807
18351431657
18351438310
18351446245
18351451128
18351457170
18351464494
18351470842
18351477678
18351483415
18351491472
18351497758
18351505754
18351513444
18351520402
18351526628
18351534746
18351543657
18351549577
18351559037
18351564470
18351571916
18351579545
18351586625
18351593156
18351602006
18351607743
18351615312
18351621232
18351630021
18351636125
18351644609
18351652116
18351659684
18351668473
18351674211
18351681718
18351688798
18351696732
18351702409
18351712663
18351721696
18351729142
18351736954
18351745255
18351751908
18351759965
18351769913
18351776932
18351783707
18351792008
18351798112
18351808121
18351813187
18351823990
18351830887
18351837845
18351844742
18351851395
18351857865
18351865189
18351871598
18351879288
18351887467
18351891373
18351899735
18351908097
18351915177
18351921402
18351928849
18351938065
18351943924
18351951920
18351959671
18351966629
18351972428
18351980301
18351986588
18351995316
18352001419
18352010941
18352017777
18352025040
18352029373
18352038223
18352048233
18352055618
18352062149
18352068741
18352074417
18352081436
18352088272
18352095535
18352102615
18352107498
18352113235
18352119461
18352125076
18352130020
18352136429
18352142166
18352150039
18352155960
18352161758
18352167251
18352174331
18352180191
18352184951
18352192092
18352198623
18352204666
18352209243
18352215774
18352220657
18352228347
18352234695
18352240798
18352247024
18352252822
18352257644
18352263442
18352269607
18352275710
18352283401
18352288589
18352295303
18352300124
18352306594
18352311477
18352319228
18352325393
18352331496
18352337783
18352342055
18352348647
18352354629
18352360610
18352368484
18352375259
18352379836
18352387588
18352393386
18352399245
18352405837
18352411269
18352418899
18352423659
18352430251
18352435622
18352440749
18352446669
18352456313
18352462233
18352468276
18352473403
18352477858
18352483779
18352490309
18352496047
18352501723
18352507338
18352514418
18352520461
18352525832
18352530837
18352537856
18352543288
18352550368
18352556044
18352561843
18352567092
18352572890
18352579787
18352584853
18352592665
18352598952
18352604872
18352611281
18352617384
18352623488
18352631300
18352637343
18352642531
18352649611
18352654799
18352662794
18352668410
18352675429
18352682692
18352687330
18352694105
18352700636
18352709425
18352714247
18352722304
18352729384
18352736647
18352742201
18352748060
18352755812
18352759962
18352767775
18352772902
18352779676
18352786940
18352793226
18352799574
18352805616
18352812696
18352819166
18352825025
18352830763
18352837538
18352844068
18352850660
18352856092
18352864210
18352871900
18352878065
18352884107
18352890394
18352897108
18352901624
18352909681
18352915418
18352922803
18352930067
18352935987
18352943189
18352949415
18352956983
18352965223
18352971754
18352977125
18352983961
18352990613
18352998731
18353004346
18353011304
18353019727
18353026685
18353034620
18353039441
18353046155
18353053418
18353060682
18353067395
18353075330
18353081250
18353087903
18353093640
18353100110
18353105725
18353113111
18353120679
18353124158
18353134168
18353139722
18353145642
18353151929
18353158582
18353165051
18353171643
18353178906
18353185437
18353191419
18353197949
18353205518
18353213330
18353218579
18353226453
18353234143
18353240369
18353247937
18353253735
18353265149
18353272839
18353277234
18353286511
18353293530
18353300915
18353309094
18353316968
18353324231
18353331677
18353339734
18353345166
18353353100
18353358593
18353366772
18353376110
18353383313
18353391796
18353398693
18353413464
18353420666
18353427319
18353434826
18353442700
18353452038
18353459423
18353467358
18353474743
18353483105
18353490734
18353499401
18353507702
18353515759
18353523144
18353531078
18353537365
18353544994
18353553173
18353559215
18353569225
18353575695
18353583385
18353591320
18353599438
18353607067
18353613292
18353622326
18353632152
18353638622
18353647716
18353656322
18353664257
18353672191
18353679454
18353688060
18353696910
18353706127
18353712718
18353721080
18353728588
18353733959
18353742381
18353751781
18353757945
18353763866
18353770824
18353777538
18353782726
18353787425
18353794994
18353801402
18353807201
18353813182
18353818919
18353824474
18353830272
18353835582
18353842296
18353850413
18353856090
18353863231
18353868358
18353875499
18353881785
18353888316
18353895152
18353901256
18353907786
18353912669
18353920299
18353926890
18353932322
18353937816
18353945079
18353951915
18353957713
18353963511
18353969371
18353974192
18353980540
18353987925
18353994883
18354000804
18354006419
18354014048
18354019602
18354026927
18354032420
18354039378
18354046214
18354051341
18354058665
18354063853
18354071848
18354078318
18354083994
18354089610
18354095591
18354101878
18354106882
18354116038
18354122507
18354128428
18354133311
18354140330
18354146311
18354152232
18354157542
18354164011
18354171396
18354176035
18354182749
18354188853
18354195261
18354202646
18354208079
18354214670
18354221445
18354228525
18354235178
18354242502
18354251169
18354258493
18354264231
18354270395
18354277170
18354284128
18354289804
18354296274
18354303720
18354310312
18354317331
18354323496
18354331003
18354337839
18354342905
18354350351
18354356149
18354362375
18354368784
18354376352
18354382211
18354388864
18354394663
18354402048
18354409433
18354415170
18354421945
18354428171
18354433908
18354440866
18354445810
18354452951
18354459421
18354465158
18354472055
18354479989
18354483652
18354491525
18354500009
18354506112
18354512338
18354517038
18354525094
18354529489
18354537240
18354543649
18354550485
18354557748
18354563791
18354570138
18354576425
18354582040
18354588266
18354596017
18354600961
18354607858
18354614816
18354621224
18354627328
18354633492
18354639413
18354645150
18354651681
18354657601
18354664376
18354670968
18354677499
18354682931
18354690682
18354696481
18354702767
18354709115
18354716317
18354722482
18354729684
18354735726
18354742318
18354748360
18354753243
18354760750
18354765633
18354774850
18354781197
18354788277
18354794259
18354801156
18354809823
18354815499
18354823983
18354831551
18354839119
18354845528
18354854073
18354860665
18354868294
18354878609
18354887032
18354900215
18354909798
18354919136
18354927315
18354936592
18354946541
18354955452
18354968392
18354980110
18354989754
18354998299
18355007698
18355018745
18355028267
18355037727
18355049812
18355059334
18355069038
18355078926
18355088142
18355099434
18355108955
18355118232
18355129585
18355140083
18355149788
18355158943
18355169014
18355177620
18355189399
18355195014
18355208869
18355218025
18355228279
18355237800
18355245674
18355255988
18355263801
18355275214
18355284797
18355294379
18355304755
18355314887
18355324226
18355335212
18355345161
18355350654
18355363593
18355372932
18355382575
18355393256
18355403510
18355413398
18355422431
18355432685
18355443366
18355452948
18355462714
18355471991
18355483222
18355491034
18355506354
18355515814
18355526251
18355534674
18355544440
18355556037
18355566046
18355575079
18355583136
18355593817
18355601508
18355612799
18355618231
18355630743
18355640448
18355647833
18355658087
18355668158
18355676825
18355687811
18355697210
18355705877
18355718329
18355727484
18355742804
18355751532
18355760382
18355770147
18355779913
18355786932
18355799017
18355804571
18355816961
18355825384
18355837164
18355850408
18355858221
18355867254
18355876226
18355885259
18355894292
18355904546
18355915044
18355926336
18355935369
18355943731
18355952703
18355963140
18355972234
18355982061
18355991033
18356000738
18356009649
18356019414
18356028203
18356038213
18356045903
18356057622
18356065679
18356076177
18356084722
18356094609
18356105657
18356114629
18356122685
18356132390
18356142095
18356150762
18356159306
18356169194
18356178288
18356186467
18356194951
18356204106
18356212773
18356223820
18356230656
18356240849
18356248112
18356260564
18356269963
18356279240
18356288457
18356298039
18356309636
18356317692
18356329899
18356338871
18356350285
18356358769
18356367680
18356379704
18356390141
18356400028
18356406742
18356413700
18356419499
18356427067
18356434086
18356438358
18356445622
18356452580
18356458744
18356465336
18356471806
18356476872
18356484135
18356491154
18356498478
18356504642
18356512638
18356518497
18356526005
18356532413
18356539616
18356546451
18356551517
18356559330
18356566471
18356572635
18356578800
18356584720
18356592472
18356598758
18356606876
18356610538
18356620121
18356626651
18356632450
18356639774
18356644596
18356652286
18356658878
18356664310
18356671878
18356679447
18356686222
18356692874
18356701053
18356706180
18356713077
18356719913
18356727054
18356732730
18356742130
18356748660
18356755435
18356762698
18356770511
18356777469
18356782474
18356788638
18356797366
18356805545
18356813541
18356819705
18356827090
18356833926
18356842288
18356849185
18356856143
18356864139
18356870303
18356877444
18356885989
18356891971
18356900210
18356908999
18356915042
18356925296
18356932071
18356939578
18356945071
18356953677
18356958987
18356967898
18356974185
18356982791
18356989443
18356996096
18357003543
18357010501
18357018984
18357027773
18357034915
18357041262
18357050784
18357058108
18357065005
18357072939
18357081118
18357089663
18357096377
18357104617
18357113467
18357119753
18357129275
18357137697
18357145693
18357151858
18357160036
18357167055
18357176577
18357183840
18357193117
18357202334
18357208254
18357214724
18357221926
18357229555
18357234926
18357243898
18357252382
18357259706
18357265322
18357274050
18357281557
18357288881
18357296144
18357305666
18357313173
18357320864
18357328493
18357336855
18357343385
18357351259
18357359682
18357366274
18357375490
18357381471
18357390321
18357394655
18357404543
18357414125
18357419496
18357427797
18357435243
18357442201
18357447572
18357455263
18357463930
18357471864
18357479432
18357484132
18357491700
18357496827
18357504091
18357510865
18357517701
18357523072
18357529237
18357534791
18357540834
18357545839
18357553651
18357559327
18357562684
18357572511
18357578248
18357584352
18357589845
18357597230
18357603700
18357609376
18357614503
18357620973
18357625367
18357632569
18357639466
18357648438
18357653748
18357658448
18357666139
18357671204
18357677430
18357685792
18357693177
18357700318
18357704102
18357712159
18357717957
18357724671
18357732850
18357738282
18357746705
18357754212
18357759644
18357766724
18357773621
18357779297
18357784791
18357791016
18357796937
18357803223
18357809510
18357815369
18357821412
18357832276
18357836243
18357843201
18357849060
18357855408
18357862061
18357867493
18357874207
18357881043
18357887879
18357892823
18357900513
18357906372
18357914063
18357919556
18357925476
18357931275
18357939575
18357945862
18357950317
18357957398
18357962463
18357969177
18357973267
18357982056
18357987671
18357993774
18358000549
18358006165
18358012512
18358019287
18358026794
18358034058
18358039429
18358047851
18358054138
18358060974
18358066711
18358075256
18358080932
18358087402
18358093445
18358100036
18358105652
18358114441
18358121399
18358126281
18358133728
18358141174
18358146606
18358153930
18358160339
18358166442
18358173889
18358181213
18358185363
18358192810
18358199218
18358207031
18358213256
18358219360
18358225829
18358233459
18358240478
18358245971
18358254028
18358260925
18358267211
18358273742
18358279845
18358286254
18358292785
18358301147
18358306152
18358316955
18358325866
18358333251
18358340270
18358346190
18358354491
18358361876
18358369079
18358377196
18358382628
18358390746
18358397948
18358405089
18358416015
18358422484
18358428832
18358436034
18358441405
18358448973
18358454467
18358462645
18358470336
18358476805
18358484130
18358491149
18358498046
18358503844
18358510314
18358516173
18358523741
18358527648
18358535460
18358541441
18358547728
18358551573
18358559447
18358566283
18358573302
18358580077
18358587096
18358592467
18358599425
18358605833
18358613585
18358620177
18358625853
18358633055
18358640745
18358647886
18358653990
18358660765
18358667906
18358675841
18358682799
18358688475
18358695372
18358700804
18358707518
18358714598
18358722410
18358729673
18358734922
18358740904
18358747618
18358754087
18358761717
18358768186
18358776121
18358782896
18358791380
18358800047
18358806455
18358814695
18358822325
18358829405
18358837949
18358847166
18358855405
18358861814
18358871336
18358878355
18358886777
18358891416
18358901792
18358906431
18358916440
18358921201
18358931394
18358939329
18358945798
18358953000
18358962278
18358969663
18358977659
18358984495
18358992063
18358999692
18359009031
18359015012
18359023679
18359032956
18359040158
18359049131
18359055905
18359061765
18359071164
18359077756
18359085507
18359093381
18359100156
18359107480
18359113461
18359121030
18359126950
18359133603
18359141110
18359147580
18359154660
18359160397
18359168149
18359174619
18359182065
18359187741
18359195859
18359202695
18359208676
18359214902
18359221127
18359227536
18359233700
18359239621
18359246213
18359252865
18359259457
18359265378
18359272336
18359278256
18359284787
18359291256
18359299862
18359305539
18359312130
18359317074
18359323727
18359330685
18359336422
18359343014
18359349789
18359356137
18359363034
18359369259
18359373532
18359382931
18359388668
18359396420
18359403195
18359406429
18359415157
18359419125
18359427426
18359432675
18359439266
18359444515
18359450741
18359457455
18359462215
18359468746
18359474300
18359482845
18359488644
18359493771
18359500545
18359507564
18359512142
18359519283
18359526607
18359531124
18359538631
18359544735
18359550655
18359558529
18359564937
18359570980
18359577450
18359585567
18359591732
18359597225
18359607296
18359719356
18359727840
18359735286
18359743038
18359749873
18359755672
18359762996
18359770930
18359776668
18359786250
18359793208
18359798457
18359806575
18359815181
18359823054
18359830195
18359834041
18359842525
18359849544
18359856502
18359863154
18359871699
18359877253
18359884517
18359891414
18359897029
18359904414
18359910762
18359918452
18359926753
18359931575
18359938838
18359944941
18359952265
18359960139
18359965083
18359972468
18359980281
18359986506
18359992793
18360001399
18360007441
18360014887
18360020442
18360029109
18360034541
18360040583
18360050776
18360057551
18360066523
18360074763
18360080073
18360088923
18360096918
18360103693
18360109919
18360117243
18360122736
18360129084
18360135554
18360143671
18360149836
18360157831
18360165522
18360171442
18360178827
18360185358
18360193598
18360199701
18360206232
18360215448
18360219782
18360229975
18360238459
18360246027
18360252619
18360259760
18360267816
18360274835
18360285272
18360292475
18360299433
18360307672
18360313654
18360325433
18360332452
18360340570
18360349909
18360358759
18360366876
18360374811
18360380670
18360390558
18360399530
18360407342
18360414850
18360424066
18360430108
18360440484
18360449823
18360457574
18360462945
18360472711
18360479852
18360487665
18360496087
18360504388
18360512628
18360520990
18360527581
18360533929
18360543267
18360550775
18360559320
18360566522
18360573419
18360580926
18360588555
18360595086
18360602899
18360609185
18360616387
18360621209
18360628289
18360635003
18360640618
18360646478
18360653619
18360659234
18360664727
18360672356
18360677789
18360684258
18360690667
18360698479
18360705743
18360712640
18360719598
18360726800
18360732415
18360738091
18360744866
18360751153
18360757195
18360765435
18360771904
18360777520
18360784295
18360791497
18360799492
18360805657
18360811638
18360817681
18360824883
18360830620
18360836541
18360841851
18360848687
18360855522
18360860955
18360866082
18360873589
18360878899
18360884392
18360889946
18360896721
18360901238
18360908257
18360914116
18360919304
18360926689
18360931816
18360937248
18360944145
18360949089
18360957939
18360963554
18360968437
18360974724
18360980278
18360986381
18360991447
18360998283
18361004936
18361011894
18361017082
18361023308
18361029228
18361036186
18361042290
18361048088
18361055046
18361060356
18361069328
18361077446
18361084404
18361092460
18361100090
18361107170
18361113456
18361121025
18361127616
18361134330
18361142082
18361148979
18361156181
18361163017
18361170158
18361176933
18361183464
18361190421
18361196281
18361203422
18361210380
18361216972
18361224845
18361230216
18361238883
18361247062
18361255058
18361262199
18361269584
18361275016
18361280753
18361289237
18361296195
18361301200
18361310172
18361316154
18361327323
18361333426
18361341300
18361349296
18361356742
18361363883
18361370414
18361378287
18361385306
18361391715
18361398978
18361404776
18361413382
18361420401
18361426993
18361433463
18361441703
18361446707
18361454154
18361461356
18361468192
18361475089
18361481742
18361487418
18361495108
18361502982
18361509574
18361517081
18361523856
18361531058
18361538138
18361543936
18361550894
18361557547
18361565848
18361572134
18361578970
18361587088
18361593924
18361602103
18361609366
18361617972
18361625601
18361632071
18361639456
18361649649
18361655264
18361663809
18361671988
18361680533
18361688406
18361696829
18361703238
18361709524
18361717947
18361725088
18361733450
18361740835
18361750784
18361756033
18361762930
18361771658
18361781423
18361787588
18361797659
18361804556
18361813406
18361819326
18361830496
18361843557
18361848135
18361859548
18361869131
18361878286
18361887746
18361896841
18361904897
18361913076
18361919912
18361931753
18361940542
18361949270
18361958364
18361965505
18361973378
18361979177
18361987294
18361995351
18362003408
18362012563
18362020864
18362029287
18362036428
18362043752
18362052541
18362059316
18362069020
18362076406
18362085439
18362091847
18362100942
18362111257
18362119130
18362124257
18362134023
18362139027
18362148122
18362152699
18362164357
18362168874
18362177541
18362182484
18362193166
18362200368
18362206532
18362212025
18362219838
18362226796
18362230763
18362238698
18362243825
18362249989
18362256459
18362261708
18362268849
18362275685
18362282521
18362288624
18362295094
18362298756
18362306263
18362312794
18362318653
18362326161
18362331471
18362336537
18362342823
18362349415
18362354115
18362363087
18362369740
18362375965
18362381703
18362388172
18362394337
18362398487
18362405750
18362411244
18362418263
18362424244
18362430775
18362436634
18362442188
18362448658
18362454029
18362461048
18362468494
18362476368
18362484669
18362495106
18362502857
18362510242
18362516712
18362523670
18362530445
18362536609
18362542469
18362547779
18362554554
18362563160
18362570362
18362576221
18362582630
18362589588
18362595447
18362602222
18362608265
18362614734
18362621753
18362627002
18362631824
18362639270
18362643421
18362651172
18362656726
18362663501
18362669727
18362674304
18362681018
18362687854
