13250398940
13250403823
13250408827
13250414565
13250419692
13250424147
13250429640
13250435133
13250440016
13250445876
13250450514
13250455946
13250461440
13250467604
13250473097
13250479079
13250483961
13250490553
13250497267
13250502333
13250507338
13250514418
13250520521
13250528700
13250535536
13250542006
13250549086
13250554335
13250561354
13250567335
13250574537
13250581251
13250587782
13250594496
13250600172
13250606581
13250611769
13250618422
13250624586
13250630568
13250637037
13250642652
13250649794
13250657179
13250663343
13250669142
13250675428
13250680067
13250685194
13250690504
13250696852
13250702467
13250709852
13250716566
13250722547
13250729261
13250735914
13250741163
13250747572
13250754652
13250760267
13250767225
13250774366
13250780775
13250788282
13250795362
13250800733
13250808546
13250814161
13250818677
13250823194
13250827955
13250832593
13250836255
13250841260
13250846021
13250850721
13250855054
13250858961
13250864148
13250869275
13250873304
13250876966
13250882703
13250886854
13250891431
13250895215
13250901380
13250906873
13250910474
13250915357
13250919324
13250924024
13250929273
13250932874
13250939222
13250945203
13250950879
13250955518
13250960279
13250965650
13250971265
13250975354
13250980969
13250985120
13250989820
13250994580
13250999280
13251004102
13251009473
13251015759
13251021069
13251028577
13251034680
13251041394
13251049878
13251057080
13251063916
13251069287
13251076367
13251081250
13251088025
13251095654
13251101331
13251106946
13251113538
13251119275
13251125806
13251132886
13251138318
13251143872
13251151318
13251156506
13251162182
13251167553
13251173718
13251179760
13251184338
13251189648
13251194775
13251197888
13251202527
13251207776
13251211132
13251218029
13251222607
13251230053
13251235241
13251240918
13251246289
13251252270
13251257641
13251263012
13251268322
13251274121
13251278759
13251284619
13251289318
13251294628
13251299511
13251303906
13251308422
13251313366
13251317761
13251321484
13251326428
13251331921
13251336437
13251341930
13251345409
13251350475
13251353893
13251359814
13251364941
13251368847
13251374584
13251380566
13251385815
13251390331
13251396313
13251401073
13251406811
13251411144
13251418163
13251425060
13251432079
13251437939
13251446361
13251451916
13251457592
13251466930
13251472973
13251481640
13251490001
13251496166
13251503917
13251510509
13251517528
13251525341
13251533092
13251541332
13251547435
13251555675
13251562633
13251568492
13251576183
13251583629
13251591808
13251601146
13251608531
13251616039
13251623973
13251629955
13251634166
13251640575
13251646129
13251654979
13251660411
13251666942
13251672374
13251678050
13251684215
13251689403
13251695995
13251702525
13251709117
13251715221
13251719188
13251724742
13251730540
13251734080
13251741771
13251747630
13251752208
13251758067
13251764781
13251769603
13251774791
13251781993
13251787852
13251792735
13251798411
13251804576
13251810740
13251818797
13251823741
13251833934
13251839854
13251846019
13251851695
13251856639
13251862681
13251868846
13251872142
13251879649
13251885203
13251889659
13251896250
13251901377
13251908335
13251916331
13251923899
13251931162
13251939890
13251944651
13251954356
13251961375
13251968455
13251975413
13251983103
13251990305
13251998057
13252004832
13252010386
13252018137
13252023997
13252030344
13252038584
13252046396
13252054026
13252061228
13252066660
13252073313
13252081797
13252087290
13252093454
13252100290
13252105051
13252111521
13252116159
13252121531
13252128244
13252132883
13252138193
13252143686
13252148996
13252155039
13252159983
13252167307
13252172861
13252180918
13252187082
13252194345
13252199045
13252204599
13252210459
13252215585
13252220468
13252227121
13252233896
13252239023
13252244577
13252249948
13252254465
13252258859
13252264658
13252272653
13252277414
13252282480
13252287424
13252292429
13252297555
13252301889
13252308847
13252314096
13252319833
13252324838
13252329721
13252334726
13252340097
13252345163
13252349862
13252357370
13252363962
13252370675
13252376840
13252384225
13252392892
13252400399
13252408273
13252416024
13252423410
13252431466
13252439645
13252446664
13252456124
13252465402
13252473275
13252482247
13252489511
13252498300
13252504220
13252510323
13252519113
13252525948
13252533273
13252540536
13252547006
13252552987
13252562020
13252566659
13252571481
13252576669
13252583749
13252589974
13252596383
13252601937
13252606515
13252612496
13252617013
13252622628
13252630196
13252637032
13252642281
13252647713
13252653328
13252657418
13252662606
13252668587
13252675545
13252680489
13252686715
13252691781
13252697823
13252702645
13252708809
13252717415
13252722481
13252727913
13252733040
13252739510
13252743904
13252750313
13252755745
13252762459
13252767220
13252773323
13252778572
13252784371
13252789803
13252797066
13252802681
13252806954
13252812447
13252817757
13252823128
13252830269
13252838753
13252845894
13252854439
13252865120
13252871407
13252880196
13252888496
13252896492
13252904243
13252911507
13252922859
13252930610
13252938118
13252944649
13252952949
13252960029
13252966499
13252976814
13252984871
13252993660
13253001228
13253008064
13253015571
13253022651
13253030525
13253038642
13253044319
13253050178
13253056343
13253064399
13253069587
13253076545
13253081489
13253088020
13253096259
13253103645
13253110481
13253116218
13253121589
13253126411
13253132636
13253138496
13253144355
13253150031
13253153022
13253158149
13253163154
13253168586
13253174934
13253180366
13253186225
13253190253
13253196174
13253200690
13253206672
13253211799
13253216865
13253223640
13253228889
13253234321
13253239631
13253244147
13253247565
13253255134
13253261115
13253267096
13253273993
13253278937
13253284980
13253290717
13253294806
13253302069
13253307868
13253313666
13253319770
13253324713
13253332526
13253340583
13253347907
13253354560
13253362433
13253369879
13253377814
13253386298
13253393744
13253399603
13253406134
13253414557
13253420538
13253429083
13253438422
13253446112
13253452094
13253457648
13253468024
13253473822
13253483343
13253488959
13253497931
13253505682
13253512945
13253520453
13253526190
13253531256
13253535650
13253540777
13253547369
13253553229
13253559942
13253561957
13253569586
13253574286
13253578314
13253582464
13253590826
13253597601
13253602789
13253607122
13253611639
13253617926
13253623175
13253628668
13253635626
13253642034
13253646002
13253652166
13253658697
13253663153
13253669195
13253675360
13253681646
13253689276
13253694219
13253701544
13253706915
13253714910
13253721868
13253728399
13253735540
13253742681
13253748785
13253752996
13253758001
13253763677
13253768316
13253773138
13253778020
13253784917
13253788702
13253794744
13253798650
13253806402
13253813177
13253820440
13253826055
13253836248
13253842168
13253851384
13253858770
13253865117
13253873357
13253881353
13253889531
13253896367
13253903753
13253910833
13253918096
13253924993
13253933599
13253939885
13253949163
13253956670
13253962468
13253970098
13253977849
13253983037
13253990849
13253998723
13254003789
13254010320
13254015752
13254021001
13254025334
13254030400
13254034489
13254040227
13254045598
13254051946
13254056340
13254063481
13254068425
13254072209
13254075688
13254082463
13254088505
13254093571
13254100835
13254106267
13254111638
13254116460
13254121098
13254125249
13254133000
13254136357
13254141911
13254149052
13254153996
13254160222
13254165898
13254172001
13254176762
13254182744
13254187321
13254193669
13254196843
13254204289
13254209843
13254215519
13254221379
13254227665
13254233586
13254239445
13254245365
13254251103
13254257633
13254266484
13254272465
13254280155
13254288395
13254296024
13254303776
13254310795
13254321964
13254329655
13254337956
13254344120
13254350895
13254359684
13254366642
13254375187
13254382450
13254390873
13254397282
13254405643
13254411686
13254419864
13254427494
13254433048
13254442386
13254450931
13254457279
13254464786
13254471622
13254475895
13254483524
13254487857
13254494388
13254498417
13254504459
13254511661
13254516300
13254521366
13254525638
13254531986
13254539066
13254547245
13254553165
13254558963
13254565006
13254570377
13254576419
13254583011
13254589298
13254594913
13254601016
13254607181
13254611087
13254616519
13254621707
13254627200
13254633853
13254640689
13254645450
13254652164
13254656314
13254662173
13254667300
13254673648
13254680911
13254686526
13254691165
13254696231
13254702884
13254709109
13254715396
13254721683
13254726565
13254731936
13254737063
13254742434
13254749270
13254756656
13254764224
13254772036
13254779361
13254786807
13254794192
13254802249
13254808718
13254815310
13254824404
13254832156
13254842105
13254848880
13254855960
13254863589
13254871462
13254877444
13254886538
13254894412
13254903994
13254910586
13254918704
13254925539
13254932070
13254942324
13254948367
13254955874
13254963686
13254971377
13254976321
13254983340
13254990053
13254996401
13255002749
13255010500
13255017641
13255024416
13255030581
13255035769
13255041262
13255045962
13255051882
13255058230
13255064272
13255069277
13255072756
13255079165
13255085085
13255090212
13255095644
13255101809
13255107180
13255113955
13255120058
13255125917
13255130556
13255135256
13255143251
13255148073
13255155336
13255159731
13255165224
13255171144
13255176882
13255181032
13255187746
13255192995
13255199404
13255205324
13255211672
13255216310
13255222475
13255227724
13255234682
13255239992
13255246034
13255250978
13255257204
13255265016
13255271242
13255278261
13255285280
13255294313
13255299379
13255309022
13255317323
13255325929
13255333009
13255339357
13255346132
13255355592
13255362245
13255370179
13255377321
13255385560
13255393739
13255401612
13255407899
13255416261
13255424012
13255430848
13255437196
13255446778
13255454469
13255460755
13255468995
13255473939
13255480653
13255485841
13255492677
13255497559
13255504273
13255507691
13255514100
13255518922
13255523560
13255528321
13255534119
13255539613
13255544434
13255549134
13255555909
13255561646
13255566651
13255571717
13255577943
13255584229
13255589722
13255595215
13255601014
13255605408
13255612549
13255619263
13255627564
13255633179
13255642090
13255648438
13255653321
13255658692
13255665406
13255670227
13255677185
13255682190
13255688599
13255693177
13255699952
13255704651
13255710144
13255715454
13255720581
13255726929
13255730957
13255737671
13255743164
13255747315
13255752320
13255760376
13255765442
13255775208
13255781433
13255791321
13255796997
13255805786
13255813843
13255820435
13255827698
13255835022
13255842773
13255851379
13255858826
13255865601
13255872314
13255880920
13255887451
13255896179
13255903869
13255911560
13255920471
13255926819
13255932861
13255941223
13255947082
13255954162
13255960632
13255964721
13255971801
13255976257
13255981872
13255985717
13255991333
13255996521
13256001953
13256008483
13256013122
13256019043
13256024169
13256028625
13256033142
13256040832
13256046203
13256052307
13256056274
13256061218
13256066589
13256071105
13256077697
13256083007
13256088744
13256095336
13256100158
13256104736
13256110656
13256115173
13256121398
13256126952
13256133544
13256138793
13256144347
13256150329
13256155700
13256160583
13256166259
13256173034
13256180297
13256187682
13256196410
13256203918
13256211242
13256216735
13256222472
13256229003
13256235351
13256241637
13256247619
13256253966
13256260558
13256268493
13256275328
13256282653
13256289183
13256295836
13256302306
13256308715
13256315184
13256322448
13256330443
13256336852
13256343383
13256350035
13256354735
13256362609
13256367186
13256375243
13256383849
13256389281
13256394225
13256403258
13256411009
13256416075
13256420165
13256427550
13256433165
13256437376
13256441100
13256445738
13256450865
13256457030
13256462950
13256468138
13256472838
13256477904
13256482420
13256489012
13256494017
13256498411
13256504393
13256511412
13256515318
13256520689
13256526304
13256530028
13256535338
13256541502
13256547667
13256552183
13256556822
13256561033
13256567137
13256571898
13256579100
13256583433
13256590574
13256596556
13256601072
13256606749
13256612303
13256618101
13256625303
13256632017
13256636228
13256641966
13256647764
13256653074
13256657713
13256662412
13256672361
13256679563
13256685789
13256694334
13256701353
13256709776
13256717222
13256724729
13256735715
13256741697
13256751096
13256756712
13256766782
13256772947
13256781980
13256789487
13256796506
13256804258
13256812681
13256820127
13256826719
13256833799
13256841489
13256848874
13256856504
13256864133
13256874265
13256880613
13256887326
13256892759
13256899594
13256905820
13256913327
13256920529
13256925840
13256930417
13256935910
13256942868
13256947324
13256954404
13256958554
13256964719
13256971311
13256976987
13256982541
13256987973
13256994138
13256999753
13257005307
13257010129
13257019162
13257023923
13257028928
13257034604
13257040036
13257046201
13257051144
13257057187
13257063229
13257069943
13257075803
13257079526
13257087338
13257091611
13257098080
13257102292
13257110531
13257117123
13257121823
13257129452
13257135006
13257142453
13257149960
13257156369
13257162106
13257167965
13257174069
13257179562
13257185421
13257191403
13257200924
13257208432
13257216549
13257224789
13257232418
13257239010
13257246823
13257253353
13257261837
13257268917
13257273678
13257284481
13257292843
13257298702
13257307186
13257313656
13257321346
13257330318
13257335873
13257346188
13257355099
13257362606
13257370174
13257377254
13257385372
13257391720
13257396480
13257402218
13257407528
13257413326
13257418453
13257423885
13257429012
13257433407
13257438472
13257444820
13257452694
13257457760
13257461300
13257469417
13257475277
13257479976
13257484798
13257493282
13257499874
13257505794
13257510982
13257518123
13257522579
13257531063
13257535945
13257543209
13257550594
13257555477
13257561763
13257566219
13257572688
13257577449
13257583003
13257588313
13257594173
13257600765
13257604976
13257611995
13257616206
13257622066
13257627071
13257631343
13257637935
13257642696
13257647823
13257653804
13257660091
13257664363
13257669307
13257674678
13257685603
13257693660
13257698543
13257707820
13257715022
13257722835
13257728999
13257735530
13257746089
13257752314
13257762324
13257767817
13257776301
13257783625
13257790583
13257798396
13257806391
13257814997
13257822993
13257830561
13257837886
13257845698
13257853144
13257859614
13257868098
13257876582
13257884944
13257890131
13257897456
13257902400
13257907710
13257912837
13257919123
13257926325
13257931086
13257936030
13257940241
13257945246
13257950861
13257954462
13257961298
13257967036
13257971979
13257978327
13257982294
13257988398
13257992304
13257997858
13258004511
13258010370
13258015314
13258020441
13258025751
13258030634
13258035273
13258042231
13258048395
13258055353
13258059809
13258066523
13258072382
13258076715
13258081781
13258088312
13258092218
13258099909
13258103754
13258109186
13258116327
13258123041
13258127680
13258134882
13258142755
13258150690
13258155512
13258162409
13258170099
13258178217
13258186701
13258192011
13258202203
13258209467
13258216608
13258224237
13258230768
13258237665
13258246637
13258251703
13258259820
13258267267
13258276117
13258284234
13258290216
13258297723
13258305536
13258310541
13258319085
13258326104
13258333978
13258341058
13258350091
13258356805
13258363824
13258368219
13258375299
13258380120
13258387750
13258396478
13258401361
13258409417
13258414300
13258419732
13258425592
13258432488
13258437066
13258443414
13258449273
13258454034
13258459344
13258465997
13258472161
13258478265
13258482293
13258488274
13258493707
13258499444
13258503350
13258511346
13258518121
13258525506
13258530389
13258536248
13258540581
13258546380
13258550896
13258555901
13258562920
13258567315
13258573662
13258579400
13258584588
13258589837
13258595086
13258600884
13258607659
13258612176
13258619011
13258624871
13258631096
13258635308
13258642998
13258650933
13258659050
13258664605
13258673027
13258681084
13258687615
13258695732
13258702202
13258709221
13258717583
13258724236
13258731560
13258740776
13258747978
13258753838
13258762688
13258770012
13258780571
13258788017
13258793266
13258802116
13258810722
13258818718
13258825432
13258835747
13258842461
13258851128
13258858086
13258863212
13258868706
13258875053
13258879265
13258888359
13258892753
13258900566
13258905510
13258911918
13258917289
13258921867
13258929558
13258934379
13258940666
13258945854
13258951774
13258955009
13258962516
13258968010
13258973869
13258979911
13258986320
13258990654
13258997978
13259002372
13259009513
13259014762
13259021354
13259027641
13259032463
13259039237
13259044059
13259049980
13259055900
13259060111
13259067924
13259074577
13259079826
13259085868
13259091178
13259098380
13259103629
13259110038
13259115958
13259122611
13259127738
13259132804
13259140250
13259146903
13259153373
13259161857
13259169425
13259177909
13259183768
13259192863
13259199210
13259205008
13259215384
13259223380
13259230765
13259240958
13259247550
13259253104
13259262198
13259270011
13259277213
13259284598
13259290641
13259300833
13259308280
13259313285
13259323355
13259330680
13259336661
13259341849
13259349051
13259355399
13259360831
13259366324
13259371329
13259376761
13259382620
13259387869
13259395438
13259401114
13259408011
13259413687
13259418570
13259425467
13259432303
13259436636
13259443655
13259451529
13259459097
13259465628
13259470694
13259477286
13259483694
13259489554
13259495230
13259503287
13259509146
13259513540
13259519583
13259524771
13259529471
13259534475
13259539236
13259547171
13259552359
13259557669
13259564688
13259569876
13259575979
13259580801
13259586538
13259592825
13259598684
13259604910
13259610403
13259615408
13259621511
13259627371
13259631521
13259638479
13259646658
13259656423
13259662344
13259670767
13259678396
13259685415
13259692861
13259700002
13259707754
13259717458
13259723928
13259730642
13259739248
13259746755
13259752676
13259760732
13259770009
13259776174
13259784048
13259789907
13259799428
13259804738
13259813527
13259821279
13259830373
13259838796
13259845205
13259850332
13259855092
13259862050
13259867910
13259872060
13259879995
13259885305
13259892018
13259897390
13259902028
13259907399
13259912953
13259918874
13259926259
13259931447
13259937367
13259943227
13259948659
13259952504
13259959279
13259965688
13259971913
13259979237
13259983937
13259989125
13259993947
13260000111
13260004811
13260010609
13260015797
13260021107
13260025441
13260032033
13260036977
13260041249
13260046437
13260051381
13260058522
13260065114
13260070912
13260077748
13260083485
13260090809
13260096791
13260103993
13260110097
13260118336
13260124745
13260132069
13260137257
13260142445
13260146473
13260152516
13260160145
13260165333
13260169789
13260175892
13260180714
13260185475
13260191334
13260196278
13260201466
13260207691
13260213612
13260219532
13260224171
13260229725
13260234181
13260241139
13260246754
13260254078
13260258961
13260264759
13260269642
13260275684
13260282154
13260287708
13260295948
13260302174
13260307179
13260313770
13260318653
13260324024
13260328419
13260335621
13260340931
13260348255
13260353199
13260358753
13260363697
13260370289
13260375416
13260382313
13260387745
13260394886
13260399769
13260403431
13260411426
13260417530
13260422229
13260426563
13260434925
13260440418
13260446705
13260452869
13260458423
13260466724
13260472950
13260479847
13260486255
13260491382
13260497180
13260504199
13260510547
13260517871
13260522510
13260530872
13260537525
13260542407
13260548572
13260554675
13260560535
13260566638
13260572742
13260580493
13260586902
13260591357
13260598010
13260602405
13260610095
13260614978
13260620837
13260626392
13260634570
13260640247
13260645129
13260650073
13260658496
13260662585
13260669665
13260678699
13260684619
13260690722
13260696704
13260702258
13260710376
13260716906
13260722033
13260729358
13260734790
13260739856
13260744372
13260749682
13260755114
13260760241
13260765368
13260772021
13260776660
13260781909
13260788195
13260793322
13260798388
13260803515
13260808825
13260814196
13260820605
13260826525
13260830737
13260835864
13260841601
13260847643
13260852953
13260858508
13260864123
13260870348
13260876696
13260882616
13260887316
13260893298
13260900561
13260906542
13260911425
13260918810
13260923449
13260929369
13260935107
13260939257
13260946337
13260952502
13260958605
13260962816
13260969347
13260973559
13260980334
13260986132
13260991930
13260999315
13261004259
13261009752
13261016100
13261020311
13261026964
13261033007
13261039904
13261045580
13261051989
13261056200
13261062853
13261068590
13261073961
13261079637
13261084459
13261090197
13261097155
13261102709
13261107530
13261113085
13261119127
13261124925
13261132677
13261138597
13261143968
13261149400
13261154894
13261160570
13261166551
13261172411
13261177965
13261184129
13261190538
13261196947
13261201280
13261207750
13261211839
13261218309
13261224901
13261233141
13261239061
13261244127
13261249864
13261257432
13261263170
13261269700
13261276109
13261282945
13261287950
13261294847
13261299730
13261305894
13261310472
13261316881
13261322435
13261328355
13261333482
13261338792
13261343858
13261349229
13261355027
13261361131
13261366502
13261372422
13261377854
13261383836
13261389329
13261393663
13261399034
13261405809
13261411912
13261416368
13261421922
13261428086
13261432237
13261439378
13261445298
13261452928
13261457200
13261464768
13261470323
13261476182
13261480393
13261487168
13261493150
13261498154
13261504258
13261510056
13261515794
13261519822
13261524766
13261531113
13261536545
13261544419
13261552109
13261558091
13261563340
13261568650
13261573655
13261578721
13261585679
13261589341
13261595566
13261603135
13261608017
13261612107
13261619370
13261625168
13261631272
13261637375
13261643723
13261649582
13261655259
13261660813
13261665879
13261671921
13261677353
13261683091
13261688095
13261693222
13261699082
13261704209
13261710312
13261716782
13261721970
13261726425
13261733322
13261739365
13261745835
13261751694
13261757675
13261765183
13261769638
13261776657
13261781723
13261788254
13261794785
13261802658
13261808823
13261814743
13261821274
13261827072
13261834152
13261840317
13261849533
13261855209
13261861252
13261868210
13261874740
13261880356
13261886825
13261892746
13261899582
13261906479
13261912094
13261917892
13261921920
13261930771
13261935897
13261941818
13261947006
13261954025
13261958175
13261964584
13261969650
13261973861
13261978927
13261984237
13261989791
13261996017
13261999923
13262005599
13262010665
13262016036
13262023055
13262027816
13262033004
13262040023
13262045638
13262050887
13262056686
13262063339
13262068160
13262074020
13262080734
13262086288
13262090499
13262096114
13262101791
13262108016
13262113876
13262119430
13262125838
13262131759
13262136764
13262144210
13262148910
13262153976
13262159652
13262165145
13262171248
13262177047
13262183028
13262189254
13262193892
13262200911
13262204451
13262212020
13262218062
13262224532
13262230513
13262235457
13262247664
13262255843
13262266463
13262274153
13262281966
13262293990
13262302474
13262308333
13262318770
13262327620
13262338912
13262347334
13262355879
13262363204
13262369978
13262379012
13262387251
13262394576
13262404524
13262411116
13262418440
13262427046
13262434859
13262444746
13262452193
13262460554
13262470137
13262478621
13262486983
13262497236
13262506270
13262515059
13262528425
13262537397
13262546431
13262555586
13262562727
13262572004
13262578718
13262588545
13262596113
13262603193
13262613447
13262622053
13262630110
13262637312
13262647199
13262657819
13262664045
13262673567
13262681684
13262691145
13262699384
13262708356
13262716230
13262723127
13262732954
13262740583
13262748517
13262756269
13262765668
13262775312
13262781965
13262791608
13262798566
13262809675
13262817121
13262828290
13262835309
13262845319
13262854718
13262862226
13262873151
13262881513
13262891034
13262898542
13262906842
13262912580
13262922345
13262930585
13262936994
13262947614
13262954877
13262964703
13262972455
13262978619
13262986981
13262993085
13263000043
13263008405
13263015485
13263024274
13263033795
13263043988
13263051434
13263058819
13263066327
13263073224
13263081830
13263090191
13263097699
13263106305
13263114300
13263122845
13263131329
13263138714
13263146954
13263154583
13263162640
13263171307
13263180157
13263186810
13263196026
13263201336
13263210308
13263218731
13263227764
13263237896
13263245892
13263253887
13263262249
13263270001
13263277081
13263286785
13263294598
13263304790
13263312115
13263318645
13263327557
13263337322
13263343365
13263352276
13263360637
13263368023
13263376751
13263382732
13263391460
13263397075
13263405864
13263415752
13263423137
13263430828
13263438152
13263446697
13263452312
13263462261
13263469219
13263477703
13263485332
13263493389
13263499858
13263508342
13263515850
13263522258
13263530132
13263541606
13263550334
13263557353
13263561870
13263566570
13263572124
13263577190
13263581645
13263586345
13263591472
13263597148
13263601299
13263605998
13263611980
13263616374
13263620036
13263625835
13263630168
13263636821
13263642863
13263647868
13263651286
13263656901
13263661540
13263667216
13263671855
13263676127
13263679973
13263683879
13263687541
13263692058
13263696330
13263701030
13263706462
13263711162
13263714457
13263721904
13263726542
13263731364
13263736369
13263741557
13263746135
13263750834
13263755717
13263759440
13263762980
13263768351
13263771952
13263779460
13263783122
13263789897
13263797587
13263804118
13263810893
13263815714
13263822062
13263829081
13263834513
13263841105
13263845377
13263851054
13263856181
13263862040
13263867106
13263872477
13263877238
13263881876
13263887797
13263892374
13263899577
13263905436
13263910441
13263915568
13263920512
13263925089
13263930094
13263934977
13263940287
13263943766
13263949259
13263954508
13263959940
13263965616
13263970194
13263975321
13263984781
13263989603
13263994791
13264000895
13264005472
13264012186
13264017069
13264023539
13264029642
13264036234
13264041910
13264046305
13264051554
13264058207
13264064066
13264071085
13264075113
13264082621
13264088419
13264094583
13264099832
13264105936
13264112039
13264118204
13264125467
13264133157
13264139078
13264143961
13264150491
13264154886
13264161783
13264167703
13264173257
13264180093
13264186136
13264191629
13264197366
13264202798
13264206399
13264215311
13264221963
13264227823
13264232828
13264238321
13264244913
13264248880
13264255350
13264263162
13264270181
13264273843
13264280130
13264285745
13264290994
13264296609
13264303140
13264309610
13264314615
13264321756
13264325967
13264331338
13264336709
13264343484
13264349527
13264355813
13264362466
13264368753
13264376687
13264382608
13264388772
13264396585
13264402200
13264407632
13264411782
13264420693
13264424417
13264431436
13264435647
13264442544
13264447244
13264454202
13264459756
13264465798
13264469949
13264475320
13264481362
13264487405
13264493203
13264498452
13264503945
13264510903
13264514382
13264521584
13264526589
13264531838
13264536599
13264543862
13264550332
13264553872
13264561623
13264565346
13264572976
13264578469
13264583596
13264589760
13264596596
13264602639
13264608254
13264614480
13264619912
13264626564
13264631752
13264640725
13264647377
13264654091
13264660927
13264666786
13264672646
13264676186
13264683388
13264689980
13264698525
13264706581
13264713234
13264720009
13264728676
13264733742
13264739357
13264744911
13264751808
13264757240
13264763954
13264768959
13264775246
13264780373
13264785316
13264790443
13264795876
13264800880
13264806129
13264811378
13264817848
13264823952
13264828285
13264833351
13264841652
13264847206
13264851784
13264858558
13264862648
13264868019
13264873695
13264878273
13264886574
13264891029
13264897804
13264902015
13264908485
13264914467
13264919960
13264925575
13264930824
13264936744
13264942176
13264949256
13264955177
13264961219
13264969154
13264974586
13264980690
13264987403
13264994361
13264999793
13265006812
13265012000
13265018165
13265024635
13265028846
13265033851
13265040687
13265046424
13265052161
13265057899
13265063758
13265068641
13265074744
13265081580
13265086280
13265090797
13265095985
13265100623
13265105201
13265110145
13265115699
13265121009
13265125892
13265130897
13265136756
13265142493
13265147498
13265152564
13265157203
13265165137
13265169532
13265173987
13265180579
13265185645
13265190345
13265195594
13265201636
13265207679
13265213416
13265218482
13265223304
13265227759
13265233435
13265238440
13265244361
13265252417
13265257422
13265262732
13265268714
13265273352
13265281897
13265284949
13265292151
13265298010
13265303137
13265307837
13265314551
13265319617
13265324927
13265329382
13265335486
13265340369
13265345496
13265351843
13265357214
13265362219
13265367896
13265372351
13265378333
13265386633
13265393408
13265397742
13265403174
13265408545
13265413855
13265420142
13265426916
13265431982
13265437781
13265444617
13265448706
13265454931
13265461035
13265466284
13265472448
13265478674
13265485815
13265492224
13265496008
13265503271
13265508520
13265514624
13265519506
13265528296
13265535009
13265542334
13265546545
13265553686
13265558142
13265564123
13265571203
13265576818
13265584936
13265589086
13265594030
13265600134
13265604162
13265609960
13265615515
13265621313
13265626928
13265630468
13265635229
13265640539
13265645910
13265651281
13265656347
13265661047
13265666906
13265673254
13265679296
13265683874
13265688940
13265694433
13265699499
13265704931
13265710729
13265715551
13265721044
13265730382
13265736425
13265741796
13265747594
13265752538
13265757970
13265763585
13265768773
13265773839
13265779821
13265785375
13265790807
13265796117
13265802160
13265807592
13265812352
13265818212
13265823522
13265828771
13265834264
13265841405
13265847692
13265853246
13265857946
13265864293
13265869725
13265875951
13265881810
13265886022
13265894506
13265901036
13265906041
13265909764
13265916295
13265921849
13265927648
13265934422
13265936681
13265946874
13265951207
13265957127
13265962010
13265968297
13265973119
13265979527
13265985265
13265990025
13265995335
13266001744
13266007725
13266013341
13266018529
13266022435
13266029515
13266036900
13266041722
13266048741
13266053868
13266058629
13266065159
13266071263
13266077672
13266081151
13266088536
13266094761
13266100682
13266104527
13266112339
13266118260
13266125218
13266130955
13266136265
13266142918
13266150853
13266156590
13266161839
13266169041
13266173252
13266178868
13266184788
13266192051
13266196263
13266203282
13266207981
13266213719
13266219029
13266223850
13266229832
13266234715
13266241062
13266246372
13266251743
13266256565
13266262180
13266267307
13266272495
13266280064
13266283787
13266291721
13266295383
13266303562
13266307224
13266315037
13266320286
13266325168
13266331150
13266336094
13266342686
13266348850
13266354709
13266361118
13266366733
13266372471
13266378574
13266383152
13266389988
13266394016
13266401340
13266405063
13266411106
13266418613
13266423740
13266428928
13266432895
13266439914
13266446567
13266451267
13266457614
13266464572
13266469333
13266476291
13266482151
13266488071
13266492221
13266499057
13266504123
13266510593
13266516330
13266522189
13266527500
13266532687
13266538364
13266542270
13266550510
13266555881
13266562106
13266566684
13266574619
13266579440
13266587558
13266594089
13266600131
13266605929
13266610263
13266620273
13266626864
13266633151
13266638095
13266647006
13266652865
13266660006
13266667331
13266673068
13266680331
13266687777
13266694857
13266700961
13266709445
13266718478
13266725436
13266734286
13266740756
13266750827
13266758578
13266771212
13266778903
13266785922
13266798068
13266805636
13266816683
13266823092
13266834383
13266839571
13266849032
13266858553
13266870455
13266877840
13266882662
13266887606
13266895846
13266904818
13266910189
13266917513
13266923250
13266929293
13266935091
13266941866
13266948214
13266954439
13266959444
13266965609
13266971590
13266976778
13266983126
13266990938
13266996920
13267001802
13267008211
13267013521
13267019625
13267028780
13267033297
13267039644
13267045626
13267052034
13267058443
13267063692
13267073152
13267081087
13267089022
13267095674
13267102205
13267108309
13267112764
13267119966
13267126314
13267133272
13267139925
13267147249
13267153902
13267159456
13267165132
13267169466
13267174593
13267182222
13267189424
13267195772
13267201631
13267206453
13267212312
13267217805
13267223176
13267229158
13267237947
13267244295
13267249849
13267253755
13267260042
13267265291
13267268464
13267274263
13267281282
13267287324
13267292634
13267297761
13267303254
13267307405
13267311799
13267318330
13267325654
13267331575
13267339509
13267344148
13267349153
13267353425
13267357881
13267364900
13267371003
13267376191
13267381684
13267386201
13267391267
13267397798
13267402192
13267406709
13267412019
13267419343
13267425874
13267433259
13267440705
13267447175
13267455232
13267462312
13267468964
13267474763
13267482026
13267486115
13267492524
13267496735
13267502106
13267507477
13267513337
13267517243
13267523774
13267529816
13267536530
13267542451
13267547822
13267554535
13267560700
13267565217
13267570649
13267576691
13267582123
13267589142
13267592865
13267599091
13267604340
13267610688
13267616669
13267623993
13267631928
13267638398
13267643952
13267649689
13267654328
13267664276
13267671540
13267680145
13267683869
13267690460
13267695954
13267702240
13267707550
13267712616
13267717621
13267723541
13267727509
13267734345
13267738617
13267744843
13267748566
13267754547
13267760040
13267766449
13267770660
13267777740
13267781952
13267788300
13267793610
13267797638
13267802643
13267808014
13267813080
13267819733
13267825592
13267831207
13267835907
13267839996
13267844940
13267851959
13267857208
13267864837
13267869171
13267874481
13267879791
13267883575
13267888641
13267895538
13267901275
13267907501
13267913726
13267919036
13267925445
13267933197
13267937347
13267945831
13267952178
13267957977
13267964385
13267970733
13267977264
13267981964
13267991119
13267998992
13268006255
13268012359
13268018096
13268024627
13268030669
13268038482
13268044097
13268051543
13268057708
13268063262
13268068511
13268071868
13268077605
13268082976
13268088775
13268094085
13268098785
13268104217
13268109832
13268115142
13268119720
13268125213
13268131316
13268136687
13268141509
13268147185
13268152312
13268158233
13268163604
13268169341
13268177153
13268181792
13268189299
13268195037
13268201323
13268206939
13268213591
13268218779
13268226592
13268230376
13268237700
13268243376
13268249053
13268255034
13268260588
13268266509
13268271636
13268277373
13268283232
13268289031
13268294097
13268300444
13268305815
13268311980
13268318388
13268325041
13268330962
13268337187
13268342436
13268348967
13268355193
13268358977
13268365691
13268371672
13268377714
13268383757
13268389067
13268394621
13268400236
13268406645
13268411406
13268417814
13268422575
13268429960
13268435209
13268440275
13268447905
13268454008
13268460661
13268465178
13268471953
13268477446
13268484221
13268489225
13268494841
13268502226
13268510405
13268517668
13268524687
13268529264
13268539335
13268547331
13268554350
13268561186
13268571318
13268577055
13268588285
13268594206
13268603117
13268615080
13268626371
13268635587
13268642301
13268652128
13268660551
13268671720
13268679288
13268686857
13268695035
13268703153
13268711088
13268718473
13268725858
13268732572
13268736600
13268742093
13268748014
13268753629
13268760221
13268766630
13268771634
13268776944
13268782499
13268788175
13268793607
13268799100
13268805265
13268811063
13268817472
13268822477
13268827603
13268832608
13268838285
13268843595
13268849332
13268856168
13268863248
13268869168
13268873807
13268879361
13268885343
13268890775
13268897489
13268903348
13268908963
13268914517
13268921048
13268925382
13268931790
13268937405
13268943814
13268950162
13268956143
13268961758
13268966763
13268972501
13268978665
13268984280
13268990323
13268997098
13269004300
13269010098
13269014920
13269020474
13269026333
13269031827
13269037320
13269043362
13269050381
13269055874
13269061123
13269066861
13269071682
13269076809
13269084317
13269090359
13269095608
13269100613
13269107693
13269113675
13269120633
13269125515
13269133084
13269138211
13269144131
13269148953
13269155422
13269160366
13269167141
13269172329
13269179043
13269185574
13269191799
13269196743
13269202847
13269207729
13269213345
13269219875
13269224880
13269233425
13269239956
13269246304
13269252956
13269258144
13269265591
13269271328
13269279018
13269285305
13269291775
13269296474
13269301968
13269306606
13269312282
13269317776
13269324001
13269329128
13269334804
13269339931
13269345791
13269351528
13269355922
13269361477
13269368007
13269374355
13269380275
13269384487
13269391323
13269395473
13269402797
13269408290
13269413478
13269420803
13269425197
13269430629
13269436122
13269442226
13269446437
13269453517
13269459438
13269466030
13269470607
13269477687
13269484584
13269489650
13269499172
13269507167
13269513576
13269520290
13269525844
13269531642
13269538417
13269554347
13269567836
13269577052
13269586696
13269595912
13269603969
13269612636
13269621303
13269630763
13269637599
13269642848
13269647975
13269653956
13269659816
13269665492
13269671107
13269675685
13269681300
13269686244
13269690821
13269695460
13269698390
13269705592
13269710841
13269715113
13269721766
13269727320
13269731288
13269737269
13269741175
13269748744
13269754176
13269759242
13269764857
13269771266
13269774195
13269780604
13269784571
13269791285
13269796473
13269802699
13269808253
13269813258
13269818263
13269826624
13269835780
13269839625
13269849879
13269856959
13269861231
13269867640
13269873316
13269879542
13269884730
13269889429
13269893580
13269899012
13269904017
13269909144
13269913355
13269919764
13269924586
13269930750
13269936365
13269940272
13269945948
13269950281
13269955591
13269960413
13269964441
13269968958
13269975672
13269981409
13269985560
13269990076
13269994532
13270000635
13270005823
13270011866
13270017969
13270023279
13270028162
13270035364
13270039514
13270045801
13270051660
13270056238
13270061548
13270069238
13270075159
13270079065
13270084192
13270090723
13270097131
13270101526
13270109033
13270114099
13270120691
13270126367
13270132166
13270138330
13270146387
13270152185
13270158350
13270165552
13270170984
13270177270
13270182458
13270188013
13270193994
13270199060
13270206262
13270212366
13270217615
13270224573
13270229272
13270235315
13270240930
13270246728
13270252527
13270257592
13270263269
13270269067
13270274438
13270280175
13270284265
13270291711
13270298425
13270303552
13270309350
13270314355
13270319970
13270324914
13270330590
13270338525
13270346032
13270351159
13270359033
13270365563
13270371118
13270378076
13270384118
13270390710
13270397912
13270402062
13270408227
13270412316
13270417687
13270423241
13270431481
13270435326
13270441064
13270447289
13270451562
13270457909
13270462243
13270469384
13270473473
13270477318
13270484460
13270489525
13270496178
13270500756
13270506982
13270512292
13270518395
13270523766
13270528588
13270534142
13270538353
13270545189
13270550133
13270556542
13270562401
13270569359
13270575585
13270581017
13270587304
13270593285
13270597313
13270604943
13270609764
13270616173
13270622582
13270629479
13270634423
13270638878
13270647057
13270653649
13270661400
13270667931
13270672875
13270678124
13270685082
13270690453
13270698326
13270702843
13270709618
13270714562
13270720970
13270725365
13270731468
13270737083
13270744041
13270749168
13270755943
13270761620
13270767967
13270773399
13270779747
13270787376
13270793968
13270800316
13270806602
13270812157
13270818199
13270824364
13270830528
13270835350
13270842186
13270847618
13270853477
13270860496
13270866050
13270870933
13270878990
13270886009
13270889793
13270896629
13270902793
13270910484
13270917320
13270923851
13270931297
13270939598
13270944419
13270953086
13270959129
13270966453
13270972068
13270976463
13270981834
13270988487
13270993553
13270999473
13271004051
13271008811
13271013572
13271020652
13271026267
13271031455
13271036582
13271043418
13271049583
13271055686
13271062400
13271068015
13271074424
13271080283
13271085837
13271091025
13271096335
13271101829
13271107627
13271112815
13271118674
13271124045
13271129539
13271136069
13271140281
13271146140
13271151877
13271158591
13271162986
13271168662
13271174521
13271180381
13271187033
13271192099
13271197959
13271204001
13271209738
13271214072
13271219321
13271226950
13271233725
13271239279
13271243064
13271250022
13271255820
13271262412
13271267722
13271272605
13271278098
13271285483
13271291892
13271296042
13271303244
13271310263
13271316977
13271322592
13271327719
13271333151
13271338339
13271345114
13271352621
13271357626
13271362814
13271370138
13271374838
13271383627
13271388876
13271398154
13271404806
13271413473
13271419516
13271426108
13271432211
13271437460
13271443197
13271450949
13271458456
13271464010
13271469626
13271475790
13271483419
13271489035
13271492697
13271503744
13271510641
13271516806
13271524130
13271530538
13271539266
13271544699
13271550985
13271555990
13271563375
13271569540
13271574911
13271580404
13271586019
13271592733
13271596639
13271602560
13271609579
13271614462
13271620199
13271625326
13271631429
13271638448
13271645467
13271650289
13271657552
13271663473
13271668600
13271673727
13271679342
13271686849
13271693258
13271698507
13271704671
13271709676
13271715413
13271720785
13271727071
13271733602
13271740072
13271746480
13271752523
13271759298
13271764241
13271769490
13271777059
13271782918
13271788411
13271794210
13271799642
13271805501
13271810933
13271816732
13271823201
13271830648
13271837178
13271843282
13271849813
13271855611
13271861287
13271866780
13271872640
13271877767
13271881978
13271890950
13271897603
13271902791
13271907369
13271913655
13271919698
13271924458
13271930196
13271935750
13271942158
13271946919
13271954243
13271959187
13271965779
13271970906
13271978047
13271983052
13271991109
13271996358
13272002644
13272007954
13272014973
13272021199
13272027241
13272033101
13272038899
13272044148
13272048481
13272055623
13272060933
13272068379
13272074238
13272080220
13272085713
13272094624
13272101033
13272105610
13272116230
13272123982
13272128193
13272135334
13272146199
13272152302
13272157856
13272163349
13272167988
13272172871
13272176899
13272182087
13272188435
13272193012
13272199665
13272206440
13272212421
13272218220
13272223286
13272229145
13272234150
13272239338
13272244221
13272249714
13272255451
13272260700
13272266010
13272270649
13272276203
13272281269
13272286640
13272292194
13272297687
13272303119
13272308613
13272312092
13272318928
13272324909
13272330951
13272337848
13272343342
13272349384
13272355243
13272358905
13272365192
13272370441
13272375385
13272381061
13272387897
13272393024
13272398212
13272403766
13272409137
13272414447
13272419574
13272426349
13272432636
13272438129
13272444232
13272449665
13272455158
13272460773
13272467609
13272474079
13272480243
13272485065
13272489459
13272496051
13272500507
13272504657
13272514423
13272520831
13272526630
13272533099
13272539142
13272545245
13272551166
13272556781
13272563007
13272570697
13272575336
13272582294
13272588397
13272593280
13272599139
13272605487
13272611407
13272617816
13272623736
13272628924
13272635150
13272640277
13272645526
13272653155
13272663958
13272668780
13272673663
13272681048
13272686541
13272693682
13272699115
13272706134
13272713519
13272720355
13272726275
13272731951
13272736468
13272742083
13272746600
13272754595
13272760577
13272766680
13272771990
13272777545
13272783099
13272787859
13272793414
13272798541
13272806475
13272811541
13272817156
13272823565
13272828997
13272833331
13272838335
13272844744
13272852557
13272857622
13272862871
13272868609
13272873736
13272880877
13272886614
13272893084
13272898089
13272903948
13272909014
13272915240
13272920305
13272926226
13272932573
13272937090
13272944536
13272949114
13272956133
13272961321
13272966204
13272972002
13272977190
13272982744
13272990435
13272996355
13273001421
13273008684
13273013811
13273018999
13273025164
13273030901
13273037676
13273044023
13273050188
13273055071
13273061479
13273066301
13273072527
13273077654
13273085527
13273091509
13273096574
13273102129
13273108354
13273112871
13273119646
13273125078
13273138139
13273144243
13273148881
13273156450
13273160966
13273167497
13273171770
13273177263
13273184099
13273190263
13273195085
13273200456
13273206865
13273212419
13273217546
13273222978
13273228898
13273234880
13273241411
13273247148
13273252214
13273258378
13273265031
13273269792
13273277665
13273286027
13273294389
13273300798
13273307023
13273313066
13273321000
13273326066
13273333695
13273339677
13273345780
13273351274
13273356462
13273362138
13273368913
13273374528
13273381120
13273387589
13273393815
13273399674
13273404557
13273410294
13273415482
13273421342
13273428910
13273435075
13273440507
13273446183
13273451859
13273457535
13273462846
13273468461
13273474991
13273480729
13273487565
13273492509
13273497941
13273503434
13273509354
13273515153
13273520646
13273526749
13273533280
13273539322
13273544999
13273550614
13273555802
13273561356
13273566910
13273572953
13273578751
13273584366
13273589859
13273594803
13273601334
13273606339
13273614151
13273621414
13273627335
13273633011
13273639115
13273643204
13273650284
13273655960
13273662003
13273669754
13273675186
13273680985
13273686295
13273691910
13273697525
13273703323
13273707901
13273715836
13273721634
13273725113
13273731277
13273736099
13273742447
13273747330
13273754593
13273762222
13273769363
13273773331
13273778763
13273783890
13273789322
13273794632
13273800918
13273807510
13273812027
13273818069
13273822891
13273830032
13273835891
13273842544
13273850235
13273857254
13273864212
13273869400
13273875869
13273883499
13273893875
13273898941
13273907241
13273912490
13273919265
13273925064
13273930679
13273936294
13273942275
13273949478
13273956313
13273961746
13273967300
13273973586
13273979080
13273984390
13273990066
13273995986
13274002090
13274008254
13274013931
13274020095
13274025710
13274030593
13274035598
13274041885
13274048232
13274055617
13274061172
13274065993
13274071670
13274077468
13274083816
13274089126
13274096267
13274102187
13274107009
13274113112
13274118178
13274124221
13274129409
13274135573
13274143264
13274148269
13274153090
13274159133
13274164138
13274170546
13274175490
13274183852
13274189406
13274194899
13274200698
13274206862
13274212477
13274217116
13274222243
13274229018
13274234450
13274242507
13274246108
13274253005
13274258010
13274264174
13274268996
13274274672
13274283705
13274290541
13274296095
13274300246
13274305251
13274312941
13274317885
13274323500
13274329726
13274336745
13274341750
13274347487
13274354018
13274359328
13274363905
13274370497
13274379042
13274384230
13274389357
13274396620
13274401686
13274407789
13274412794
13274419264
13274424696
13274431166
13274436354
13274442457
13274447462
13274453932
13274460524
13274466444
13274472914
13274479689
13274486586
13274492750
13274497938
13274506300
13274512281
13274518934
13274526014
13274531568
13274536695
13274540235
13274548658
13274553968
13274558668
13274565931
13274571485
13274578077
13274582716
13274589369
13274595777
13274600233
13274606580
13274610181
13274618970
13274625318
13274629835
13274636671
13274641126
13274647413
13274654005
13274659620
13274666944
13274672132
13274679090
13274683912
13274690381
13274695569
13274700086
13274707044
13274713147
13274719129
13274725354
13274730542
13274735059
13274742078
13274747083
13274753431
13274760633
13274767041
13274771497
13274778028
13274782666
13274790052
13274794507
13274798780
13274805371
13274812940
13274817884
13274824170
13274828687
13274834241
13274840772
13274847058
13274852063
13274857739
13274865735
13274869336
13274876172
13274882153
13274886365
13274891797
13274898572
13274904919
13274910046
13274915845
13274922070
13274927319
13274932202
13274937817
13274943494
13274951123
13274956494
13274961255
13274966687
13274973584
13274980359
13274987134
13274991772
13274999158
13275003491
13275010693
13275014844
13275020398
13275026074
13275034070
13275040844
13275047375
13275053784
13275060742
13275067089
13275073376
13275079785
13275087109
13275091992
13275099316
13275106274
13275112683
13275116894
13275123242
13275128979
13275136730
13275141308
13275148144
13275153698
13275159069
13275164684
13275169689
13275175305
13275180676
13275188183
13275193615
13275199230
13275204662
13275210400
13275216076
13275221752
13275228954
13275234875
13275241589
13275245983
13275252941
13275258617
13275263744
13275267528
13275274731
13275282970
13275288097
13275293896
13275299450
13275307506
13275313915
13275318004
13275328014
13275333873
13275340221
13275345775
13275350902
13275356578
13275363597
13275369640
13275376842
13275383373
13275388927
13275394908
13275401134
13275406810
13275411937
13275417369
13275422435
13275429882
13275435497
13275441234
13275447276
13275454234
13275460155
13275466319
13275472057
13275478282
13275484569
13275490123
13275496104
13275502269
13275506725
13275512584
13275518993
13275526927
13275531505
13275537913
13275542613
13275548411
13275555186
13275559520
13275566722
13275572703
13275578868
13275584666
13275590770
13275596446
13275601085
13275606700
13275614818
13275621104
13275625804
13275632274
13275636851
13275644542
13275649730
13275656443
13275662059
13275670848
13275676463
13275682750
13275690135
13275694407
13275701792
13275706675
13275713755
13275719065
13275725596
13275729624
13275736216
13275741892
13275747691
13275751841
13275758799
13275765330
13275770274
13275775828
13275782114
13275788218
13275794321
13275798655
13275805796
13275812144
13275816965
13275822459
13275828806
13275834666
13275839426
13275844981
13275851145
13275856943
13275863657
13275868296
13275875193
13275880808
13275885325
13275891123
13275898874
13275905588
13275911448
13275917429
13275922434
13275928110
13275934458
13275940256
13275946665
13275953012
13275958078
13275963022
13275969919
13275975595
13275980356
13275985361
13275993051
13276002146
13276008432
13276014292
13276019541
13276025278
13276031565
13276037302
13276043833
13276050424
13276057138
13276061716
13276068063
13276073679
13276079233
13276084848
13276090219
13276096140
13276102426
13276108286
13276112924
13276118112
13276125070
13276129892
13276136179
13276141428
13276148752
13276154367
13276159677
13276165109
13276169870
13276175180
13276180978
13276187753
13276192880
13276198678
13276203256
13276209421
13276213998
13276219369
13276226388
13276236154
13276243417
13276248422
13276254220
13276261483
13276267160
13276273873
13276282846
13276289010
13276295053
13276302499
13276307748
13276313363
13276317880
13276324227
13276332040
13276337289
13276347543
13276353158
13276358102
13276364571
13276369393
13276374337
13276383004
13276388497
13276394967
13276400643
13276405709
13276410775
13276417184
13276422555
13276429391
13276436593
13276442513
13276447823
13276452706
13276458321
13276463509
13276470040
13276477242
13276483101
13276487862
13276493783
13276500069
13276506234
13276511055
13276516976
13276522896
13276529244
13276535958
13276540963
13276545296
13276552132
13276559761
13276564034
13276572945
13276580696
13276585457
13276594063
13276601082
13276606819
13276612068
13276618111
13276625252
13276630745
13276635262
13276641915
13276646736
13276653755
13276658455
13276662544
13276671517
13276676033
13276683785
13276689583
13276695381
13276701118
13276705513
13276711067
13276716743
13276722420
13276728645
13276734322
13276740486
13276745979
13276751045
13276756843
13276762459
13276770210
13276776314
13276780647
13276787239
13276792854
13276798103
13276803718
13276809150
13276814949
13276821785
13276827339
13276832893
13276838569
13276845039
13276851143
13276857490
13276864082
13276870430
13276876655
13276883735
13276890144
13276896186
13276902229
13276907478
13276915351
13276919990
13276925422
13276931892
13276937385
13276943488
13276949104
13276954048
13276959968
13276965766
13276971442
13276978339
13276982002
13276988532
13276993537
13277000678
13277007636
13277012885
13277017829
13277023688
13277028571
13277035468
13277040595
13277047675
13277054999
13277060615
13277066413
13277073127
13277078742
13277083686
13277088569
13277095771
13277103034
13277110053
13277115790
13277124701
13277129950
13277135077
13277140632
13277146613
13277152350
13277158576
13277164496
13277169928
13277175360
13277180732
13277186286
13277192145
13277198004
13277204535
13277211249
13277216193
13277220893
13277227423
13277232184
13277237128
13277243537
13277250372
13277255866
13277261542
13277266425
13277273383
13277278143
13277285773
13277292609
13277299323
13277305548
13277311896
13277316534
13277324591
13277329291
13277339423
13277345587
13277349921
13277355414
13277361639
13277365851
13277371954
13277379461
13277387579
13277395514
13277399664
13277407416
13277412726
13277419745
13277425055
13277431158
13277437933
13277445990
13277453497
13277460333
13277466314
13277473272
13277480596
13277488409
13277495977
13277500982
13277508367
13277513433
13277519537
13277524481
13277530706
13277535894
13277542425
13277548284
13277553961
13277560064
13277565923
13277571233
13277578619
13277586004
13277590765
13277596075
13277602422
13277607610
13277613103
13277618780
13277624883
13277632024
13277637701
13277642950
13277648382
13277655767
13277661077
13277667913
13277672552
13277680364
13277685491
13277690069
13277695867
13277700628
13277708562
13277713994
13277718511
13277725530
13277731572
13277736272
13277742009
13277749334
13277755620
13277760869
13277765752
13277773015
13277779790
13277785344
13277792546
13277798894
13277805181
13277810735
13277818913
13277824773
13277831792
13277837407
13277843327
13277849431
13277856389
13277862370
13277869206
13277876347
13277880925
13277887883
13277892827
13277900212
13277906621
13277912602
13277919072
13277925175
13277931950
13277939702
13277946232
13277951481
13277955876
13277962773
13277967229
13277974187
13277980656
13277985722
13277993046
13277999821
13278006108
13278012089
13278017888
13278027897
13278033390
13278039433
13278045842
13278050175
13278056767
13278064518
13278072575
13278081730
13278086857
13278092472
13278098576
13278105961
13278111881
13278118351
13278124577
13278130802
13278136357
13278141239
13278147221
13278154667
13278159977
13278166142
13278171513
13278177494
13278182560
13278188908
13278194157
13278200687
13278206303
13278213566
13278218571
13278224552
13278229679
13278235599
13278240848
13278246769
13278251835
13278258060
13278263309
13278269230
13278274357
13278281009
13278285038
13278291996
13278297428
13278304081
13278310245
13278316288
13278321537
13278328495
13278334415
13278340519
13278346378
13278351200
13278357975
13278364200
13278371036
13278376529
13278382144
13278389163
13278395755
13278401798
13278407962
13278413944
13278419498
13278426334
13278431400
13278436832
13278441837
13278447513
13278454715
13278461795
13278467288
13278472293
13278477542
13278484012
13278489383
13278496768
13278502017
13278509097
13278514041
13278521793
13278527896
13278534610
13278539371
13278545840
13278552127
13278558475
13278563296
13278568912
13278574283
13278581485
13278588077
13278595523
13278602420
13278607547
13278614932
13278621585
13278629397
13278637210
13278642764
13278650698
13278662783
13278670657
13278678347
13278691043
13278700381
13278711245
13278720156
13278733279
13278740664
13278751345
13278759768
13278766055
13278775393
13278782351
13278788699
13278797854
13278804140
13278812563
13278820986
13278828127
13278833742
13278842898
13278851320
13278856692
13278864931
13278871218
13278878298
13278885744
13278891665
13278898806
13278905275
13278911074
13278916750
13278921938
13278927309
13278932558
13278938845
13278944643
13278951662
13278957460
13278963259
13278969667
13278974855
13278979372
13278986696
13278991945
13278998110
13279003359
13279009340
13279014711
13279021547
13279028261
13279034181
13279040102
13279045595
13279051332
13279056825
13279063966
13279071718
13279075563
13279084108
13279089723
13279094179
13279099855
13279107057
13279114198
13279147218
13279153932
13279159974
13279166444
13279172487
13279177553
13279184938
13279188844
13279193239
13279197694
13279202089
13279206178
13279212037
13279216066
13279222108
13279226503
13279232423
13279236512
13279241761
13279245729
13279251466
13279256471
13279260011
13279266542
13279271180
13279275697
13279280885
13279285157
13279289857
13279294923
13279298890
13279303590
13279308229
13279313844
13279319520
13279323365
13279328919
13279333863
13279338136
13279343385
13279347535
13279352784
13279357911
13279363221
13279367005
13279373902
13279377686
13279383607
13279388978
13279394105
13279398499
13279403382
13279408082
13279411622
13279417115
13279421998
13279428712
13279433228
13279437867
13279442444
13279447693
13279452332
13279457154
13279461426
13279466248
13279471924
13279477540
13279482972
13279488038
13279493409
13279498902
13279504029
13279509095
13279513733
13279518860
13279524109
13279526551
13279534180
13279538147
13279543763
13279547425
13279553345
13279557740
13279563599
13279568604
13279574707
13279581055
13279588501
13279593994
13279598816
13279605286
13279611206
13279619019
13279627381
13279632568
13279637390
13279642151
13279646362
13279650757
13279654785
13279661072
13279664856
13279669983
13279675110
13279679749
13279683167
13279688904
13279692871
13279701111
13279706421
13279710815
13279716309
13279721069
13279727783
13279733154
13279738159
13279743347
13279748108
13279754272
13279758606
13279763855
13279766784
13279774292
13279779175
13279784729
13279790161
13279795410
13279798523
13279806274
13279810974
13279819214
13279822631
13279829406
13279833496
13279839538
13279843750
13279850891
13279856506
13279863098
13279867614
13279875854
13279881469
13279887207
13279891784
13279897766
13279904052
13279908813
13279914001
13279916992
13279928527
13279934020
13279940063
13279942993
13279949523
13279954162
13279960143
13279964721
13279971557
13279978698
13279983031
13279988525
13279993774
13279999084
13280004699
13280009643
13280013366
13280021972
13280026916
13280032653
13280038878
13280043578
13280046508
13280053466
13280057860
13280066710
13280072692
13280081786
13280089171
13280098876
13280106749
13280113280
13280119078
13280123961
13280130187
13280135131
13280140807
13280145690
13280151976
13280159484
13280165221
13280170226
13280175292
13280181822
13280187255
13280192748
13280196715
13280204955
13280209593
13280214781
13280218932
13280225157
13280227721
13280234313
13280238219
13280244750
13280247191
13280254515
13280258421
13280263854
13280268858
13280274413
13280278929
13280286803
13280292357
13280297301
13280301634
13280306578
13280311400
13280316344
13280319639
13280328490
13280333128
13280338072
13280342711
13280347777
13280352537
13280357359
13280362059
13280367369
13280373350
13280377623
13280383299
13280389097
13280393919
13280400084
13280405455
13280412657
13280417662
13280423277
13280428465
13280435301
13280439451
13280445921
13280451719
13280457945
13280463682
13280470213
13280475340
13280481932
13280484983
13280492430
13280497740
13280505186
13280509275
13280517942
13280523496
13280528440
13280533872
13280538877
13280546323
13280551878
13280558836
13280563413
13280570860
13280576597
13280581724
13280588255
13280593259
13280602232
13280607053
13280613889
13280618040
13280624814
13280630491
13280635435
13280638425
13280649167
13280655149
13280660825
13280665647
13280672361
13280676816
13280683103
13280688108
13280694211
13280700437
13280710080
13280716306
13280721433
13280729673
13280734739
13280741391
13280747800
13280755124
13280758298
13280766416
13280772275
13280777036
13280781003
13280788632
13280791562
13280798337
13280802365
13280809567
13280812253
13280819699
13280824094
13280831479
13280836240
13280842526
13280844968
13280852170
13280857175
13280862119
13280866452
13280873410
13280879880
13280884885
13280887936
13280895261
13280899533
13280906491
13280910519
13280917905
13280922299
13280929623
13280932187
13280940304
13280947323
13280952267
13280957394
13280966244
13280972836
13280977353
13280982602
13280987240
13280992489
13281000973
13281003903
