12988974926
12988984814
12988992932
12989000317
12989009106
12989016308
12989024487
12989032360
12989039807
12989048901
12989056164
12989063366
12989070385
12989079479
12989085949
12989089733
12989099743
12989109142
12989115612
12989124035
12989132275
12989140392
12989147106
12989154125
12989164562
12989170788
12989176891
12989186168
12989193371
12989200817
12989209484
12989215526
12989222667
12989232677
12989238781
12989246471
12989255931
12989263500
12989271373
12989279552
12989287426
12989293956
12989301158
12989308483
12989316356
12989322826
12989331127
12989339549
12989345958
12989353526
12989358348
12989366588
12989374095
12989380138
12989386302
12989393626
12989400523
12989404979
12989412669
12989420421
12989426646
12989432506
12989438792
12989445933
12989451366
12989459056
12989465892
12989471995
12989478282
12989485057
12989491893
12989500926
12989506419
12989513804
12989518565
12989522593
12989527781
12989532298
12989536265
12989539988
12989544200
12989551158
12989555735
12989558970
12989563914
12989568431
12989573436
12989577952
12989582957
12989587474
12989591197
12989596995
12989601329
12989606211
12989610301
12989614634
12989619029
12989624583
12989629405
12989634043
12989639170
12989644480
12989648936
12989653208
12989657664
12989663523
12989668101
12989672129
12989676463
12989681895
12989687205
12989691966
12989697031
12989701548
12989706431
12989711680
12989716502
12989720774
12989725779
12989731394
12989735911
12989740305
12989746226
12989755564
12989762400
12989771555
12989778940
12989785349
12989794565
12989802256
12989809397
12989816477
12989825083
12989831553
12989838388
12989848032
12989854685
12989863047
12989869944
12989876474
12989883432
12989891245
12989897959
12989904001
12989910471
12989918466
12989924875
12989931223
12989937326
12989943430
12989949106
12989954050
12989959177
12989963571
12989967661
12989972482
12989976633
12989981210
12989985849
12989992563
12989996835
12990001352
12990006479
12990012399
12990018076
12990024545
12990031137
12990035837
12990042123
12990046091
12990051462
12990057626
12990063058
12990068613
12990074045
12990079721
12990086069
12990091806
12990094613
12990101510
12990106149
12990111459
12990115854
12990123117
12990127450
12990133676
12990138559
12990143502
12990149667
12990153939
12990158822
12990164193
12990170785
12990177926
12990183786
12990188546
12990194650
12990200021
12990206002
12990210580
12990216989
12990227670
12990233956
12990240304
12990250253
12990256844
12990264718
12990271737
12990279855
12990288216
12990297189
12990306344
12990313546
12990320626
12990327462
12990334115
12990340890
12990348580
12990356881
12990367013
12990372445
12990379769
12990387765
12990395943
12990403756
12990411873
12990419625
12990429024
12990435067
12990443489
12990449410
12990455452
12990460457
12990469490
12990473519
12990485421
12990490975
12990495369
12990499825
12990503914
12990509041
12990515267
12990519844
12990524910
12990530159
12990535347
12990540535
12990545784
12990551399
12990556404
12990560921
12990565865
12990571175
12990576180
12990580757
12990586739
12990590767
12990595406
12990600105
12990604683
12990608589
12990613289
12990618721
12990623421
12990630989
12990636726
12990641853
12990647896
12990653206
12990658516
12990662544
12990667122
12990673042
12990677681
12990681465
12990686958
12990693306
12990701545
12990706917
12990715217
12990720344
12990728462
12990734871
12990740791
12990747383
12990754646
12990763130
12990770454
12990776619
12990784248
12990790534
12990800361
12990806465
12990813728
12990821052
12990828437
12990837409
12990844489
12990852119
12990859809
12990866157
12990874580
12990879890
12990884406
12990889411
12990895271
12990899543
12990905524
12990911994
12990918159
12990923347
12990927619
12990933478
12990937690
12990944282
12990948737
12990954597
12990959846
12990964301
12990972480
12990976813
12990982978
12990988532
12990995368
12991000556
12991006415
12991011603
12991019477
12991027839
12991033454
12991038215
12991042853
12991047492
12991053839
12991059760
12991066108
12991071357
12991076239
12991081000
12991087165
12991090338
12991095587
12991099494
12991103949
12991108893
12991115119
12991120734
12991124701
12991130133
12991135382
12991140265
12991146552
12991152960
12991159247
12991166266
12991173102
12991180487
12991188178
12991194464
12991200690
12991207953
12991213873
12991222052
12991228278
12991235297
12991241400
12991248053
12991255743
12991264044
12991273077
12991280523
12991287298
12991294317
12991302069
12991308905
12991315802
12991322577
12991330084
12991336859
12991342596
12991348455
12991353033
12991358587
12991364019
12991369513
12991374517
12991381292
12991387274
12991391546
12991396185
12991402532
12991410650
12991417059
12991422613
12991428472
12991433843
12991439092
12991445379
12991450811
12991457037
12991461614
12991468206
12991474249
12991479681
12991485906
12991490057
12991495184
12991501470
12991509588
12991513921
12991520025
12991526495
12991532476
12991537359
12991543767
12991548345
12991554632
12991560857
12991567205
12991572210
12991577947
12991583745
12991589361
12991594976
12991601446
12991606695
12991614141
12991620000
12991625860
12991633184
12991637578
12991645513
12991653386
12991658818
12991667791
12991673894
12991681645
12991689275
12991695867
12991702397
12991708806
12991714116
12991722295
12991727605
12991735539
12991742436
12991748967
12991756352
12991763127
12991770940
12991777409
12991783879
12991790715
12991797612
12991804387
12991811162
12991817998
12991825810
12991833501
12991839421
12991846257
12991849614
12991856328
12991862187
12991866704
12991872807
12991880803
12991885136
12991889592
12991895390
12991900029
12991905888
12991913151
12991918522
12991923832
12991928593
12991932560
12991938359
12991942997
12991948552
12991954899
12991960942
12991966008
12991971440
12991974675
12991983708
12991989445
12991993046
12991998356
12992005924
12992011479
12992014958
12992021122
12992027775
12992034550
12992039860
12992044865
12992051029
12992055241
12992062077
12992066410
12992072453
12992076725
12992084538
12992088139
12992093693
12992100956
12992107365
12992112614
12992118107
12992123417
12992129032
12992137211
12992144474
12992151981
12992159672
12992168827
12992175785
12992182865
12992191593
12992198612
12992205570
12992213382
12992221378
12992228702
12992237857
12992244266
12992252811
12992262149
12992269474
12992275455
12992286319
12992297855
12992302066
12992310611
12992317630
12992326114
12992333316
12992340213
12992345645
12992350833
12992358585
12992363895
12992368655
12992373294
12992378848
12992385806
12992392276
12992397830
12992403018
12992408389
12992413638
12992418521
12992424991
12992429690
12992432498
12992438724
12992443790
12992452029
12992454715
12992460757
12992464480
12992469851
12992473514
12992478824
12992482974
12992487674
12992494021
12992501529
12992506289
12992516055
12992521182
12992526126
12992530337
12992536624
12992540591
12992546878
12992551516
12992559390
12992563967
12992569705
12992573794
12992579531
12992584475
12992589724
12992594973
12992600222
12992606082
12992614504
12992621584
12992629397
12992636355
12992642886
12992649844
12992657229
12992665225
12992674136
12992679690
12992686953
12992695193
12992702578
12992709536
12992714724
12992724062
12992732607
12992739626
12992745913
12992752383
12992759340
12992766909
12992774050
12992781191
12992789858
12992797609
12992802370
12992807253
12992812014
12992818728
12992823244
12992828554
12992831911
12992839357
12992845278
12992849062
12992855104
12992859926
12992862917
12992871096
12992877626
12992883913
12992890566
12992896120
12992902162
12992907411
12992913515
12992919008
12992925539
12992931093
12992937319
12992942507
12992948183
12992954347
12992958742
12992962648
12992967226
12992973146
12992977235
12992982729
12992989320
12992994203
12992999879
12993004457
12993011232
12993016298
12993021730
12993026918
12993031557
12993036256
12993040590
12993046815
12993051210
12993060975
12993067018
12993072694
12993079286
12993087648
12993092775
12993099244
12993105653
12993113160
12993118043
12993124513
12993131593
12993139039
12993147401
12993154908
12993160707
12993167421
12993174256
12993181642
12993189515
12993194093
12993204957
12993211976
12993219300
12993224977
12993232118
12993238587
12993243714
12993248231
12993254884
12993259278
12993265931
12993270326
12993275880
12993282777
12993288575
12993292237
12993298096
12993301881
12993306275
12993310792
12993316468
12993320252
12993325928
12993332154
12993339844
12993345093
12993349427
12993354859
12993359742
12993365601
12993370179
12993376526
12993379761
12993385865
12993389649
12993396912
12993401856
12993407898
12993414978
12993419739
12993426392
12993431275
12993436829
12993442749
12993448365
12993454285
12993460694
12993466797
12993471375
12993478638
12993484192
12993489319
12993497315
12993503662
12993510864
12993516785
12993523804
12993531677
12993539185
12993545776
12993553284
12993558777
12993565979
12993573242
12993579834
12993586060
12993593506
12993601074
12993608765
12993614868
12993622558
12993630798
12993638489
12993645813
12993653564
12993660278
12993668640
12993674988
12993682739
12993691406
12993698059
12993701843
12993707275
12993712829
12993717895
12993722839
12993728454
12993733398
12993739929
12993745483
12993750915
12993756652
12993762512
12993766906
12993771240
12993776611
12993781188
12993785217
12993791381
12993796569
12993801269
12993808166
12993813049
12993818115
12993823791
12993829345
12993835021
12993839050
12993845825
12993851806
12993857360
12993863342
12993868591
12993874267
12993879272
12993885192
12993891296
12993897765
12993901672
12993908813
12993912902
12993918029
12993922240
12993927856
12993933715
12993939147
12993944762
12993949767
12993955626
12993961242
12993969298
12993977660
12993984740
12993992125
12993999572
12994007872
12994015197
12994023619
12994030822
12994036498
12994044005
12994052733
12994060179
12994068175
12994072570
12994082213
12994090514
12994097594
12994106200
12994112731
12994121153
12994130919
12994138793
12994143858
12994151732
12994159728
12994167418
12994172362
12994177489
12994182860
12994186705
12994192076
12994197203
12994201903
12994208006
12994213560
12994221617
12994227598
12994233275
12994239317
12994244139
12994249632
12994254820
12994261717
12994267454
12994271483
12994277098
12994282835
12994287596
12994293516
12994299376
12994305174
12994310728
12994316160
12994320982
12994324888
12994330198
12994335569
12994340574
12994348143
12994356016
12994361875
12994366941
12994371580
12994376768
12994381590
12994388975
12994396910
12994404783
12994410581
12994417051
12994423704
12994430967
12994437803
12994443845
12994449583
12994455564
12994461790
12994467039
12994474119
12994481077
12994487363
12994493406
12994499204
12994505125
12994510862
12994516599
12994522398
12994529355
12994535276
12994540952
12994546934
12994552427
12994557737
12994564634
12994570920
12994576719
12994582944
12994589414
12994595578
12994601072
12994607053
12994611753
12994616452
12994621640
12994626096
12994630002
12994634153
12994639157
12994643369
12994648374
12994654538
12994661374
12994665952
12994672177
12994675534
12994680783
12994684262
12994690793
12994696225
12994699765
12994705197
12994708737
12994714108
12994717954
12994723203
12994728879
12994733884
12994738950
12994743283
12994749631
12994754208
12994758481
12994763913
12994767880
12994772153
12994777463
12994781552
12994787167
12994790646
12994794919
12994799435
12994804501
12994809018
12994813229
12994817013
12994821286
12994826230
12994830746
12994837460
12994843930
12994848935
12994855832
12994864132
12994870358
12994879025
12994886776
12994892270
12994900204
12994906552
12994913510
12994920102
12994927426
12994933285
12994940426
12994947262
12994953915
12994960141
12994967526
12994974179
12994981381
12994987606
12994996090
12995002377
12995010678
12995018673
12995024716
12995029965
12995034115
12995039608
12995045773
12995051693
12995056881
12995062374
12995067806
12995072872
12995077511
12995082027
12995087521
12995092953
12995100643
12995104061
12995108456
12995113399
12995118099
12995124325
12995130245
12995135494
12995140621
12995145016
12995150936
12995156551
12995161495
12995167782
12995175960
12995181514
12995188167
12995194210
12995199886
12995206783
12995212337
12995218746
12995227108
12995231929
12995236995
12995244625
12995250240
12995253047
12995259578
12995266475
12995270259
12995277461
12995281185
12995287776
12995292476
12995298824
12995306270
12995313655
12995321956
12995329402
12995337337
12995343929
12995349239
12995356136
12995362483
12995370784
12995379390
12995387386
12995394099
12995399593
12995407161
12995414607
12995422420
12995429744
12995439082
12995445796
12995450801
12995459529
12995466182
12995473079
12995480037
12995486873
12995491694
12995498896
12995502986
12995507502
12995513362
12995518916
12995524531
12995529353
12995535273
12995540705
12995548030
12995554927
12995561396
12995566523
12995572688
12995579707
12995586177
12995592951
12995597041
12995601985
12995609980
12995615717
12995621516
12995626399
12995632807
12995638545
12995643366
12995648615
12995655085
12995661860
12995666804
12995672907
12995679682
12995686396
12995691279
12995696833
12995702143
12995706660
12995712519
12995718256
12995724848
12995729365
12995737787
12995742243
12995748713
12995753779
12995759516
12995765070
12995772089
12995778803
12995783381
12995787165
12995799799
12995804499
12995813959
12995823236
12995832148
12995840509
12995848383
12995856623
12995864008
12995871454
12995878290
12995886530
12995895014
12995902582
12995909296
12995917902
12995925714
12995934564
12995941095
12995948785
12995955866
12995964655
12995972162
12995980768
12995985406
12995994806
12996001703
12996006891
12996012445
12996018976
12996022211
12996027826
12996033014
12996040277
12996044977
12996049066
12996056329
12996060480
12996069085
12996075433
12996080316
12996085992
12996091302
12996096978
12996102655
12996107721
12996113641
12996119256
12996124505
12996129937
12996134637
12996140985
12996146112
12996153497
12996161248
12996167535
12996173516
12996180291
12996186273
12996192620
12996196649
12996202386
12996208489
12996214349
12996218560
12996225030
12996230157
12996236504
12996242120
12996248223
12996254632
12996261041
12996266961
12996273186
12996278863
12996283562
12996290520
12996299187
12996307244
12996314446
12996321587
12996331536
12996336541
12996345696
12996354363
12996362359
12996369622
12996375908
12996384942
12996392388
12996400383
12996408196
12996414299
12996423272
12996429375
12996438652
12996443718
12996450981
12996460747
12996467766
12996477288
12996483513
12996491081
12996497368
12996502556
12996509087
12996515251
12996521599
12996527519
12996534294
12996540581
12996546196
12996555107
12996562370
12996567986
12996572441
12996578056
12996585747
12996590202
12996597710
12996602165
12996606865
12996610649
12996615654
12996620781
12996627128
12996632805
12996638664
12996643913
12996650078
12996657585
12996663322
12996668327
12996673149
12996679924
12996684807
12996690483
12996696159
12996701896
12996707451
12996712638
12996718071
12996725395
12996730522
12996735954
12996740959
12996746635
12996754264
12996758903
12996764091
12996770011
12996776298
12996781730
12996786064
12996792838
12996798149
12996805229
12996813346
12996820365
12996829215
12996833732
12996843375
12996849967
12996856925
12996866325
12996872794
12996880180
12996887870
12996895743
12996902824
12996911674
12996917289
12996925529
12996933890
12996939811
12996945975
12996956168
12996962638
12996969596
12996976859
12996984733
12996991874
12997000907
12997007560
12997013846
12997018912
12997023185
12997029410
12997035025
12997041007
12997046866
12997051749
12997057486
12997062369
12997066153
12997073416
12997079154
12997085074
12997090994
12997095755
12997100333
12997105032
12997110404
12997115653
12997120474
12997127432
12997130911
12997135733
12997142020
12997148795
12997155631
12997161917
12997167105
12997175711
12997179617
12997186148
12997192190
12997197684
12997203421
12997211111
12997219351
12997224051
12997230704
12997236197
12997242178
12997246206
12997251211
12997256888
12997263174
12997268545
12997274649
12997279959
12997285025
12997292166
12997298880
12997306326
12997312063
12997318594
12997326529
12997333975
12997339773
12997349234
12997357290
12997364431
12997370291
12997377798
12997384878
12997392751
12997400991
12997408865
12997415334
12997423513
12997428091
12997440359
12997448782
12997456960
12997461416
12997472341
12997479482
12997487295
12997493459
12997500295
12997506338
12997512380
12997517812
12997522939
12997526723
12997531301
12997538381
12997543203
12997547170
12997552785
12997558828
12997562917
12997567678
12997574941
12997580556
12997585805
12997590566
12997595998
12997600759
12997605886
12997611257
12997616933
12997622487
12997628469
12997633840
12997639455
12997644704
12997650563
12997657704
12997663869
12997669423
12997675588
12997679982
12997685536
12997690053
12997696584
12997703725
12997709706
12997716054
12997721730
12997726918
12997732350
12997737416
12997742421
12997749257
12997756459
12997763600
12997771046
12997775197
12997784840
12997791371
12997800465
12997807728
12997817738
12997824330
12997830617
12997839589
12997847523
12997854237
12997861866
12997869862
12997878407
12997885670
12997892994
12997899952
12997906361
12997916737
12997923939
12997929493
12997938160
12997945851
12997953968
12997961781
12997968006
12997973133
12997977589
12997982777
12997987843
12997995045
12998000172
12998005055
12998010365
12998016163
12998020802
12998026051
12998030689
12998037769
12998043263
12998047779
12998053028
12998060230
12998066090
12998073292
12998078907
12998084461
12998089954
12998095203
12998100635
12998105701
12998111317
12998117481
12998122120
12998127125
12998131580
12998135486
12998141590
12998145740
12998155079
12998159656
12998166736
12998171436
12998177784
12998181995
12998188343
12998193958
12998200245
12998207813
12998212696
12998219715
12998225208
12998231494
12998237049
12998243640
12998253345
12998260974
12998268360
12998275806
12998283191
12998289356
12998297168
12998303882
12998312244
12998319385
12998327686
12998335376
12998342883
12998349170
12998356494
12998363269
12998371692
12998380542
12998388354
12998394885
12998402698
12998410754
12998415210
12998424975
12998432788
12998437427
12998445178
12998451098
12998458301
12998463977
12998470874
12998476184
12998480456
12998486438
12998495044
12998500781
12998506152
12998513415
12998518359
12998523730
12998529284
12998538439
12998544543
12998551806
12998557055
12998563159
12998567980
12998573168
12998578723
12998584094
12998591052
12998597399
12998602831
12998608386
12998613818
12998619616
12998624438
12998629137
12998636279
12998643053
12998647692
12998652636
12998659716
12998664660
12998674975
12998680712
12998686999
12998697314
12998701708
12998706896
12998711657
12998717516
12998723192
12998728625
12998734484
12998740038
12998744616
12998750719
12998755663
12998760790
12998766832
12998772570
12998780687
12998784594
12998791552
12998798388
12998804857
12998809191
12998817797
12998822863
12998828051
12998833666
12998838671
12998844591
12998850023
12998855272
12998861986
12998866381
12998871813
12998876024
12998882128
12998887438
12998892748
12998896715
12998901781
12998906297
12998911180
12998917162
12998920458
12998927232
12998932237
12998936998
12998941637
12998949327
12998958177
12998973802
12998985033
12998995958
12999003953
12999010118
12999017320
12999023363
12999032091
12999038560
12999043687
12999049730
12999054246
12999059800
12999065477
12999071336
12999077256
12999082628
12999089036
12999094529
12999099595
12999104722
12999109666
12999114732
12999118028
12999123643
12999127488
12999133409
12999137071
12999142747
12999149217
12999154344
12999157517
12999162644
12999166734
12999171433
12999175096
12999180100
12999185166
12999189195
12999194505
12999196702
12999203782
12999208115
12999212327
12999217393
12999221848
12999225816
12999230027
12999234422
12999239610
12999243272
12999247727
12999253342
12999258958
12999265122
12999271653
12999276475
12999281419
12999287827
12999293320
12999299302
12999304429
12999309922
12999314927
12999319871
12999322861
12999329758
12999335557
12999342454
12999346970
12999351365
12999357468
12999361374
12999367783
12999373520
12999379380
12999386033
12999392136
12999398240
12999404282
12999410263
12999416550
12999422898
12999429367
12999434006
12999439804
12999445053
12999451767
12999458664
12999463303
12999469589
12999473740
12999480820
12999486130
12999492111
12999497849
12999501022
12999507309
12999512802
12999518845
12999526047
12999531174
12999537399
12999543442
12999548935
12999554794
12999560898
12999565903
12999573471
12999579758
12999589279
12999594467
12999600754
12999609238
12999614364
12999619858
12999625900
12999635055
12999640182
12999646408
12999652084
12999661056
12999668808
12999676803
12999685226
12999691879
12999698715
12999706283
12999713485
12999721054
12999731491
12999740829
12999747238
12999754379
12999760665
12999767013
12999773788
12999780502
12999788925
12999799178
12999805709
12999813094
12999821517
12999829025
12999837020
12999845382
12999853439
12999859542
12999867355
12999873885
12999881026
12999889266
12999899154
12999906905
12999913009
12999922774
12999930343
12999937240
12999944686
12999951644
12999959639
12999968062
12999976485
12999985396
12999992904
13000000838
13000008406
13000016463
13000025618
13000033492
13000040572
13000047896
13000056380
13000061812
13000070845
13000080428
13000088606
13000096297
13000103499
13000111128
13000119612
13000126997
13000134749
13000144392
13000150435
13000159163
13000165449
13000176070
13000183394
13000191511
13000199751
13000207136
13000215376
13000222700
13000233748
13000241133
13000251143
13000257856
13000267012
13000273298
13000280195
13000295942
13000305037
13000312361
13000322920
13000332014
13000341596
13000347822
13000358320
13000365644
13000374250
13000382795
13000388410
13000395796
13000405378
13000412702
13000421369
13000429182
13000439008
13000449201
13000456281
13000462263
13000470441
13000478071
13000485578
13000495038
13000502851
13000510419
13000518415
13000525190
13000532453
13000539533
13000548078
13000556257
13000563764
13000570661
13000579084
13000585675
13000594220
13000602033
13000609601
13000616559
13000625714
13000632367
13000640607
13000647809
13000656171
13000662213
13000671735
13000679181
13000686139
13000694013
13000702252
13000709882
13000716412
13000723309
13000731793
13000739117
13000747723
13000755231
13000762433
13000771527
13000776837
13000785870
13000793378
13000799847
13000807232
13000815716
13000823041
13000829571
13000837201
13000844037
13000853070
13000859051
13000867718
13000873700
13000879498
13000889386
13000897320
13000906964
13000911297
13000915570
13000920574
13000923504
13000928936
13000933270
13000939068
13000943218
13000947552
13000952496
13000955975
13000961346
13000965679
13000970501
13000976666
13000983074
13000988690
13000993267
13001000103
13001005596
13001009991
13001016338
13001020489
13001025860
13001030682
13001036114
13001039593
13001045940
13001051372
13001056194
13001061138
13001066692
13001071026
13001075237
13001080669
13001086162
13001090862
13001094646
13001100139
13001103802
13001108867
13001113506
13001118877
13001123577
13001127788
13001132610
13001137066
13001141094
13001146465
13001149822
13001155742
13001159221
13001164592
13001168804
13001172832
13001177776
13001182781
13001187786
13001192669
13001197490
13001201763
13001206462
13001210857
13001216167
13001220928
13001226055
13001231792
13001236125
13001240886
13001244914
13001250102
13001255840
13001259868
13001266094
13001271404
13001276042
13001281535
13001285747
13001290508
13001295085
13001298259
13001304424
13001309978
13001316142
13001319621
13001325725
13001330547
13001335735
13001341289
13001346049
13001350566
13001356364
13001360820
13001366191
13001372233
13001378154
13001382976
13001388103
13001391337
13001397929
13001405314
13001410930
13001416667
13001420451
13001427104
13001430400
13001436320
13001441325
13001447062
13001451640
13001459941
13001467265
13001470744
13001477946
13001486674
13001494242
13001501078
13001507243
13001513591
13001519145
13001523966
13001531535
13001535380
13001540751
13001547282
13001552653
13001558024
13001563151
13001568034
13001575114
13001580180
13001585551
13001589884
13001595683
13001600687
13001606242
13001611613
13001616312
13001620768
13001624491
13001631693
13001636820
13001641459
13001646647
13001651957
13001655741
13001661051
13001665873
13001670939
13001677653
13001682108
13001689005
13001692667
13001697794
13001703165
13001708903
13001715128
13001721171
13001727030
13001732218
13001736796
13001740397
13001745585
13001751444
13001756388
13001761759
13001767008
13001772684
13001777567
13001782755
13001787943
13001792337
13001799845
13001805826
13001811685
13001817240
13001822061
13001826822
13001832682
13001838114
13001842020
13001848795
13001853006
13001858682
13001863077
13001869303
13001873148
13001878763
13001885416
13001890176
13001895792
13001900858
13001906412
13001911356
13001916971
13001922464
13001928934
13001934976
13001940530
13001946329
13001951639
13001957376
13001962930
13001967752
13001974710
13001979959
13001987161
13001993692
13001998819
13002002542
13002008096
13002014871
13002022622
13002027139
13002036660
13002040750
13002047830
13002053811
13002061136
13002067422
13002072549
13002078897
13002085366
13002091287
13002096536
13002101663
13002106851
13002111978
13002117776
13002123880
13002131936
13002136941
13002143472
13002149392
13002155313
13002159463
13002166726
13002171670
13002178323
13002183450
13002188699
13002195046
13002198342
13002205056
13002208962
13002216470
13002221780
13002227822
13002233193
13002237283
13002243020
13002249001
13002254616
13002259988
13002266091
13002269936
13002277138
13002282815
13002287270
13002291970
13002298379
13002303444
13002308571
13002315407
13002320900
13002326882
13002331704
13002336403
13002341774
13002348122
13002353554
13002360939
13002365456
13002371560
13002377053
13002380227
13002386391
13002391579
13002397683
13002403237
13002409523
13002414711
13002420876
13002426369
13002430397
13002437172
13002441689
13002447792
13002454018
13002460060
13002465187
13002470741
13002475868
13002481545
13002486488
13002493996
13002497841
13002506386
13002513283
13002519203
13002526527
13002532631
13002540382
13002544899
13002554542
13002563637
13002571632
13002580299
13002588173
13002594826
13002601661
13002609718
13002617531
13002624550
13002633461
13002643837
13002651100
13002658424
13002668678
13002674720
13002684425
13002692726
13002698524
13002712135
13002720191
13002728614
13002739845
13002745826
13002754859
13002761756
13002768348
13002772621
13002783973
13002790870
13002798866
13002804969
13002809425
13002817603
13002822425
13002828895
13002834510
13002840003
13002845252
13002850623
13002855933
13002860877
13002865882
13002871314
13002873878
13002880530
13002887794
13002893043
13002897864
13002902808
13002907935
13002913367
13002917335
13002921973
13002929114
13002934607
13002939185
13002944434
13002950477
13002955787
13002959754
13002964270
13002971350
13002977088
13002982215
13002987403
13002993750
13002998694
13003003638
13003009680
13003015540
13003021643
13003027381
13003031104
13003036658
13003041846
13003047400
13003053198
13003057776
13003062476
13003070044
13003074439
13003080847
13003085791
13003090552
13003097022
13003101538
13003107214
13003111975
13003119666
13003124182
13003129614
13003134253
13003139929
13003145972
13003150183
13003156775
13003162695
13003167090
13003171973
13003177222
13003182837
13003191199
13003196875
13003202856
13003208532
13003215368
13003220434
13003225317
13003230139
13003235571
13003241674
13003247290
13003253271
13003258947
13003264380
13003268896
13003274267
13003279821
13003284704
13003292944
13003300512
13003304174
13003310095
13003316625
13003323095
13003329870
13003335913
13003341833
13003347204
13003352392
13003358068
13003364294
13003369177
13003375524
13003380163
13003384618
13003390173
13003396887
13003401830
13003407568
13003412572
13003417577
13003425207
13003430334
13003436132
13003440771
13003446508
13003450841
13003457128
13003461156
13003466222
13003471227
13003476232
13003481725
13003487157
13003492772
13003498205
13003502721
13003507848
13003513280
13003518285
13003523717
13003529455
13003536046
13003541784
13003546788
13003550451
13003556859
13003560949
13003566930
13003571508
13003577672
13003581578
13003587499
13003592443
13003597936
13003603856
13003609288
13003617162
13003622411
13003626805
13003632360
13003637975
13003643346
13003648107
13003654027
13003660191
13003666600
13003670995
13003677159
13003682103
13003687413
13003693822
13003699498
13003705052
13003711888
13003717809
13003723424
13003728429
13003732823
13003738805
13003744664
13003750340
13003755650
13003761449
13003767247
13003773167
13003777745
13003783604
13003788121
13003792943
13003798680
13003805150
13003810826
13003816380
13003821385
13003826024
13003831944
13003837498
13003843174
13003848301
13003854283
13003860447
13003867100
13003872532
13003878880
13003886937
13003893162
13003901280
13003907383
13003911839
13003918186
13003923435
13003928745
13003933933
13003940708
13003948155
13003953953
13003960301
13003965672
13003970371
13003975437
13003978062
13003984959
13003991551
13003996738
13004001072
13004006016
13004011753
13004017429
13004022495
13004027500
13004032688
13004038853
13004043247
13004049351
13004053867
13004060215
13004065464
13004070896
13004076206
13004082981
13004088230
13004093418
13004098545
13004102817
13004108494
13004113987
13004119419
13004127292
13004131565
13004137546
13004142124
13004148166
13004153537
13004157993
13004163181
13004168674
13004174717
13004180027
13004186252
13004191318
13004195896
13004201938
13004207736
13004213108
13004219455
13004225681
13004230258
13004235691
13004241733
13004246066
13004250461
13004257297
13004262973
13004269931
13004274509
13004279025
13004285251
13004290744
13004297214
13004302036
13004307162
13004311557
13004317233
13004323154
13004329806
13004336032
13004342929
13004348422
13004355258
13004364657
13004372043
13004376987
13004384006
13004391330
13004400424
13004408786
13004416049
13004422091
13004431308
13004441562
13004447848
13004455050
13004466525
13004471408
13004481845
13004492038
13004500460
13004506930
13004518832
13004529086
13004536410
13004544650
13004552706
13004560030
13004567172
13004575350
13004583529
13004591830
13004599947
13004607272
13004615145
13004622164
13004627291
13004634859
13004642489
13004649386
13004656100
13004662569
13004668307
13004674349
13004678316
13004682528
13004687838
13004693270
13004698031
13004703219
13004709993
13004715059
13004719515
13004724215
13004729281
13004735384
13004740206
13004746492
13004752474
13004757967
13004762545
13004766512
13004774385
13004780123
13004785555
13004790621
13004795870
13004801790
13004807222
13004813082
13004819856
13004824922
13004829805
13004836153
13004841097
13004847749
13004852022
13004856966
13004865450
13004870760
13004877901
13004882967
13004887911
13004891878
13004899263
13004904512
13004908784
13004916048
13004920564
13004925752
13004930940
13004935884
13004942232
13004946748
13004952363
13004959871
13004965486
13004971712
13004975130
13004982149
13004986787
13004993135
13004997285
13005003633
13005008394
13005014619
13005019685
13005026094
13005031282
13005037263
13005042329
13005048249
13005054048
13005059907
13005065705
13005071809
13005077424
13005083528
13005090058
13005094636
13005100801
13005107575
13005114106
13005120271
13005128266
13005135346
13005140595
13005148164
13005154267
13005158173
13005165131
13005171601
13005181184
13005185944
13005190644
13005195527
13005202668
13005207856
13005214509
13005219147
13005227509
13005233552
13005238740
13005243989
13005250458
13005257477
13005263093
13005265595
13005272004
13005276398
13005282014
13005286713
13005292206
13005300141
13005305451
13005310639
13005315888
13005319855
13005325531
13005329804
13005334687
13005341645
13005346589
13005352082
13005356598
13005362885
13005368134
13005374237
13005379547
13005385163
13005390534
13005396393
13005399262
13005407135
13005411347
13005417938
13005422150
13005427887
13005433197
13005439240
13005444489
13005450348
13005455841
13005460724
13005466278
13005471954
13005478241
13005483795
13005489533
13005495270
13005499664
13005505280
13005510651
13005516388
13005519928
13005526154
13005534882
13005540619
13005543976
13005550384
13005554901
13005561859
13005567169
13005572784
13005579742
13005585907
13005590484
13005596893
13005603424
13005608368
13005614166
13005619598
13005626251
13005635528
13005641571
13005645965
13005652008
13005658477
13005664825
13005670379
13005675018
13005683136
13005688507
13005695343
13005701446
13005706756
13005712127
13005719268
13005724761
13005732757
13005738983
13005744232
13005748565
13005754913
13005759795
13005765472
13005772247
13005777435
13005782745
13005789275
13005794219
13005799895
13005805999
13005812041
13005816741
13005822478
13005830047
13005836028
13005841094
13005847808
13005853484
13005858489
13005863799
13005868743
13005875457
13005881316
13005886321
13005892241
13005898162
13005903655
13005909758
13005913543
13005920989
13005926665
13005932708
13005937529
13005942290
13005947234
13005951690
13005956694
13005963897
13005970671
13005975981
13005980986
13005985320
13005990691
13005993315
13005999785
13006006682
13006012358
13006017668
13006022551
13006027007
13006031828
13006037139
13006042632
13006048857
13006054595
13006060210
13006065398
13006070097
13006075041
13006079009
13006084319
13006089812
13006097624
13006102202
13006107390
13006111784
13006116545
13006122221
13006126860
13006132414
13006139555
13006144987
13006150114
13006156340
13006160246
13006166105
13006169829
13006175627
13006182524
13006187468
13006192961
13006198393
13006204191
13006208708
13006212797
13006219572
13006224089
13006231352
13006235746
13006241118
13006246611
13006251860
13006258024
13006262846
13006271330
13006278288
13006284208
13006292875
13006300932
13006311552
13006316374
13006329130
13006337492
13006347074
13006355863
13006365934
13006374296
13006380216
13006389616
13006399259
13006406461
13006415433
13006424100
13006429044
13006440702
13006449308
13006458890
13006463895
13006472074
13006480619
13006490812
13006498807
13006505460
13006511625
13006517728
13006525113
13006529935
13006537198
13006546109
13006555997
13006564481
13006570829
13006579068
13006585172
13006592191
13006598477
13006608731
13006617337
13006624784
13006633267
13006638883
13006647855
13006653226
13006659451
13006669339
13006679532
13006686246
13006695706
13006702664
13006710904
13006721524
13006730252
13006738431
13006744107
13006752652
13006758389
13006768033
13006778470
13006785489
13006793118
13006800076
13006807583
13006815701
13006824124
13006831387
13006837674
13006845242
13006851223
13006859402
13006867581
13006875759
13006882962
13006888882
13006895840
13006902493
13006911709
13006919949
13006928921
13006935879
13006941067
13006948452
13006956997
13006964504
13006972256
13006978481
13006983242
13006993313
13007001125
13007009914
13007015530
13007024136
13007030727
13007037014
13007045193
13007052273
13007060818
13007067837
13007072719
13007080898
13007089504
13007097927
13007104946
13007112331
13007120205
13007127407
13007135769
13007143886
13007151271
13007158290
13007165371
13007170925
13007179714
13007186367
13007198390
13007205776
13007216335
13007223537
13007232753
13007237514
13007247463
13007258388
13007266444
13007277126
13007286952
13007293910
13007301967
13007309291
13007316371
13007325038
13007331935
13007340968
13007349574
13007354701
13007364284
13007370814
13007378444
13007386622
13007393031
13007401210
13007407863
13007416774
13007427943
13007433925
13007440455
13007446315
13007453273
13007459559
13007467250
13007473048
13007481593
13007489710
13007495265
13007501856
13007508509
13007517726
13007526454
13007535121
13007539576
13007550196
13007557459
13007564906
13007573206
13007579615
13007588160
13007595240
13007602503
13007609705
13007617213
13007624354
13007630335
13007641016
13007646693
13007652308
13007658533
13007665430
13007672938
13007677881
13007686121
13007695398
13007701502
13007709620
13007714808
13007721399
13007726160
13007733606
13007737574
13007745752
13007752100
13007757898
13007762781
13007768396
13007772974
13007778162
13007783838
13007789942
13007797205
13007801843
13007808435
13007814173
13007818689
13007823633
13007829126
13007834680
13007840296
13007846765
13007852380
13007859338
13007865747
13007871118
13007876123
13007881067
13007886377
13007893823
13007899499
13007903406
13007908899
13007915063
13007921167
13007925867
13007931360
13007938928
13007944726
13007950281
13007956384
13007961389
13007966211
13007973840
13007980554
13007987390
13007994226
13008002038
13008009301
13008012597
13008019006
13008023706
13008029260
13008036706
13008042138
13008047326
13008053247
13008059655
13008063806
13008068383
13008074182
13008079492
13008085412
13008090844
13008096337
13008101769
13008106408
13008113305
13008118249
13008121972
13008128625
13008133813
13008137963
13008143029
13008148461
13008154138
13008160058
13008165612
13008169274
13008176476
13008180871
13008188012
13008192467
13008198266
13008203210
13008208886
13008214135
13008220544
13008225854
13008230614
13008236535
13008241173
13008247948
13008253197
13008259118
13008265648
13008272057
13008276940
13008282494
13008288353
13008294091
13008296959
13008303368
13008308617
13008316185
13008320885
13008326073
13008330895
13008337059
13008342003
13008346764
13008352135
13008358971
13008366295
13008371117
13008376793
13008382164
13008387535
13008393028
13008398461
13008403710
13008409752
13008414513
13008419945
13008426293
13008432091
13008438622
13008445335
13008451195
13008460533
13008467247
13008473900
13008482445
13008490257
13008497276
13008503990
13008510826
13008518761
13008527611
13008536034
13008545555
13008553856
13008561180
13008571129
13008577659
13008587059
13008596458
13008606712
13008615928
13008624046
13008635398
13008645469
13008652977
13008663353
13008673667
13008684043
13008694480
13008703208
13008711387
13008721824
13008729820
13008737998
13008746543
13008754783
13008760703
13008769492
13008774253
13008784202
13008792808
13008802024
13008808616
13008819663
13008826987
13008834678
13008842795
13008851768
13008858420
13008867515
13008871726
13008883506
13008888450
13008900779
13008908408
13008917319
13008927024
13008934836
13008941245
13008948935
13008958945
13008966086
13008970725
13008980002
13008984580
13008996054
13009003745
13009012534
13009020285
13009025839
13009034323
13009040427
13009049277
13009058432
13009064413
13009070334
13009079916
13009086874
13009093222
13009099631
13009107748
13009115988
13009122580
13009128561
13009136374
13009142966
13009150290
13009160177
13009164511
13009172690
13009179953
13009185629
13009191916
13009199423
13009205160
13009212118
13009220236
13009228292
13009233908
13009240622
13009248983
13009255148
13009264181
13009270956
13009280294
13009286703
13009294821
13009302938
13009309774
13009318868
13009324850
13009332845
13009340292
13009347189
13009357870
13009367513
13009372152
13009382406
13009388570
13009398580
13009405416
13009412374
13009420553
13009426534
13009437948
13009445699
13009454000
13009459493
13009468709
13009475301
13009483968
13009491231
13009496297
13009505147
13009513143
13009522176
13009530111
13009536397
13009545430
13009550801
13009558797
13009566671
13009575643
13009582662
13009591695
13009598592
13009604207
13009612752
13009620076
13009629231
13009635701
13009642537
13009650472
13009658101
13009666951
13009673116
13009679097
13009685078
13009689961
13009696797
13009702656
13009709004
13009713338
13009717793
13009723591
13009728779
13009735249
13009740803
13009746358
13009752888
13009757405
13009764180
13009769124
13009774128
13009779561
13009785237
13009791035
13009795186
13009803486
13009809651
13009814228
13009819844
13009825093
13009831257
13009835591
13009840718
13009846272
13009854267
13009859089
13009864338
13009869343
13009874348
13009881672
13009884968
13009890583
13009898457
13009904377
13009910603
13009916218
13009921833
13009925984
13009930561
13009937397
13009944660
13009948383
13009953510
13009959675
13009965168
13009972248
13009977680
13009982197
13009990803
13009996723
13010003376
13010009296
13010014789
13010019245
13010025410
13010031025
13010036640
13010045185
13010050434
13010054584
13010061481
13010066303
13010071308
13010078937
13010083332
13010091694
13010097492
13010103351
13010109516
13010115619
13010120014
13010125995
13010132160
13010138080
13010143940
13010150409
13010155719
13010160663
13010167865
13010173480
13010178974
13010185687
13010192340
13010197528
13010204059
13010209857
13010216266
13010222125
13010228412
13010234515
13010240863
13010248431
13010254535
13010259357
13010265155
13010270526
13010276752
13010282062
13010287128
13010294452
13010300128
13010305011
13010310565
13010315875
13010320575
13010325519
13010331744
13010337420
13010342792
13010349200
13010354083
13010360370
13010364276
13010370196
13010373675
13010379107
13010385943
13010391192
13010397784
13010402728
13010408526
13010413836
13010418170
13010423724
13010432513
13010438067
13010441424
13010448443
13010452838
13010459490
13010464678
13010471636
13010476885
13010481402
13010488726
13010493975
13010499713
13010505206
13010511859
13010517352
13010523089
13010528826
13010534564
13010539935
13010546710
13010552508
13010557940
13010563860
13010570757
13010577898
13010583819
13010589800
13010595354
13010599566
13010605852
13010611651
13010618304
13010623125
13010629107
13010633501
13010638994
13010644610
13010649981
13010656267
13010662310
13010668474
13010674578
13010679949
13010685747
13010691240
13010697222
13010702959
13010708574
13010714922
13010720903
13010725786
13010731340
13010736711
13010742754
13010748369
13010754106
13010762468
13010768083
13010773638
13010780657
13010790117
13010797136
13010804399
13010811113
13010822710
13010830400
13010836870
13010846697
13010853899
13010862566
13010869402
13010875871
13010884416
13010893205
13010900224
13010908342
13010914628
13010920427
13010925676
13010932207
13010935747
13010942033
13010948686
13010954362
13010959062
13010964677
13010968950
13010976091
13010980546
13010985978
13010990617
13010996904
13011001542
13011006181
13011011796
13011017228
13011023759
13011030473
13011037553
13011042802
13011047380
13011053788
13011058366
13011064836
13011070085
13011075395
13011081376
13011086686
13011091508
13011098039
13011102555
13011107926
13011113297
13011119767
13011126420
13011132096
13011136796
13011143449
13011148881
13011154618
13011159684
13011164933
13011170792
13011176041
13011182267
13011187333
13011192582
13011197587
13011202897
13011209122
13011213761
13011221390
13011225663
13011231217
13011236161
13011242264
13011247269
13011253434
13011259598
13011265885
13011272538
13011280228
13011286637
13011291947
13011299332
13011304093
13011311478
13011318558
13011328873
13011336380
13011342240
13011350968
13011358902
13011364640
13011372757
13011378800
13011387711
13011398819
13011406082
13011413529
13011420792
13011430008
13011437210
13011443497
13011451187
13011458389
13011466629
13011474930
13011484451
13011489090
13011497696
13011504654
13011513565
13011519363
13011526932
13011535843
13011546280
13011551895
13011559463
13011567947
13011573990
13011583389
13011589065
13011595352
13011602249
13011612747
13011619705
13011625137
13011633010
13011637344
13011642776
13011649124
13011654922
13011660842
13011666580
13011671890
13011678176
13011683914
13011689529
13011695022
13011700210
13011705825
13011710952
13011716506
13011721877
13011727554
13011732436
13011738723
13011745010
13011748611
13011754226
13011761855
13011766738
13011771926
13011778945
13011783889
13011789504
13011795608
13011801223
13011807510
13011813003
13011817763
13011825332
13011829665
13011835097
13011839797
13011845107
13011851211
13011857009
13011862014
13011869399
13011876174
13011882033
13011887587
13011894057
13011900527
13011907851
13011912551
13011920974
13011926772
13011932143
13011938246
13011944167
13011949660
13011955886
13011961989
13011968154
13011974013
13011980788
13011983840
13011992507
13011996474
13012005873
13012011794
13012017775
13012022536
13012028578
13012034071
13012040297
13012046034
13012052748
13012058119
13012062453
13012068068
13012074721
13012080153
13012084914
13012090468
13012097548
13012102492
13012107069
13012112257
13012117506
13012124892
13012132216
13012139235
13012146864
13012154188
13012161696
13012167921
13012174757
13012181105
13012187819
13012193922
13012199598
13012204603
13012210157
13012214186
13012219130
13012223951
13012229872
13012237928
13012243483
13012248976
13012254530
13012260450
13012265150
13012270765
13012276991
13012281812
13012288526
13012293226
13012297254
13012301893
13012307203
13012312452
13012316969
13012322218
13012330579
13012336927
13012341749
13012346937
13012352003
13012357618
13012360426
13012367261
13012372327
13012378919
13012383558
13012388746
13012393751
13012399366
13012404859
13012410291
13012415662
13012420545
13012425611
13012430005
13012435682
13012441968
13012445997
13012451490
13012457044
13012462415
13012468946
13012475171
13012480542
13012485608
13012490918
13012495618
13012502820
13012507886
13012513684
13012519788
13012526197
13012530652
13012537122
13012541761
13012547315
13012552869
13012559949
13012565381
13012571973
13012577039
13012582776
13012588391
13012594495
13012600049
13012607617
13012611951
13012617932
13012622327
13012628735
13012633191
13012638318
13012644971
13012652295
13012658093
13012662732
13012666638
13012672986
13012678235
13012683362
13012689465
13012696179
13012702588
13012709424
13012716687
13012722973
13012728222
13012734387
13012743054
13012750561
13012755017
13012761303
13012766675
13012772290
13012778210
13012782544
13012789257
13012795178
13012800183
13012807019
13012812390
13012818493
13012823681
13012829663
13012836132
13012841626
13012846081
13012852001
13012856823
13012861462
13012866711
13012871960
13012877270
13012882824
13012888867
13012893933
13012901135
13012906017
13012912853
13012916454
13012923229
13012929699
13012933605
13012938488
13012943859
13012951000
13012957592
13012963207
13012968578
13012974071
13012979992
13012985058
13012991161
13012996532
13013000866
13013006542
13013012829
13013018871
13013024425
13013029918
13013035656
13013041332
13013046337
13013051708
13013059765
13013078197
13013084118
13013091747
13013096691
13013103222
13013108959
13013116283
13013120372
13013125743
13013132762
13013137950
13013143444
13013152050
13013157970
13013162792
13013169261
13013174694
13013180187
13013185192
13013190563
13013197704
13013204173
13013209361
13013214977
13013219493
13013224498
13013228587
13013235484
13013239024
13013247813
13013253795
13013261058
13013267100
13013274913
13013282603
13013290721
13013299510
13013306651
13013315928
13013325633
13013333751
13013343150
13013352122
13013358470
13013367137
13013373729
13013385020
13013392222
13013401072
13013408274
13013415721
13013424144
13013432505
13013441783
13013453440
13013460520
13013464793
13013474436
13013483103
13013489573
13013498301
13013502390
13013513011
13013519785
13013527903
13013535471
13013541636
13013548899
13013556040
13013561777
13013568919
13013577647
13013584177
13013594431
13013604746
13013611094
13013616404
13013620432
13013631174
13013637522
13013643931
13013651072
13013656260
13013666452
13013673777
13013679941
13013685984
13013693003
13013700022
13013706430
13013711802
13013717051
13013728708
13013732920
13013739939
13013748850
13013753855
13013760996
13013767099
13013774301
13013779367
13013787668
13013795358
13013801462
13013808908
13013816415
13013821665
13013828073
13013834543
13013841989
13013850534
13013857553
13013865854
13013872385
13013878915
13013883859
13013892831
13013898691
13013904306
13013913156
13013921274
13013925790
13013933236
13013940439
13013946237
13013954416
13013962167
13013968210
13013975961
13013984018
13013995187
13013999765
13014008065
13014015878
13014020944
13014028268
13014036386
13014045053
13014052865
13014062326
13014066964
13014074655
13014082467
13014088876
13014097543
13014104379
13014109506
13014117623
13014127145
13014137154
13014143258
13014150094
13014159676
13014166634
13014172127
13014180184
13014188485
13014195931
13014204293
13014212105
13014216622
13014226571
13014231087
13014237374
13014243355
13014248665
13014253975
13014261361
13014265999
13014272530
13014277047
13014282235
13014287850
13014295357
13014300118
13014304879
13014311898
13014317635
13014322213
13014329293
13014334969
13014340218
13014345894
13014351692
13014357002
13014363838
13014368050
13014374153
13014379463
13014384895
13014390755
13014397652
13014402168
13014409004
13014414131
13014420601
13014424507
13014431221
13014436226
13014442329
13014447273
13014453865
13014458809
13014464485
13014469856
13014476631
13014482124
13014487862
13014493294
13014498726
13014504280
13014509773
13014515205
13014522590
13014528450
13014531379
13014538704
13014543220
13014548408
13014553352
13014559211
13014566292
13014570747
13014577888
13014582161
13014588508
13014592842
13014598030
13014603645
13014609870
13014615608
13014622077
13014627510
13014633003
13014638252
13014644477
13014649299
13014654731
13014660102
13014665840
13014672004
13014675727
13014683479
13014687080
13014694648
13014701057
13014707771
13014714484
13014722602
13014729865
13014736579
13014742683
13014752021
13014759650
13014766425
13014776008
13014784675
13014791816
13014800788
13014811042
13014820746
13014828010
13014835456
13014842658
13014850898
13014859443
13014868903
13014874518
13014882209
13014888373
13014896125
13014901557
13014908149
13014914374
13014922736
13014932990
13014939643
13014946906
13014951789
13014961310
13014968573
13014973883
13014982550
13014988776
13014997687
13015006232
13015013190
13015021185
13015026679
13015033453
13015041754
13015049750
13015055060
13015063177
13015072150
13015080145
13015086981
13015094488
13015103094
13015109381
13015117315
13015122870
13015132574
13015139166
13015147528
13015156500
13015162420
13015170416
13015179022
13015186102
13015193975
13015202276
13015209295
13015218206
13015225836
13015232305
13015241583
13015246954
13015254888
13015263006
13015270635
13015278143
13015285528
13015292608
13015298345
13015305914
13015313543
13015319402
13015324163
13015332403
13015344305
13015353216
13015358892
13015366888
13015375127
13015380010
13015389471
13015396673
13015401922
13015413030
13015421880
13015429937
13015435003
13015442449
13015448858
13015456975
13015463933
13015471746
13015480657
13015490056
13015494573
13015504277
13015510503
13015515874
13015523564
13015531011
13015538274
13015548711
13015557744
13015562322
13015571111
13015578313
13015584172
13015591985
13015598943
13015603887
13015611760
13015624455
13015631596
13015641545
13015648015
13015657231
13015665227
13015670293
13015677983
13015688115
13015695744
13015705632
13015712956
13015721379
13015729863
13015737187
13015744938
13015751042
13015759282
13015765385
13015773686
13015783146
13015789677
13015795781
13015803654
13015810612
13015817509
13015822636
13015832463
13015842289
13015849369
13015856693
13015864628
13015871830
13015879643
13015886601
13015896855
13015905094
13015913212
13015919560
13015928593
13015935429
13015940739
13015950382
13015956791
13015966312
13015971439
13015982731
13015991398
13015997562
13016006046
13016010258
13016018009
13016026127
13016033085
13016044437
13016052372
13016059879
13016066288
13016074039
13016078434
13016087162
13016094608
13016100223
13016108829
13016115604
13016123966
13016127750
13016137699
13016144351
13016149661
13016157352
13016165042
13016170841
13016179691
13016188785
13016194888
13016202701
13016209781
13016216678
13016222537
13016231265
13016236148
13016244327
13016251834
13016259219
13016265994
13016273440
13016279605
13016287112
13016291324
13016300540
13016309390
13016328311
13016343142
13016358950
13016372073
13016378970
13016388247
13016396304
13016407046
13016415774
13016425601
13016433169
13016438845
13016446841
13016453005
13016461978
13016469119
13016475955
13016486636
13016499148
13016506106
13016514529
13016522219
13016530398
13016540347
13016548098
13016554934
13016565188
13016575503
13016583681
13016591372
13016601992
13016608584
13016615725
13016622927
13016628969
13016637941
13016646669
13016655153
13016662783
13016670229
13016676149
13016683290
13016690310
13016697023
13016703554
13016710268
13016717104
13016724306
13016730959
13016737490
13016742861
13016749758
13016757875
13016765138
13016770876
13016777712
13016783754
13016790895
13016796694
13016805055
13016811830
13016818300
13016825075
13016831972
13016839845
13016846620
13016854066
13016861757
13016869386
13016876222
13016884218
13016891115
13016898439
13016902284
13016910829
13016916017
13016921998
13016927980
13016933961
13016939760
13016944886
13016951051
13016954957
13016960389
13016967530
13016974427
13016980226
13016986634
13016990968
13016996644
13017002076
13017007936
13017014344
13017019837
13017026490
13017030885
13017036500
13017042665
13017047853
13017053895
13017059266
13017064942
13017070863
13017077210
13017082704
13017089295
13017095155
13017099854
13017108399
13017113526
13017123353
13017130189
13017135072
13017140992
13017147340
13017152100
13017158753
13017163575
13017170533
13017176392
13017181641
13017187256
13017193909
13017222840
13017235413
13017243836
13017252869
13017260865
13017268860
13017278687
13017285767
13017295227
13017303162
13017310974
13017318238
13017325257
13017333924
13017340271
13017347717
13017355164
13017363831
13017372254
13017379639
13017387573
13017396668
13017403320
13017410706
13017417236
13017424744
13017433838
13017441345
13017450012
13017457580
13017464050
13017469971
13017475403
13017481689
13017487060
13017492676
13017498840
13017508667
13017514282
13017521362
13017528869
13017534118
13017539612
13017545837
13017551147
13017556945
13017564270
13017569458
13017575317
13017581421
13017587585
13017593811
13017602233
13017611022
13017623046
13017639160
13017644714
13017649963
13017656249
13017663696
13017669921
13017675842
13017681091
13017687682
13017692321
13017699950
13017707336
13017714477
13017719970
13017725646
13017731994
13017738036
13017742797
13017749999
13017755187
13017763183
13017768737
13017774535
13017780089
13017787169
13017796203
13017803771
13017812865
13017820128
13017828124
13017835936
13017845092
13017852904
13017859984
13017867553
13017876097
13017883605
13017889525
13017897032
13017905699
13017914855
13017919799
13017929381
13017939208
13017947753
13017961119
13017967284
13017977049
13017986327
13017995055
13018006590
13018013609
13018021666
13018030028
13018035826
13018044188
13018051512
13018058470
13018064696
13018069884
13018075987
13018081358
13018086119
13018092650
13018098570
13018103697
13018109434
13018114805
13018121397
13018128294
13018133665
13018140928
13018145872
13018153318
13018159483
13018164915
13018171080
13018176268
13018181822
13018185179
13018193602
13018200743
13018208372
13018213377
13018218565
13018223814
13018231565
13018236326
13018241880
13018248655
13018254576
13018260984
13018267637
13018273435
13018279600
13018285886
13018292051
13018300230
13018307371
13018311277
13018319151
13018325803
13018332090
13018340330
13018348936
13018357175
13018363401
13018372434
13018378477
13018386106
13018392698
13018402891
13018412534
13018420041
13018427182
13018435972
13018444700
13018450559
13018457395
13018464902
13018474302
13018481260
13018489499
13018495603
13018504819
13018510984
13018520993
13018529477
13018534360
13018541806
13018550839
13018557004
13018565854
13018572446
13018582333
13018589291
13018602597
13018608151
13018620114
13018625119
13018633481
13018638974
13018646237
13018653805
13018661252
13018668393
13018673947
13018680478
13018687619
13018691159
13018698666
13018708127
13018713681
13018720700
13018726193
13018730465
13018736447
13018743100
13018748532
13018753720
13018759091
13018763729
13018768551
13018775631
13018779721
13018785458
13018790829
13018797604
13018804196
13018811093
13018816036
13018821102
13018826412
13018835140
13018840389
13018846188
13018852657
13018859982
13018864315
13018870907
13018875668
13018880428
13018885372
13018891110
13018896053
13018901669
13018907894
13018914181
13018920162
13018924435
13018929745
13018935909
13018942013
13018948055
13018953426
13018958980
13018962337
13018969173
13018974727
13018980038
13018985958
13018992367
13018999630
13019004146
13019010128
13019015194
13019020626
13019024593
13019030025
13019035762
13019041378
13019046627
13019052425
13019057491
13019062679
13019067073
13019072811
13019079403
13019085140
13019090389
13019096004
13019101070
13019105709
13019110897
13019116634
13019122981
13019129878
13019135372
13019142269
13019147029
13019150997
13019156734
13019163204
13019167171
13019172786
13019178279
13019183101
13019189021
13019194881
13019198970
13019204829
13019210933
13019217525
13019225520
13019228877
13019235286
13019240230
13019245967
13019251826
13019258235
13019263545
13019269099
13019274715
13019281306
13019289302
13019294795
13019299190
13019305171
13019310969
13019315974
13019321223
13019324458
13019330012
13019334712
13019339106
13019345149
13019350154
13019356623
13019361201
13019366145
13019371028
13019376704
13019381404
13019386775
13019394526
13019400752
13019405268
13019409785
13019415766
13019419856
13019425105
13019429804
13019435542
13019441401
13019446894
13019451716
13019457392
13019462763
13019468073
13019473078
13019477534
13019484492
13019489069
13019493464
13019500300
13019504694
13019511774
13019516352
13019522395
13019528132
13019533381
13019539851
13019543085
13019549372
13019554499
13019559077
13019563654
13019569330
13019574885
13019580622
13019585932
13019590876
13019596186
13019600336
13019605585
13019610651
13019617548
13019623163
13019627619
13019633112
13019636225
13019643244
13019647272
13019652582
13019658136
13019663202
13019669245
13019675592
13019681208
13019688044
13019693659
13019699152
13019704218
13019714350
13019721369
13019728082
13019734369
13019739069
13019745111
13019750543
13019757440
13019765558
13019770868
13019778375
13019786493
13019794916
13019800714
13019808893
13019815546
13019823114
13019828302
13019836664
13019843744
13019848382
13019856195
13019862176
13019866693
13019873590
13019878412
13019883111
13019889032
13019894769
13019901300
13019906732
13019911249
13019917657
13019922601
13019928399
13019934137
13019939996
13019945428
13019950982
13019956109
13019961297
13019966790
13019972161
13019977349
13019983514
13019989373
13019993157
13019998345
13020003717
13020011285
13020016168
13020021356
13020028253
13020032647
13020039239
13020044976
13020051202
13020056329
13020062371
13020068536
13020071771
13020079888
13020084405
13020089593
13020097161
13020101800
13020108941
13020113335
13020118890
13020124017
13020130303
13020136468
13020142571
13020147088
13020153252
13020159722
13020166009
13020171868
13020176018
13020183526
13020188347
13020193535
13020199578
13020205987
13020212273
13020217705
13020223809
13020230340
13020235589
13020241570
13020247612
13020253655
13020256890
13020266045
13020270745
13020278008
13020283013
13020288567
13020295525
13020302056
13020309197
13020318840
13020324455
13020331963
13020337029
13020345329
13020352776
13020362297
13020369866
13020378105
13020386101
13020394585
13020404106
13020413811
13020421074
13020426262
13020437675
13020444328
13020456291
13020464165
13020471367
13020485527
13020490410
13020504204
13020513908
13020523918
13020530876
13020540764
13020550590
13020554924
13020566276
13020573234
13020577995
13020586967
13020595085
13020603202
13020607841
13020617668
13020624626
13020629386
13020637565
13020644401
13020651908
13020658378
13020664726
13020669914
13020676566
13020682365
13020687248
13020694328
13020700309
13020706413
