13443581184
13443586372
13443591743
13443595467
13443601692
13443606392
13443612740
13443617928
13443623665
13443629219
13443634224
13443639656
13443644539
13443649299
13443654793
13443660225
13443665657
13443670723
13443676277
13443681892
13443687507
13443692573
13443697151
13443702461
13443707405
13443712043
13443719368
13443725776
13443733223
13443739082
13443745063
13443752998
13443759162
13443765388
13443774848
13443782966
13443791206
13443797187
13443805183
13443814216
13443822212
13443829963
13443838874
13443846504
13443855598
13443861457
13443867011
13443874458
13443879890
13443885444
13443892890
13443897468
13443905219
13443909858
13443915839
13443921943
13443927436
13443932868
13443938911
13443944587
13443952399
13443957160
13443963874
13443969062
13443975776
13443980659
13443988166
13443998847
13444005744
13444012946
13444019721
13444024604
13444030585
13444037299
13444043158
13444047370
13444053168
13444056525
13444062018
13444066596
13444070380
13444075934
13444079108
13444084357
13444088263
13444092902
13444098273
13444102545
13444107733
13444111457
13444115790
13444120429
13444123725
13444129157
13444133612
13444140448
13444144843
13444150092
13444156195
13444160773
13444165900
13444171515
13444176825
13444181708
13444185248
13444189032
13444193671
13444199408
13444204718
13444208746
13444213019
13444219000
13444224127
13444230963
13444236395
13444247198
13444252814
13444261664
13444268194
13444275702
13444283270
13444288031
13444294317
13444301092
13444307257
13444312140
13444319342
13444324286
13444333197
13444340460
13444346991
13444353399
13444359930
13444362921
13444372381
13444379888
13444386846
13444392828
13444398504
13444402410
13444408209
13444412481
13444418035
13444423040
13444428594
13444432195
13444437261
13444442144
13444446905
13444451177
13444455023
13444461370
13444465093
13444472356
13444477605
13444484747
13444490240
13444496648
13444503118
13444510747
13444515874
13444521062
13444525762
13444531927
13444537786
13444543340
13444548101
13444552312
13444557500
13444561590
13444566472
13444573003
13444578130
13444583440
13444587774
13444592717
13444598089
13444602666
13444607488
13444612371
13444615911
13444624517
13444631597
13444638005
13444645452
13444652471
13444658086
13444663274
13444668706
13444675176
13444682378
13444686894
13444693059
13444700322
13444706731
13444711736
13444719853
13444728032
13444735417
13444741033
13444751164
13444758855
13444766118
13444772832
13444780034
13444787663
13444794377
13444799199
13444806279
13444810735
13444815373
13444820195
13444824834
13444829472
13444834050
13444838750
13444845341
13444850041
13444856022
13444861394
13444866948
13444872258
13444877141
13444882817
13444888310
13444892705
13444897770
13444903264
13444908268
13444912236
13444918461
13444922856
13444927433
13444933903
13444938054
13444944279
13444948857
13444955326
13444960148
13444966191
13444971806
13444976994
13444983708
13444988224
13444994633
13444999455
13445004154
13445009403
13445015873
13445021122
13445027287
13445034184
13445039189
13445046574
13445053043
13445057926
13445064152
13445070988
13445079533
13445088200
13445095707
13445102299
13445109501
13445116093
13445126163
13445131962
13445140873
13445147037
13445155704
13445159672
13445169803
13445175541
13445183597
13445191105
13445198856
13445206669
13445214420
13445220890
13445229313
13445236454
13445244266
13445250919
13445260685
13445267643
13445273563
13445279239
13445283573
13445289920
13445295963
13445300785
13445306949
13445311588
13445318302
13445322513
13445326908
13445333682
13445338382
13445345340
13445351566
13445356326
13445362369
13445367435
13445373355
13445378299
13445384280
13445390384
13445396671
13445402408
13445407840
13445413272
13445417728
13445423770
13445428348
13445435367
13445441470
13445445254
13445452273
13445456485
13445462893
13445468142
13445473758
13445478457
13445484134
13445489444
13445495425
13445501529
13445505740
13445511538
13445517093
13445521792
13445527346
13445533938
13445538028
13445544375
13445550174
13445555239
13445561282
13445569216
13445577334
13445585818
13445594058
13445602481
13445610415
13445618655
13445625369
13445634341
13445640749
13445647341
13445656680
13445662600
13445672366
13445682619
13445692568
13445703310
13445710390
13445717226
13445726992
13445739626
13445745730
13445756777
13445764101
13445771547
13445774416
13445784548
13445789614
13445796694
13445801027
13445807375
13445811525
13445818178
13445823854
13445828981
13445836000
13445841921
13445848513
13445852602
13445858950
13445864382
13445869692
13445875856
13445881105
13445886965
13445893373
13445899172
13445903932
13445907961
13445914125
13445917482
13445925478
13445930605
13445938051
13445942690
13445947206
13445952882
13445957460
13445962404
13445968629
13445974306
13445979494
13445984743
13445990419
13445996034
13446002016
13446007082
13446014894
13446019777
13446026247
13446030702
13446036256
13446039369
13446046998
13446052919
13446060609
13446069826
13446077882
13446085878
13446093568
13446100953
13446110109
13446117372
13446126771
13446133363
13446141359
13446148805
13446156800
13446164308
13446172364
13446179383
13446188417
13446196229
13446204652
13446213868
13446220704
13446227418
13446238282
13446247620
13446254456
13446261903
13446269593
13446276307
13446282044
13446286195
13446291322
13446297791
13446302796
13446308167
13446314698
13446320191
13446326111
13446331422
13446338441
13446342957
13446349671
13446356812
13446361207
13446368531
13446374207
13446379822
13446385621
13446393982
13446400269
13446407410
13446412781
13446419373
13446424012
13446430725
13446435669
13446442261
13446448609
13446455506
13446460694
13446465760
13446471924
13446475830
13446485840
13446492676
13446497742
13446504883
13446509522
13446516113
13446521118
13446525879
13446531922
13446536926
13446542725
13446548706
13446553223
13446558411
13446565552
13446572327
13446579285
13446587830
13446594971
13446603516
13446609192
13446617737
13446624634
13446632995
13446638672
13446647705
13446655823
13446663208
13446671081
13446680786
13446688537
13446695984
13446702697
13446713134
13446719726
13446730041
13446738159
13446745666
13446752624
13446762634
13446767761
13446774658
13446779174
13446786437
13446791931
13446799072
13446803283
13446810241
13446815551
13446821227
13446827087
13446833984
13446839538
13446845031
13446848083
13446855102
13446859679
13446866943
13446873229
13446879394
13446883910
13446890502
13446895080
13446901977
13446906798
13446911742
13446918761
13446923644
13446930236
13446935851
13446941100
13446947082
13446952209
13446957519
13446963988
13446969787
13446976256
13446981322
13446986571
13446992431
13447000121
13447004149
13447012267
13447016723
13447024474
13447029723
13447036010
13447043212
13447048705
13447054015
13447060912
13447065306
13447075011
13447082030
13447088561
13447095214
13447104308
13447110655
13447117919
13447127684
13447134459
13447141905
13447148558
13447154906
13447164183
13447171324
13447180235
13447185240
13447194945
13447200865
13447211424
13447219786
13447227354
13447233580
13447243773
13447250303
13447260679
13447266661
13447272215
13447278196
13447284056
13447289732
13447295408
13447300657
13447306456
13447311216
13447316893
13447321287
13447328489
13447335020
13447340696
13447345274
13447352415
13447356871
13447363768
13447368589
13447375364
13447381346
13447385679
13447392210
13447396604
13447403379
13447408933
13447415769
13447419859
13447426573
13447431822
13447436887
13447443418
13447449339
13447454221
13447460996
13447465391
13447472349
13447477903
13447483091
13447487608
13447495237
13447499509
13447506528
13447510557
13447517271
13447522581
13447527463
13447533079
13447539976
13447546201
13447550901
13447557065
13447567075
13447576230
13447581785
13447592038
13447599363
13447607358
13447616330
13447622373
13447630979
13447638547
13447644651
13447654721
13447663999
13447672910
13447679563
13447689633
13447696347
13447706235
13447713254
13447720761
13447732114
13447740109
13447747311
13447754880
13447764767
13447770078
13447776852
13447783688
13447789181
13447795285
13447800351
13447804806
13447811886
13447816220
13447822873
13447828488
13447836667
13447841244
13447847470
13447853207
13447859006
13447865597
13447871457
13447876828
13447883664
13447889462
13447895077
13447901181
13447906796
13447911740
13447917721
13447924069
13447929806
13447934384
13447941159
13447946957
13447952511
13447956906
13447963009
13447969723
13447975521
13447979855
13447986141
13447990597
13447997738
13448002438
13448008297
13448014950
13448020138
13448026730
13448032894
13448037411
13448042355
13448048824
13448054256
13448059750
13448068661
13448077206
13448085445
13448094845
13448100094
13448110226
13448118038
13448125423
13448132198
13448142574
13448149410
13448157650
13448165462
13448173702
13448181637
13448189754
13448197689
13448205928
13448213802
13448221981
13448231380
13448239681
13448246761
13448254879
13448261287
13448271663
13448277217
13448285457
13448291500
13448296932
13448303401
13448308467
13448313228
13448319881
13448326106
13448330806
13448336910
13448343318
13448349117
13448355159
13448361140
13448368587
13448373653
13448381160
13448387508
13448393306
13448398799
13448406245
13448410762
13448417415
13448421748
13448428218
13448432551
13448438960
13448443049
13448449397
13448455195
13448460750
13448466487
13448473018
13448477778
13448482478
13448487971
13448493647
13448501033
13448506404
13448512263
13448518794
13448523921
13448530268
13448535334
13448540400
13448546199
13448552912
13448557734
13448564997
13448570246
13448580805
13448587275
13448595576
13448603633
13448611811
13448621333
13448628657
13448636225
13448644343
13448652644
13448660639
13448668574
13448676875
13448685236
13448693476
13448700739
13448708918
13448715388
13448724909
13448733942
13448743830
13448750727
13448758845
13448767084
13448773798
13448779169
13448786432
13448791864
13448797846
13448802729
13448808466
13448812922
13448819880
13448824335
13448830622
13448836969
13448843500
13448848566
13448853937
13448859980
13448865106
13448869745
13448876215
13448880976
13448886713
13448893183
13448897760
13448902826
13448908869
13448914545
13448919367
13448927118
13448931329
13448936456
13448943781
13448948297
13448955438
13448961969
13448966913
13448974115
13448979608
13448987421
13448993829
13448998407
13449005243
13449011346
13449017999
13449024469
13449031122
13449039544
13449044000
13449050287
13449054498
13449060541
13449069635
13449077142
13449084283
13449091546
13449101068
13449108209
13449115838
13449123651
13449127679
13449140374
13449148736
13449155755
13449163140
13449170587
13449178033
13449185662
13449193414
13449201653
13449209161
13449218682
13449224664
13449234124
13449240594
13449248833
13449259332
13449265984
13449271294
13449276910
13449282403
13449288018
13449293023
13449298577
13449304803
13449311028
13449316216
13449322442
13449328423
13449334466
13449339348
13449345086
13449351800
13449356194
13449360528
13449367302
13449373528
13449380059
13449384636
13449389763
13449396294
13449400689
13449408257
13449413384
13449419915
13449424431
13449431023
13449436028
13449442864
13449447991
13449454582
13449459526
13449466362
13449471123
13449477837
13449482598
13449489006
13449495232
13449500481
13449505852
13449510918
13449518730
13449524590
13449530388
13449536797
13449542839
13449548393
13449554497
13449562675
13449573540
13449580193
13449588493
13449597954
13449604362
13449613640
13449618950
13449629326
13449637932
13449646538
13449655632
13449663933
13449672172
13449681816
13449690910
13449699272
13449708366
13449716728
13449723625
13449734550
13449741569
13449749748
13449757743
13449765922
13449773490
13449780143
13449785880
13449791557
13449797355
13449805534
13449810600
13449817191
13449822440
13449828361
13449835075
13449840812
13449844169
13449851737
13449857658
13449863395
13449869804
13449875297
13449880180
13449885917
13449890494
13449898429
13449902824
13449910087
13449914542
13449921134
13449925590
13449931754
13449937491
13449944510
13449949027
13449955558
13449960074
13449967276
13449971793
13449978568
13449983573
13449989615
13449996390
13450002066
13450006583
13450011771
13450018363
13450022818
13450029654
13450035575
13450040885
13450046683
13450051749
13450057974
13450063285
13450067862
13450077078
13450083487
13450091544
13450099417
13450107657
13450117117
13450125357
13450133780
13450141837
13450146170
13450158987
13450163138
13450173819
13450183340
13450191336
13450195608
13450205496
13450211905
13450223379
13450231131
13450238577
13450245169
13450252920
13450263357
13450271048
13450277945
13450285025
13450290640
13450296133
13450301626
13450307241
13450311697
13450318777
13450323233
13450330923
13450336477
13450344290
13450350759
13450356985
13450361868
13450368704
13450373831
13450380422
13450387686
13450393728
13450399099
13450408010
13450413931
13450419241
13450422048
13450428762
13450434866
13450440420
13450446462
13450452077
13450456289
13450462026
13450466909
13450474844
13450479238
13450485219
13450490163
13450498037
13450502492
13450508230
13450515127
13450521352
13450527517
13450532644
13450540273
13450547841
13450552297
13450561330
13450566274
13450571645
13450577871
13450584279
13450591115
13450598989
13450606069
13450612111
13450622304
13450630849
13450638906
13450644643
13450654653
13450660878
13450669362
13450675771
13450685781
13450692128
13450700612
13450707326
13450717458
13450723622
13450733632
13450740163
13450748769
13450756581
13450765004
13450773000
13450779958
13450790089
13450795277
13450800831
13450807240
13450811574
13450816151
13450822987
13450827626
13450835255
13450839833
13450844716
13450851185
13450855519
13450862721
13450868092
13450874501
13450878712
13450885792
13450889576
13450896656
13450902089
13450907765
13450912220
13450921009
13450925831
13450931324
13450936695
13450942738
13450947193
13450953846
13450958241
13450963124
13450970326
13450975514
13450982105
13450987293
13450993214
13450999684
13451005543
13451011768
13451021351
13451027027
13451032642
13451038624
13451046497
13451050709
13451057728
13451061329
13451068165
13451073780
13451078785
13451084156
13451089222
13451095386
13451103260
13451109913
13451119129
13451125171
13451132557
13451140430
13451148487
13451157947
13451166919
13451174305
13451183033
13451189746
13451197071
13451203907
13451211597
13451218799
13451226917
13451234851
13451240772
13451250659
13451257007
13451267078
13451272998
13451281482
13451287341
13451296192
13451301746
13451307117
13451313525
13451318958
13451324451
13451330066
13451336353
13451341846
13451348621
13451354297
13451358813
13451365405
13451369922
13451376392
13451380969
13451386951
13451393725
13451398364
13451405017
13451410327
13451417041
13451421008
13451427722
13451433642
13451440051
13451444018
13451450549
13451455615
13451462207
13451466662
13451473620
13451478991
13451486865
13451492419
13451497729
13451503344
13451510119
13451514575
13451520190
13451525012
13451532092
13451537036
13451542773
13451549060
13451555285
13451561144
13451566882
13451573168
13451580065
13451585131
13451592333
13451599535
13451607775
13451617358
13451625414
13451632555
13451641467
13451648730
13451658251
13451668200
13451673510
13451683581
13451693102
13451700121
13451708788
13451719652
13451729723
13451737169
13451746752
13451753344
13451762011
13451771471
13451777086
13451786486
13451794298
13451801805
13451807360
13451813951
13451818956
13451825060
13451830553
13451838121
13451843248
13451848375
13451855455
13451860704
13451866991
13451872240
13451877550
13451884813
13451887682
13451896898
13451903063
13451908800
13451914049
13451920030
13451926378
13451932298
13451937120
13451942796
13451947313
13451953844
13451960619
13451966356
13451970933
13451978929
13451983385
13451988328
13451994859
13452000841
13452007066
13452011522
13452018480
13452023729
13452030443
13452036790
13452041124
13452046373
13452053026
13452059373
13452064134
13452069444
13452076280
13452081407
13452088060
13452092759
13452099412
13452106675
13452114122
13452124253
13452131883
13452137803
13452148179
13452155931
13452163560
13452171311
13452179490
13452189378
13452197190
13452204453
13452214646
13452222459
13452229783
13452236802
13452247056
13452253220
13452262437
13452271348
13452280015
13452287583
13452295640
13452303513
13452311753
13452318772
13452324448
13452329636
13452335129
13452339646
13452346055
13452353745
13452360032
13452365891
13452372117
13452377121
13452385056
13452389939
13452397629
13452402817
13452410019
13452414597
13452420090
13452426865
13452433213
13452437729
13452443711
13452449082
13452454514
13452460129
13452465378
13452470749
13452475998
13452481918
13452487229
13452491440
13452498276
13452502731
13452510239
13452514694
13452520248
13452526474
13452532333
13452538986
13452544662
13452549301
13452556808
13452561386
13452568527
13452574997
13452580490
13452585434
13452591171
13452597641
13452601913
13452611069
13452619491
13452625961
13452634811
13452643295
13452649887
13452659469
13452668502
13452674911
13452683517
13452692794
13452699386
13452708786
13452715683
13452725326
13452732040
13452741867
13452747848
13452757308
13452764511
13452773971
13452782333
13452789596
13452798995
13452806564
13452814254
13452819259
13452826156
13452831344
13452835677
13452842635
13452848800
13452854537
13452859603
13452866744
13452870956
13452877853
13452883041
13452888717
13452895064
13452901229
13452905868
13452911544
13452917525
13452923079
13452927962
13452933639
13452940413
13452947432
13452952010
13452958968
13452963790
13452969832
13452975814
13452981368
13452987166
13452991561
13452999800
13453007430
13453012618
13453018111
13453025496
13453030867
13453038863
13453044112
13453052168
13453057662
13453064925
13453069808
13453075789
13453079939
13453086287
13453091414
13453098372
13453103560
13453109602
13453113692
13453122298
13453129378
13453138838
13453146712
13453152632
13453160323
13453169661
13453176741
13453185347
13453191023
13453199629
13453206282
13453215437
13453223616
13453231550
13453237532
13453246931
13453256147
13453262678
13453273359
13453280012
13453288862
13453297407
13453305464
13453311933
13453319258
13453326216
13453330793
13453339155
13453343916
13453350508
13453356001
13453361006
13453366255
13453373335
13453379560
13453385114
13453390669
13453395857
13453400800
13453408064
13453413252
13453418928
13453428938
13453434370
13453439252
13453445600
13453451154
13453458051
13453463972
13453469770
13453476606
13453482709
13453488080
13453495344
13453499189
13453507123
13453513532
13453519025
13453523054
13453529096
13453534345
13453541791
13453546918
13453552900
13453558088
13453564801
13453570173
13453577314
13453582441
13453588178
13453594525
13453599042
13453606244
13453610700
13453615522
13453623273
13453629376
13453635053
13453638715
13453647443
13453654279
13453663373
13453669904
13453677655
13453684552
13453691449
13453700665
13453704755
13453711469
13453716229
13453723431
13453726849
13453735089
13453739667
13453747723
13453752240
13453759137
13453763287
13453770428
13453775372
13453780499
13453786175
13453792523
13453797711
13453802838
13453807232
13453814801
13453819867
13453824994
13453829999
13453836041
13453840191
13453846600
13453853497
13453857830
13453864178
13453868451
13453876324
13453880963
13453886395
13453892681
13453898663
13453904400
13453909527
13453916485
13453921734
13453926678
13453932537
13453939556
13453944988
13453950909
13453956524
13453962261
13453967816
13453971966
13453979595
13453984905
13453993450
13453999432
13454007549
13454012920
13454018536
13454024639
13454030193
13454036907
13454042278
13454048687
13454053326
13454060100
13454064800
13454071148
13454076214
13454082317
13454089519
13454095562
13454101848
13454107769
13454112713
13454118206
13454123028
13454131450
13454135662
13454142376
13454150676
13454155437
13454163189
13454167522
13454174419
13454180767
13454187053
13454193584
13454199626
13454207622
13454212383
13454218303
13454228557
13454234905
13454242534
13454250896
13454256206
13454262676
13454269939
13454276836
13454285991
13454290691
13454297160
13454301860
13454309795
13454314738
13454321513
13454327068
13454331401
13454339580
13454342631
13454350444
13454356242
13454362895
13454368266
13454375102
13454383769
13454390300
13454395793
13454401042
13454405681
13454410563
13454415507
13454421611
13454426677
13454432719
13454437175
13454443461
13454449015
13454453410
13454458110
13454464396
13454469889
13454474711
13454481608
13454486369
13454492778
13454497599
13454503886
13454510722
13454514994
13454522074
13454527934
13454532145
13454539775
13454544352
13454549296
13454556620
13454562357
13454567790
13454574076
13454579814
13454586283
13454592509
13454597208
13454603007
13454609232
13454614298
13454619669
13454627116
13454632487
13454638224
13454642863
13454649149
13454654093
13454661539
13454666727
13454671366
13454678507
13454684061
13454690165
13454694987
13454700785
13454706278
13454712809
13454718180
13454724405
13454730753
13454735819
13454744974
13454751200
13454758585
13454764261
13454769388
13454776529
13454781778
13454789041
13454796244
13454802286
13454808512
13454814127
13454820841
13454825540
13454830240
13454838602
13454844766
13454850687
13454857157
13454864786
13454869486
13454874918
13454881143
13454886514
13454894510
13454899881
13454904886
13454909708
13454914652
13454919351
13454924783
13454929666
13454936380
13454940286
13454946512
13454952676
13454956705
13454963174
13454968545
13454974710
13454978677
13454985696
13454992044
13454996866
13455002481
13455007364
13455012796
13455019021
13455023233
13455029214
13455033304
13455039346
13455044595
13455052224
13455058084
13455062661
13455068643
13455075418
13455081033
13455085366
13455090371
13455096719
13455100686
13455106790
13455112893
13455117227
13455122476
13455129373
13455134622
13455140908
13455147256
13455153237
13455159646
13455165200
13455170571
13455175881
13455182778
13455189553
13455195474
13455203042
13455207558
13455214761
13455220132
13455225686
13455233437
13455238137
13455244424
13455249184
13455256264
13455261452
13455268899
13455273659
13455278176
13455285012
13455290139
13455297524
13455302346
13455307717
13455313271
13455318703
13455323952
13455331887
13455337807
13455344033
13455348488
13455354714
13455360085
13455365822
13455372841
13455378823
13455389016
13455401100
13455407997
13455417580
13455423989
13455430458
13455438942
13455443459
13455450966
13455455849
13455461098
13455465859
13455472084
13455477333
13455481972
13455488869
13455493752
13455498879
13455505531
13455512367
13455516518
13455522499
13455526955
13455532631
13455538002
13455544838
13455550819
13455555397
13455560402
13455564918
13455570534
13455575050
13455580116
13455586281
13455592811
13455597145
13455602882
13455608803
13455614845
13455619606
13455626137
13455630470
13455635902
13455640175
13455646522
13455651283
13455658241
13455662635
13455668739
13455673133
13455681251
13455686927
13455692604
13455698158
13455704139
13455709815
13455715797
13455720985
13455727455
13455732582
13455739784
13455745216
13455750404
13455755531
13455761390
13455768531
13455774757
13455779212
13455786598
13455790321
13455798499
13455804908
13455810340
13455814857
13455820838
13455826392
13455832069
13455837562
13455843482
13455848304
13455854224
13455860633
13455866981
13455872535
13455878516
13455881934
13455890296
13455896583
13455902381
13455905616
13455913123
13455919105
13455923621
13455930091
13455936133
13455944800
13455954017
13455960547
13455965674
13455973853
13455978553
13455985877
13455992652
13455997596
13456005408
13456010657
13456018714
13456023596
13456029212
13456035010
13456039160
13456047095
13456052039
13456057166
13456063452
13456070410
13456075598
13456082434
13456087561
13456094824
13456099402
13456107031
13456113196
13456118628
13456124426
13456129736
13456134863
13456141699
13456146948
13456152380
13456157690
13456165259
13456171789
13456177649
13456181738
13456188452
13456194433
13456202551
13456208838
13456214453
13456219519
13456225195
13456231604
13456237585
13456243628
13456248938
13456253881
13456259741
13456262854
13456271704
13456277624
13456286535
13456289709
13456297705
13456303503
13456310217
13456316503
13456322424
13456325659
13456333715
13456338415
13456345251
13456348547
13456355078
13456360327
13456365698
13456371374
13456378454
13456383337
13456390295
13456395422
13456401342
13456406469
13456411047
13456419347
13456425634
13456432104
13456438085
13456443334
13456448644
13456454259
13456459753
13456465795
13456471288
13456475561
13456482274
13456487768
13456491796
13456496313
13456503454
13456508642
13456519262
13456526708
13456533788
13456538854
13456545324
13456553869
13456563207
13456569005
13456576757
13456581334
13456585973
13456593663
13456597203
13456607091
13456611852
13456618199
13456623021
13456630528
13456634801
13456641393
13456646825
13456654271
13456660130
13456664281
13456671178
13456675816
13456683446
13456690099
13456696141
13456701939
13456707921
13456715001
13456721104
13456726903
13456733800
13456739720
13456746556
13456751439
13456756444
13456762181
13456768529
13456773228
13456778111
13456784947
13456790135
13456795933
13456799901
13456805272
13456811558
13456817479
13456821812
13456827977
13456834874
13456840672
13456845677
13456851658
13456857823
13456862217
13456866612
13456873509
13456880833
13456885350
13456891636
13456896275
13456901951
13456908726
13456912876
13456921849
13456927830
13456932896
13456938877
13456945042
13456950535
13456955174
13456960911
13456967198
13456972080
13456976902
13456983311
13456988560
13456994480
13457000950
13457006565
13457015110
13457018955
13457025486
13457031162
13457035740
13457039158
13457047031
13457053806
13457059055
13457064182
13457069614
13457076084
13457081455
13457088169
13457094456
13457100803
13457107517
13457112888
13457117710
13457124973
13457131382
13457136692
13457142002
13457148533
13457153720
13457160617
13457164402
13457170139
13457177768
13457183628
13457190036
13457195285
13457201084
13457205966
13457211704
13457218357
13457225559
13457230747
13457236850
13457241306
13457247226
13457253085
13457256992
13457262485
13457268588
13457275668
13457281284
13457288425
13457295078
13457302219
13457308994
13457316440
13457321628
13457327304
13457332980
13457340060
13457344760
13457350558
13457356174
13457362155
13457366916
13457372836
13457377292
13457383578
13457387912
13457397189
13457404269
13457407992
13457416049
13457420932
13457427096
13457432040
13457438754
13457443209
13457449374
13457454928
13457461398
13457466952
13457472201
13457476962
13457482150
13457489169
13457493808
13457501193
13457505038
13457511264
13457516085
13457521212
13457525546
13457530795
13457536105
13457542880
13457549716
13457555819
13457560153
13457566256
13457573214
13457579806
13457585604
13457591708
13457597811
13457604403
13457610873
13457615328
13457620211
13457628085
13457633028
13457638338
13457645968
13457652437
13457658419
13457664400
13457670748
13457677523
13457683138
13457689852
13457695650
13457701876
13457709505
13457718233
13457725741
13457733126
13457743380
13457752962
13457761446
13457770906
13457779146
13457789400
13457797762
13457806490
13457812532
13457820894
13457828401
13457836031
13457845186
13457853670
13457862215
13457869966
13457877351
13457885408
13457893831
13457901399
13457909151
13457918123
13457926485
13457934846
13457942232
13457949861
13457957735
13457965669
13457972627
13457980501
13457989595
13457996675
13458007722
13458016511
13458024629
13458030000
13458039338
13458049470
13458057649
13458065156
13458073640
13458081208
13458087739
13458097200
13458102876
13458112763
13458119782
13458128816
13458137055
13458142915
13458152924
13458160920
13458169587
13458177461
13458184907
13458191560
13458201142
13458209687
13458216828
13458226777
13458235139
13458243317
13458249970
13458258759
13458268098
13458276703
13458285859
13458293915
13458301240
13458311493
13458320282
13458327851
13458336640
13458344208
13458353852
13458361420
13458368866
13458378632
13458386322
13458394013
13458402497
13458412995
13458422150
13458429535
13458442841
13458450592
13458462677
13458471527
13458481964
13458491547
13458500580
13458507782
13458516266
13458524383
13458531830
13458541901
13458551605
13458559540
13458566253
13458574676
13458582672
13458591461
13458598602
13458606659
13458616363
13458623443
13458633148
13458641082
13458648285
13458655975
13458664581
13458672088
13458681121
13458690399
13458698272
13458706390
13458715301
13458722686
13458732330
13458739044
13458748565
13458754974
13458764129
13458772430
13458778777
13458788665
13458794769
13458804839
13458812835
13458819915
13458825286
13458834136
13458842193
13458849578
13458857940
13458865386
13458872832
13458881377
13458889434
13458896087
13458902739
13458911040
13458918914
13458928069
13458935515
13458941130
13458951812
13458959868
13458969329
13458974944
13458984648
13458992766
13458999358
13459007476
13459015654
13459022856
13459030425
13459037566
13459044097
13459048125
13459051360
13459056181
13459059538
13459064360
13459067656
13459072905
13459078337
13459082793
13459086882
13459091338
13459095793
13459100249
13459104704
13459110808
13459116118
13459121367
13459126738
13459132536
13459136198
13459141814
13459146879
13459152617
13459156523
13459161711
13459167143
13459170988
13459176726
13459182402
13459189909
13459194731
13459198576
13459201994
13459206999
13459211210
13459214995
13459219999
13459225981
13459230558
13459235991
13459241117
13459246244
13459251554
13459255400
13459260099
13459265715
13459269743
13459273771
13459279936
13459285124
13459289945
13459294218
13459302152
13459305937
13459311186
13459315580
13459319608
13459323149
13459328764
13459333524
13459338041
13459341642
13459347807
13459352201
13459357633
13459362394
13459365812
13459370268
13459376005
13459380155
13459386259
13459389738
13459395292
13459399747
13459405912
13459411466
13459416715
13459421842
13459426420
13459430448
13459435270
13459440641
13459446073
13459451749
13459458036
13459463102
13459468473
13459473356
13459478788
13459482877
13459487760
13459492948
13459498746
13459505460
13459509549
13459515226
13459519803
13459526212
13459533780
13459538297
13459547391
13459552213
13459558194
13459564542
13459569242
13459574247
13459581815
13459586698
13459594022
13459600064
13459605496
13459610135
13459616178
13459621427
13459626309
13459635465
13459641995
13459648831
13459654691
13459661527
13459668301
13459673917
13459681363
13459685391
13459691739
13459697232
13459703885
13459709500
13459715176
13459719022
13459724820
13459731045
13459735806
13459740750
13459746792
13459754361
13459757779
13459766018
13459770901
13459775906
13459780606
13459785794
13459789395
13459794827
13459798611
13459804898
13459811490
13459817410
13459822720
13459827908
13459832302
13459838345
13459842129
13459849820
13459854336
13459859829
13459863613
13459869290
13459874234
13459879116
13459885281
13459889981
13459895718
13459899990
13459906765
13459911831
13459917507
13459922451
13459928433
13459935818
13459941982
13459946743
13459953518
13459960476
13459966885
13459971401
13459978359
13459984158
13459991421
13459996243
13460002346
13460007961
13460013943
13460016994
13460026211
13460032436
13460037746
13460044338
13460050014
13460055569
13460062038
13460070156
13460076137
13460081630
13460086696
13460094265
13460099880
13460107387
13460111232
13460118007
13460123012
13460128200
13460135158
13460140346
13460147976
13460152553
13460159206
13460163784
13460168849
13460175380
13460183132
13460188625
13460195156
13460202602
13460207729
13460215602
13460222804
13460227382
13460233608
13460239650
13460244777
13460249660
13460258144
13460263637
13460270473
13460276210
13460281886
13460287502
13460294337
13460297694
13460305324
13460310390
13460316737
13460322658
13460339442
13460345546
13460350551
13460357448
13460362269
13460369594
13460374354
13460380885
13460387111
13460394069
13460399379
13460404811
13460411219
13460416774
13460421840
13460428309
13460433924
13460441249
13460446742
13460454554
13460459376
13460465968
13460471400
13460476771
13460481227
13460487696
13460494532
13460500697
13460505458
13460511500
13460517115
13460522852
13460527674
13460533595
13460538783
13460545924
13460551722
13460557826
13460563685
13460569239
13460576197
13460582606
13460588038
13460594324
13460599696
13460605067
13460611842
13460617579
13460624659
13460630701
13460635889
13460641443
13460646387
13460651942
13460657007
13460664637
13460670313
13460675440
13460680994
13460686792
13460692713
13460699244
13460706751
13460711023
13460717066
13460723719
13460730188
13460733179
13460741297
13460748621
13460755579
13460762293
13460768640
13460775476
13460782801
13460789026
13460796411
13460801355
13460808496
13460815088
13460822656
13460827234
13460835169
13460839319
13460846826
13460850733
13460857813
13460863489
13460869836
13460874109
13460881128
13460885645
13460892175
13460896997
13460904748
13460909021
13460915247
13460920373
13460928247
13460932947
13460937768
13460945703
13460952539
13460957239
13460961877
13460969751
13460973962
13460979516
13460984399
13460990075
13460996606
13461002099
13461006494
13461013269
13461017419
13461022302
13461028466
13461033776
13461039941
13461045373
13461050073
13461055139
13461061303
13461064172
13461070825
13461077172
13461084558
13461089868
13461094995
13461099633
13461106164
13461110253
13461115502
13461120934
13461126672
13461131494
13461138268
13461142602
13461148156
13461152795
13461159081
13461163110
13461170312
13461171838
13461180688
13461184594
13461189782
13461192406
13461201257
13461207604
13461214318
13461219506
13461224328
13461230004
13461234582
13461239403
13461244713
13461249840
13461256310
13461262597
13461269860
13461276024
13461280907
13461286095
13461292687
13461298851
13461306115
13461315331
13461321618
13461326378
13461332787
13461340844
13461348290
13461355614
13461361290
13461368004
13461374108
13461380699
13461386803
13461391014
13461397484
13461403832
13461411339
13461417259
13461422386
13461427086
13461434532
13461440209
13461444359
13461451134
13461458580
13461464806
13461470848
13461476280
13461483421
13461489830
13461493248
13461500694
13461506248
13461512169
13461516930
13461525719
13461532616
13461538292
13461543541
13461549583
13461556724
13461562645
13461569603
13461576072
13461582237
13461588035
13461593956
13461601829
13461607505
13461612877
13461618309
13461623741
13461630333
13461635826
13461641563
13461647728
13461652061
13461659996
13461664390
13461670433
13461673423
13461682151
13461686973
13461692710
13461698326
13461704246
13461709617
13461716087
13461721336
13461727439
13461733360
13461739402
13461744224
13461751670
13461755759
13461762412
13461767722
13461773765
13461780296
13461786094
13461791404
13461798057
13461804038
13461810081
13461814902
13461821006
13461827720
13461834556
13461840476
13461846519
13461851890
13461859153
13461865012
13461870749
13461876487
13461881064
13461887351
13461893577
13461899558
13461908652
13461914573
13461920371
13461926719
13461933127
13461939597
13461946250
13461954978
13461963523
13461969260
13461974570
13461981406
13461987570
13461993552
13461999594
13462005271
13462010459
13462016379
13462021506
13462027304
13462032126
13462038718
13462043356
13462049582
13462055685
13462061667
13462066428
13462073080
13462078574
13462084433
13462090231
13462096518
13462104025
13462108969
13462114279
13462119528
13462126547
13462131003
13462139303
13462144919
13462150473
13462156027
13462163534
13462169699
13462175375
13462180624
13462185873
13462190695
13462197958
13462204001
13462210714
13462216269
13462222250
13462227438
13462233175
13462239279
13462245504
13462251303
13462255941
13462263327
13462270224
13462275717
13462281759
13462287618
13462293905
13462300314
13462306234
13462311971
13462317953
13462323629
13462328207
13462332906
13462339498
13462345663
13462351400
13462356588
13462363302
13462368795
13462374166
13462380453
13462386739
13462392416
13462397848
13462403829
13462409261
13462416341
13462421895
13462429220
13462436117
13462442159
13462449483
13462454244
13462459554
13462464742
13462470601
13462478048
13462484639
13462489827
13462495199
13462501546
13462508504
13462514302
13462520711
13462525594
13462535237
13462542012
13462548543
13462553975
13462560872
13462566793
13462574971
13462579915
13462587544
13462594502
13462600301
13462607076
13462612813
13462618001
13462623799
13462628499
13462637410
13462641683
13462648946
13462654317
13462659749
13462666035
13462672078
13462678487
13462685445
13462690633
13462696309
13462703816
13462710469
13462715840
13462724629
13462730000
13462738667
13462744099
13462750264
13462755879
13462760212
13462765461
13462771687
13462776570
13462782856
13462787495
13462793416
13462797932
13462804097
13462809224
13462814289
13462819294
13462826985
13462831196
13462838276
13462844258
13462849446
13462854328
13462859883
13462865193
13462872517
13462876850
13462883747
13462888508
13462895161
13462904072
13462910053
13462916096
13462923603
13462929646
13462934834
13462939655
13462946491
13462950703
13462957844
13462962910
13462970844
13462976032
13462981220
13462986164
13462993244
13462998005
13463003742
13463009418
13463015766
13463022358
13463027546
13463032551
13463038410
13463045185
13463050861
13463053974
13463063923
13463069111
13463074848
13463080158
13463086017
13463092182
13463098285
13463104206
13463113788
13463119037
13463126239
13463131183
13463136310
13463143756
13463149799
13463154743
13463163593
13463170551
13463174701
13463179645
13463186298
13463191059
13463196918
13463201679
13463208148
13463213580
13463220233
13463224323
13463231830
13463237628
13463244342
13463249835
13463256732
13463261066
13463267780
13463274127
13463278644
13463283588
13463290118
13463296161
13463303668
13463309711
13463316608
13463322833
13463329486
13463334918
13463340838
13463346881
13463352130
13463358966
13463363116
13463370257
13463375201
13463380938
13463386676
13463395526
13463401202
13463406329
13463411273
13463418475
13463422320
13463429766
13463434344
13463442034
13463447955
13463453143
13463458270
13463465716
13463471942
13463477069
13463482318
13463490740
13463494952
13463502154
13463506732
13463512408
13463519732
13463528155
13463533160
13463541583
13463547564
13463552752
13463557330
13463564837
13463569537
13463575762
13463581316
13463587542
13463593340
13463598955
13463603350
13463610003
13463616717
13463622515
13463626971
13463632586
13463639483
13463644060
13463650774
13463656145
13463661883
13463667986
13463673540
13463678606
13463687883
13463693438
13463698565
13463704485
13463711199
13463716692
13463723833
13463729265
13463737139
13463741899
13463748979
13463753679
13463760942
13463765337
13463771990
13463775774
13463782915
13463787737
13463792864
13463797991
13463803484
13463809648
13463814836
13463819780
13463826860
13463831255
13463837724
13463842973
13463847673
13463852800
13463858659
13463864030
13463870683
13463876482
13463882097
13463888139
13463893449
13463898027
13463903215
13463908769
13463915361
13463921403
13463926652
13463931108
13463936418
13463940996
13463946123
13463950334
13463958024
13463963029
13463970842
13463976335
13463981950
13463986467
13463992326
13463998857
13464002763
13464011003
13464016191
13464022111
13464027421
13464033281
13464037736
13464043779
13464048722
13464058793
13464065080
13464071000
13464076860
13464082963
13464087480
13464095109
13464102494
13464108231
13464113053
13464120438
13464124528
13464131791
13464136918
13464142899
13464149735
13464156693
13464161393
13464167069
13464173295
13464178483
13464182755
13464190324
13464195451
13464201432
13464207596
13464213151
13464218033
13464224137
13464228959
13464233780
13464240433
13464244767
13464253312
13464258500
13464265824
13464270401
13464277604
13464283280
13464290116
13464298844
13464305863
13464313858
13464319657
13464326554
13464334000
13464341690
13464348160
13464355728
13464361588
13464367386
13464373184
13464377396
13464384476
13464388565
13464393814
13464399918
13464407730
13464412247
13464417435
13464422562
13464427994
13464433487
13464439224
13464443680
13464450638
13464455277
13464461441
13464466446
13464471939
13464477127
13464480911
13464484817
13464491043
13464497147
13464502640
13464507217
13464512527
13464517166
13464523086
13464527908
13464533218
13464539566
13464543899
13464549881
13464553604
13464560745
13464565689
13464570633
13464574783
13464583755
13464588760
13464594253
13464599990
13464605362
13464610244
13464614761
13464620620
13464625320
13464632034
13464636673
13464641311
13464648452
13464652725
13464658523
13464663467
13464669387
13464677261
13464683181
13464688247
13464693313
13464698257
13464703201
13464708450
13464714980
13464720229
13464726333
13464731887
13464736953
13464742690
13464747390
13464752822
13464758620
13464764236
13464769424
13464775649
13464780715
13464786147
13464790359
13464797073
13464802077
13464807143
13464813857
13464817580
13464824599
13464829055
13464834243
13464840285
13464846267
13464852797
13464858474
13464865065
13464870253
13464875869
13464883376
13464888259
13464893752
13464898574
13464905227
13464911452
13464918105
13464922621
13464928481
13464935256
13464942153
13464947463
13464951613
13464957656
13464962844
13464968032
13464973403
13464978163
13464983656
13464988661
13464994155
13464999465
13465006850
13465012099
13465017165
13465021010
13465026076
13465030653
13465036513
13465042616
13465048232
13465052809
13465058241
13465062758
13465067397
13465073012
13465077284
13465084120
13465089613
13465094435
13465100477
13465105055
13465110365
13465115492
13465122511
13465128004
13465134352
13465138869
13465144606
13465149916
13465154066
13465160048
13465167738
13465173109
13465179457
13465184523
13465188917
13465194899
13465200514
13465206129
13465211622
13465218702
13465224684
13465230848
13465236952
13465242384
13465245558
13465252210
13465258558
13465263502
13465270277
13465276930
13465281446
13465286756
13465292310
13465297865
13465303419
13465308607
13465320203
13465326612
13465332410
13465337659
13465343336
13465348646
13465354505
13465360914
13465366956
13465372083
13465377576
13465383863
13465387891
13465394727
13465400587
13465405164
13465409925
13465417005
13465423353
13465429273
13465434034
13465440137
13465445569
13465452588
13465457593
13465464490
13465471936
13465477430
13465482923
13465489637
13465495862
13465502088
13465510144
13465516675
13465523511
13465528272
13465534436
13465540357
13465544812
13465550733
13465556897
13465564771
13465570874
13465576428
13465581006
13465585706
13465590222
13465597669
13465601331
13465607739
13465612256
13465619214
13465623731
13465628674
13465633923
13465638928
13465644299
13465649792
13465655408
13465661389
13465667065
13465672192
13465676770
13465682019
13465686902
13465693860
13465698987
13465705578
13465710889
13465717419
13465722180
13465726819
13465733349
13465738537
13465745007
13465750683
13465755444
13465761059
13465766552
13465772778
13465777722
13465782055
13465788159
13465793286
13465799023
13465804272
13465810254
13465815564
13465820996
13465826672
13465832165
13465838696
13465845288
13465850048
13465855297
13465860058
13465865429
13465870068
13465877636
13465884045
13465888867
13465895886
13465900890
13465906139
13465911694
13465917309
13465921093
13465928661
13465932690
13465938305
13465945141
13465952526
13465959728
13465965893
13465971264
13465977184
13465983837
13465988903
13465994457
13466001476
13466007213
13466012707
13466021679
13466027477
13466032116
13466038463
13466046154
13466053600
13466060070
13466066906
13466074962
13466083446
13466090465
13466096691
13466101390
13466108226
13466114208
13466121288
13466127941
13466133068
13466140026
13466144847
13466151561
13466156017
13466162609
13466167247
13466176036
13466181407
13466186900
13466189830
13466197704
13466204601
13466210460
13466216075
13466221996
13466228832
13466234081
13466239085
13466245494
13466251170
13466255809
13466261913
13466268077
13466273326
13466277965
13466283763
13466290416
13466296397
13466301402
13466307262
13466313426
13466319407
13466324473
13466330272
13466333568
13466341197
13466346019
13466352244
13466358226
13466366099
13466370921
13466376536
13466381968
13466387706
13466395213
13466401133
13466406077
13466413096
13466418589
13466424754
13466430369
13466437449
13466443186
13466449229
13466455454
13466462596
13466468150
13466473826
13466479075
13466486399
13466492259
13466499095
13466505076
13466511118
13466524668
13466541209
13466550242
13466561655
13466569956
13466579844
13466587351
13466594248
13466602610
13466610666
13466618357
13466625010
13466630381
13466636057
13466641123
13466646250
13466652048
13466657236
13466663584
13466670908
13466679636
13466686106
13466692331
13466698191
13466703745
13466710154
13466716074
13466720407
13466727243
13466732004
13466739023
13466744333
13466750864
13466757273
13466761240
13466768259
13466773203
13466777231
13466780954
13466786569
13466790598
13466796945
13466801096
13466808664
13466814340
13466818674
13466823190
13466827585
13466832468
13466838327
13466841806
13466848093
13466854013
13466858408
13466863351
13466869089
13466874399
13466879159
13466886545
13466891000
13466896615
13466901620
13466908151
13466914926
13466918466
13466925668
13466930490
13466937509
13466943429
13466947824
13466952707
13466958261
13466964975
13466970651
13466976327
13466981576
13466985604
13466992074
13466995858
13467002755
13467008615
13467014474
13467018869
13467027536
13467032113
13467039743
13467044137
13467049813
13467054330
13467061593
13467068612
13467074716
13467080575
13467086556
13467091073
13467098092
13467105050
13467111703
13467118356
13467124459
13467129891
13467136544
13467143441
13467149178
13467156075
13467162423
13467167794
13467176522
13467181039
13467186959
13467192147
13467198800
13467205941
13467212227
13467215829
13467224862
13467232003
13467236886
13467244332
13467249825
13467258492
13467263314
13467271859
13467280709
13467285225
13467292488
13467297737
13467303231
13467309944
13467316902
13467320748
13467326546
13467331917
13467337410
13467343819
13467349312
13467354378
13467360237
13467364388
13467371773
13467375679
13467382637
13467386055
13467392098
13467396309
13467403206
13467408516
13467414620
13467419502
13467425850
13467430916
13467436287
13467443245
13467448006
13467452034
13467459663
13467465706
13467470711
13467475593
13467480781
13467486153
13467492317
13467497993
13467505623
13467510750
13467516975
13467521370
13467527839
13467531685
13467538460
13467543403
13467548774
13467555549
13467561897
13467566475
13467571846
13467578926
13467583564
13467590034
13467595771
13467602180
13467608650
13467613655
13467619026
13467624153
13467630561
13467635871
13467641304
13467649482
13467655281
13467660957
13467666084
13467671638
13467677558
13467682380
13467686775
13467695930
13467700507
13467707221
13467711738
13467717963
13467722724
13467729133
13467736457
13467742072
13467750251
13467756110
13467762458
13467767951
13467773078
13467779121
13467786079
13467790534
13467797248
13467802985
13467809455
13467814460
13467819831
13467825873
13467831305
13467836554
13467844977
13467853339
13467858405
13467864936
13467870002
13467875800
13467882941
13467888984
13467895636
13467902961
13467908332
13467913520
13467918524
13467924323
13467928473
13467937689
13467943732
13467948920
13467954596
13467959662
13467962470
13467969550
13467974066
13467981391
13467990302
13467995795
13468001166
13468006476
13468011786
13468016180
13468020880
13468029059
13468033759
13468041144
13468045599
13468051642
13468055914
13468062262
13468067572
13468074774
13468080145
13468085821
13468090765
13468096808
13468102850
13468108282
13468114752
13468120062
13468124823
13468130316
13468136297
13468140875
13468149115
13468153265
13468159308
13468165350
13468171942
13468178350
13468184454
13468190374
13468197210
13468200811
13468208868
13468213812
13468220343
13468226080
13468234136
13468239080
13468244757
13468249090
13468255682
13468262762
13468269415
13468274786
13468280035
13468284979
13468290899
13468296819
13468303045
13468305792
13468315374
13468321600
13468326055
13468330816
13468337896
13468341253
13468349493
13468352788
13468363653
13468368658
13468374761
13468378240
13468385686
13468392644
13468398199
13468404302
13468411260
13468416753
13468423528
13468426946
13468435674
13468443059
13468449773
13468457341
13468463994
13468472539
13468481084
13468485601
13468492376
13468497747
13468505254
13468510076
13468515630
13468521794
13468528142
13468533513
13468539678
13468545598
13468551579
13468556279
13468562444
13468568425
13468573979
13468579228
13468585393
13468590764
13468596257
13468602605
13468608647
13468613835
13468618779
13468625005
13468631596
13468636845
13468644597
13468650639
13468655888
13468660954
13468667851
13468672307
13468679326
13468684331
13468689580
13468694646
13468701848
13468707890
13468713994
13468717290
13468724858
13468731022
13468737370
13468743168
13468748112
13468753117
13468759160
13468766362
13468770878
13468776738
13468783574
13468789006
13468795353
13468800969
13468805973
13468812016
13468817509
13468824284
13468829350
13468835453
13468841191
13468847660
13468852604
13468857426
13468864323
13468869755
13468875797
13468880619
13468886234
13468892277
13468900333
13468905888
13468911930
13468917789
13468922428
13468927189
13468934269
13468941105
13468945682
13468952946
13468957645
13468965275
13468969974
13468975468
13468980656
13468987247
13468992069
13468999821
13469003910
13469009647
13469015690
13469022403
13469028385
13469032902
13469037784
13469045353
13469052189
13469061527
13469068058
13469072940
13469079837
13469084537
13469093143
13469100711
13469108890
13469113529
13469118656
13469126163
13469132144
13469136234
13469144046
13469149600
13469156436
13469162601
13469169315
13469175968
13469181888
13469185672
13469193668
13469198062
13469205203
13469210391
13469216251
13469222598
13469228030
13469234683
13469240237
13469244632
13469251712
13469256473
13469263797
13469269412
13469274539
13469281314
13469285892
13469293704
13469299808
13469308230
13469313785
13469319278
13469325320
13469331546
13469337710
13469343936
13469347537
13469357364
13469363040
13469369204
13469375735
13469388125
13469395510
13469400576
13469407168
13469414065
13469420474
13469426211
13469432192
13469438784
13469445254
13469451357
13469457644
13469462649
13469468752
13469474246
13469481387
13469486331
13469492129
13469499880
13469506106
13469512515
13469517764
13469523989
13469530032
13469536257
13469542055
13469548220
13469555056
13469559695
13469564577
13469572024
13469576723
13469584170
13469588930
13469595278
13469602419
13469607363
13469616945
13469622439
13469628115
13469633852
13469640139
13469645266
13469655092
13469661318
13469667055
13469673403
13469679506
13469685793
13469692385
13469699343
13469705995
13469711977
13469720095
13469726137
13469732790
13469738588
13469745607
13469751344
13469759096
13469764528
13469771059
13469777712
13469784120
13469788637
13469794191
13469800539
13469805055
13469811891
13469817140
13469822267
13469827211
13469833681
13469838502
13469843874
13469849733
13469857057
13469863954
13469870485
13469875978
13469881044
13469886720
13469891603
13469898500
13469903688
13469908327
13469915834
13469920289
13469926271
13469930055
13469935487
13469940553
13469946962
13469950685
13469958741
13469962831
13469969239
13469974549
13469980043
13469985719
13469990968
13469995423
13470002931
13470007997
13470013551
13470018495
13470024659
13470028993
13470035890
13470040345
13470045838
13470052796
13470057923
13470063355
13470068482
13470074159
13470079530
13470085389
13470090150
13470096253
13470101685
13470107240
13470114014
13470119630
13470125306
13470132264
13470136536
13470143128
13470148560
13470155091
13470160828
13470166260
13470170533
13470177369
13470183472
13470190735
13470195801
13470202210
13470205872
13470214417
13470219178
13470225709
13470231202
13470237061
13470242859
13470248414
13470253846
13470258423
13470265686
13470272522
13470279480
13470284058
13470294678
13470302552
13470310852
13470317810
13470323670
13470328003
13470335266
13470341065
13470347901
13470352722
13470360657
13470368103
13470373840
13470378540
13470384705
13470389404
13470396240
13470402283
13470407654
13470412720
13470419189
13470422668
13470429260
13470435120
13470442383
13470446350
13470453247
13470457519
13470462952
13470468994
13470474670
13470481079
13470486633
13470491760
13470497253
13470501648
13470506897
13470513122
13470518982
13470524170
13470533203
13470539001
13470544555
13470550048
13470555786
13470561157
13470565612
13470572265
13470580749
13470585815
13470591491
13470596984
13470602844
13470605590
13470612060
13470616760
13470624328
13470630920
13470636840
13470642089
13470645873
13470650146
13470657287
13470662536
13470668823
13470673583
13470680297
13470684570
13470689636
13470695556
13470699401
13470705016
13470709777
13470716796
13470721984
13470727233
13470732726
13470737914
13470742187
13470747863
13470752990
13470757934
13470765014
13470771361
13470775634
13470780395
13470787108
13470792296
13470797179
13470801513
13470810607
13470814513
13470820128
13470826781
13470831725
13470837157
13470842528
13470847411
13470853576
13470858580
13470866332
13470872130
13470878234
13470884764
13470891844
13470895995
13470905333
13470911620
13470918334
13470925841
13470933409
13470939513
13470945922
13470951781
13470960631
13470964659
13470970641
13470974181
13470979369
13470983946
13470988219
13470992674
13470998412
13471002562
13471009337
13471014830
13471019835
13471025816
13471029845
13471035399
13471042418
13471047850
13471052733
13471060057
13471065123
13471070433
13471075743
13471083555
13471088865
13471095701
13471100767
13471107664
13471113463
13471118223
13471125914
13471130247
13471135679
13471141356
13471146788
13471151182
13471156614
13471160765
13471166197
13471171690
13471179014
13471182371
13471190611
13471196653
13471200804
13471206968
13471211790
13471218016
13471221739
13471228514
13471233274
13471239866
13471244016
13471251402
13471258421
13471263792
13471270200
13471277281
13471280515
13471286985
13471291624
13471299070
13471303220
13471310423
13471316343
13471321104
13471327451
13471334043
13471338132
13471346250
13471350034
13471357481
13471364622
13471370603
13471376462
13471381956
13471388181
13471394529
13471398435
13471405149
13471411558
13471415525
13471421995
13471428464
13471433042
13471439878
13471445188
13471452207
13471459104
13471467588
13471473142
13471479673
13471486936
13471494260
13471501584
13471509946
13471517148
13471522702
13471528379
13471533689
13471538327
13471544248
13471549558
13471555112
13471561215
13471567197
13471572568
13471577145
13471583554
13471587643
13471595151
13471599850
13471606259
13471611203
13471617245
13471622800
13471628171
13471634213
13471640134
13471645383
13471650876
13471656003
13471661923
13471665829
13471673398
13471677365
13471684689
13471688778
13471694211
13471700253
13471705075
13471712582
13471717770
13471723202
13471728817
13471736386
13471741574
13471747555
13471752682
13471758541
13471762204
13471770382
13471775448
13471782284
13471786984
13471791989
13471800106
13471804684
13471810116
13471817135
13471823483
13471828427
13471837094
13471843441
13471848934
13471853207
13471859554
13471864987
13471872006
13471875424
13471883724
13471888363
13471893612
13471899838
13471904842
13471911617
13471916256
13471923885
13471927425
13471935604
13471939876
13471946163
13471952572
13471958858
13471964229
13471968685
13471975826
13471983333
13471988766
13471995785
13472001522
13472005916
13472013057
13472018734
13472025631
13472031368
13472038936
13472045955
13472050594
13472056087
13472061336
13472069942
13472076290
13472083797
13472091976
13472097774
13472107051
13472113216
13472120357
13472126094
13472132808
13472137264
13472144222
13472150752
13472154903
13472160518
13472164913
13472172054
13472176326
13472181575
13472186458
13472192561
13472201106
13472205013
13472211971
13472217342
13472223750
13472229121
13472235347
13472238887
13472245051
13472251216
13472257136
13472263179
13472268550
13472272578
13472279597
13472282954
13472289607
13472293391
13472301387
13472305171
13472314265
13472318782
13472324824
13472329707
13472335139
13472338374
13472346980
13472352290
13472360591
13472368159
13472372859
13472378962
13472382930
13472390803
13472395503
13472400935
13472407160
13472413691
13472420405
13472425898
13472429926
13472436213
13472443415
13472447871
13472454218
13472459467
13472465937
13472469660
13472477046
13472481928
13472488947
13472493403
13472499262
13472506953
13472512873
13472519953
13472526423
13472529963
13472537165
13472541987
13472548090
13472553339
13472559687
13472566035
13472571345
13472577997
13472582697
13472590082
13472594477
13472601435
13472607599
13472614069
13472620112
13472625238
13472629877
13472636835
13472642084
13472647821
13472653559
13472661310
13472669733
13472677545
13472683588
13472689020
13472695368
13472701837
13472706903
13472717584
13472725336
13472731134
13472736444
13472743280
13472748285
13472755853
13472761163
13472766168
13472771295
13472776483
13472782526
13472788202
13472794733
13472799982
13472806207
13472811639
13472816095
13472822565
13472828119
13472834344
13472840692
13472845697
13472849725
13472854974
13472861383
13472866388
13472872186
13472877801
13472883600
13472888788
13472895318
13472901239
13472906488
13472914056
13472919305
13472924615
13472928949
13472934991
13472939996
13472946283
13472951776
13472958306
13472964349
13472968743
13472974115
13472982049
13472986810
13472994500
13472999993
13473005059
13473013360
13473018060
13473024774
13473030267
13473036736
13473040887
13473049737
13473053643
13473060418
13473066216
13473072015
13473077203
13473084039
13473087823
13473095269
13473101250
13473105584
13473113335
13473118951
13473123772
13473129937
13473136407
13473140557
13473146844
13473150933
13473158684
13473163933
13473170220
13473176751
13473181511
13473187554
13473193963
13473198479
13473205376
13473211846
13473218316
13473226799
13473230889
13473238396
13473243950
13473252495
13473257256
13473264580
13473268914
13473276360
13473283257
13473289788
13473295525
13473303032
13473309197
13473315911
13473320854
13473329704
13473335137
13473340691
13473346672
13473354302
13473360649
13473368706
13473374382
13473380852
13473385185
13473391838
13473397148
13473402092
13473407036
13473413689
13473418449
13473425713
13473432182
13473436943
13473442314
13473449211
13473453056
13473459526
13473465080
13473470390
13473476372
13473481804
13473486381
13473493461
13473499016
13473503837
13473509269
13473514457
13473520378
13473525871
13473531059
13473537040
13473542961
13473548698
13473553398
13473561210
13473565727
13473571220
13473575676
13473584709
13473588188
13473595207
13473601554
13473607048
13473611503
13473616386
13473623588
13473629142
13473637016
13473640861
13473647575
13473652580
13473658988
13473663322
13473669669
13473674674
13473682426
13473689933
13473695487
13473700431
13473705985
13473711478
13473717277
13473723380
13473729545
13473736320
13473741874
13473746818
13473752311
13473757560
13473765555
13473771171
13473777396
13473782645
13473789786
13473796134
13473800528
13473805228
13473812613
13473818473
13473824820
13473829642
13473835013
13473841605
13473846122
13473853202
13473858390
13473863578
13473869925
13473877127
13473886405
13473892508
13473896903
13473903311
13473910025
13473915885
13473923392
13473928336
13473936331
13473942923
13473948905
13473954031
13473959708
13473966116
13473974844
13473979727
13473985465
13473992117
13473997916
13474002859
13474008353
13474012625
13474018851
13474026236
13474033133
13474037772
13474043082
13474050101
13474054190
13474060721
13474067740
13474073111
13474078970
13474085440
13474091421
13474096731
13474100882
13474107840
13474113699
13474120352
13474125540
13474132254
13474136526
13474142874
13474148977
13474154531
13474160025
13474164724
13474172598
13474178823
13474184256
13474189871
13474194265
13474199575
13474206655
13474212087
13474219839
13474224539
13474229666
13474234976
13474242117
