13120405254
13120418499
13120427593
13120438213
13120448284
13120459453
13120469402
13120479473
13120491069
13120503276
13120514629
13120526347
13120536357
13120546123
13120558330
13120568767
13120579509
13120588908
13120601481
13120611125
13120616069
13120633708
13120646525
13120653972
13120667460
13120677104
13120690593
13120702983
13120711711
13120725627
13120738383
13120749308
13120760539
13120770732
13120780802
13120793620
13120802897
13120812602
13120821452
13120828776
13120835368
13120844767
13120853129
13120861124
13120867960
13120874735
13120885355
13120893961
13120902201
13120908549
13120917948
13120925699
13120934549
13120940104
13120949869
13120956949
13120961222
13120971659
13120980570
13120986856
13120993448
13121000223
13121006693
13121011209
13121018412
13121022806
13121031351
13121037454
13121044229
13121051554
13121057352
13121063761
13121069071
13121073587
13121076639
13121082132
13121088297
13121092996
13121096781
13121101114
13121104410
13121110086
13121114237
13121118692
13121124185
13121127359
13121132547
13121135538
13121140298
13121143289
13121148843
13121153360
13121157816
13121162454
13121166788
13121170938
13121174905
13121179666
13121183145
13121187723
13121190896
13121196939
13121201150
13121204629
13121208230
13121212991
13121218606
13121223306
13121228555
13121233133
13121237771
13121241861
13121249002
13121254495
13121259256
13121264749
13121269449
13121274636
13121279397
13121285684
13121297830
13121306070
13121311380
13121320108
13121328225
13121334390
13121342080
13121349649
13121357583
13121363870
13121371072
13121378274
13121385415
13121393716
13121399209
13121407266
13121413064
13121421609
13121427224
13121439553
13121446755
13121454079
13121465859
13121474526
13121479348
13121486428
13121492409
13121498025
13121504983
13121510537
13121515664
13121519021
13121525063
13121529213
13121533974
13121539406
13121544594
13121550210
13121553566
13121558938
13121562294
13121568398
13121570717
13121576882
13121582436
13121587075
13121591164
13121595436
13121599465
13121604653
13121610268
13121614662
13121621804
13121625649
13121630959
13121637184
13121641762
13121645363
13121651467
13121655800
13121663735
13121666115
13121673073
13121677773
13121681862
13121684242
13121691322
13121697243
13121701271
13121706886
13121714821
13121721108
13121728798
13121734779
13121743629
13121750099
13121759376
13121765175
13121774757
13121780983
13121789894
13121796242
13121805397
13121813698
13121821693
13121829201
13121837074
13121843300
13121851112
13121858925
13121864906
13121874916
13121883278
13121890541
13121896522
13121902870
13121908302
13121913246
13121917274
13121924171
13121930213
13121935340
13121940589
13121944129
13121949928
13121955360
13121961341
13121968849
13121974647
13121979652
13121984901
13121989234
13121994422
13122000037
13122004859
13122010963
13122016639
13122022620
13122030799
13122036903
13122044288
13122050391
13122057655
13122062965
13122069556
13122074317
13122082007
13122087867
13122092628
13122098426
13122104163
13122108985
13122114295
13122118567
13122124366
13122128455
13122134437
13122139136
13122145179
13122150611
13122154334
13122159766
13122164649
13122170203
13122178687
13122187049
13122193152
13122201697
13122209326
13122217261
13122225379
13122232642
13122238928
13122249549
13122255774
13122263770
13122269629
13122278662
13122284583
13122293128
13122299536
13122311682
13122315894
13122327368
13122331213
13122340735
13122346594
13122356665
13122360632
13122367590
13122372107
13122378638
13122382666
13122389136
13122393042
13122398413
13122403052
13122409460
13122414099
13122420324
13122424292
13122429846
13122433996
13122440649
13122445044
13122452551
13122455359
13122461401
13122465429
13122471594
13122475866
13122482397
13122487341
13122494482
13122499060
13122505529
13122511389
13122516821
13122522741
13122527136
13122533544
13122539648
13122544470
13122550512
13122556249
13122561254
13122567297
13122573095
13122578039
13122584448
13122590612
13122595434
13122601171
13122605505
13122611730
13122618139
13122625402
13122633520
13122643041
13122653966
13122662084
13122670751
13122680212
13122687169
13122699010
13122705419
13122714696
13122723058
13122732396
13122736608
13122746923
13122755773
13122762914
13122772008
13122779332
13122787511
13122794774
13122801183
13122810704
13122817418
13122827611
13122831456
13122843236
13122849095
13122854466
13122858922
13122867772
13122874242
13122881444
13122890843
13122895909
13122902013
13122908116
13122911961
13122917760
13122921422
13122927769
13122931493
13122938329
13122940526
13122947789
13122953160
13122957799
13122962620
13122968114
13122970494
13122977574
13122982030
13122987462
13122993016
13122999241
13123005040
13123010594
13123015355
13123021397
13123026463
13123032628
13123039525
13123043614
13123052403
13123057103
13123064549
13123069615
13123074376
13123081089
13123088597
13123093479
13123099217
13123104649
13123109227
13123115940
13123122776
13123131077
13123137791
13123145970
13123153050
13123161228
13123168125
13123175999
13123182346
13123190891
13123198032
13123205723
13123212254
13123220066
13123227573
13123233616
13123240940
13123250767
13123258213
13123264805
13123276523
13123283298
13123293613
13123303135
13123312168
13123317905
13123324009
13123329380
13123334568
13123339939
13123346836
13123350803
13123356235
13123362278
13123366916
13123373142
13123376987
13123383152
13123386753
13123391208
13123394809
13123401340
13123404087
13123410434
13123414218
13123420566
13123425144
13123431980
13123439182
13123446384
13123449924
13123458103
13123464511
13123470493
13123477329
13123482761
13123488010
13123493991
13123499118
13123505832
13123509494
13123515353
13123520786
13123526767
13123532993
13123539279
13123543979
13123550082
13123555209
13123560763
13123565951
13123571994
13123575290
13123581821
13123588107
13123597629
13123603793
13123614047
13123621859
13123630099
13123638461
13123645785
13123654086
13123663363
13123669833
13123678927
13123685275
13123696017
13123703952
13123711337
13123721835
13123728671
13123736849
13123743502
13123752169
13123760653
13123768771
13123775301
13123784091
13123790316
13123796664
13123802340
13123807894
13123815951
13123821322
13123827242
13123831881
13123837557
13123842257
13123848299
13123854525
13123860384
13123865389
13123873263
13123879244
13123885164
13123888949
13123898409
13123905123
13123910372
13123918551
13123924776
13123932161
13123937777
13123942782
13123949251
13123956209
13123961275
13123966524
13123971834
13123976046
13123982210
13123988314
13123992830
13123997774
13124004427
13124009249
13124015108
13124018160
13124025972
13124031832
13124037691
13124043733
13124050386
13124054781
13124059969
13124066438
13124077913
13124085481
13124092256
13124101961
13124108797
13124118196
13124122652
13124134187
13124140108
13124151216
13124157564
13124167024
13124175264
13124183626
13124191133
13124199434
13124208772
13124215181
13124224946
13124232637
13124239961
13124247102
13124255830
13124260591
13124267732
13124273347
13124280549
13124285737
13124291108
13124296479
13124301362
13124309053
13124312348
13124321199
13124326142
13124332429
13124337068
13124341950
13124348359
13124353608
13124358796
13124364533
13124369721
13124375031
13124381379
13124384858
13124393769
13124398042
13124405793
13124411469
13124418977
13124425446
13124431550
13124435029
13124444428
13124448823
13124458466
13124464509
13124470795
13124477936
13124484406
13124490204
13124496064
13124505524
13124512177
13124517243
13124526703
13124532074
13124540009
13124545319
13124553376
13124558808
13124565461
13124575287
13124582306
13124591034
13124600190
13124608429
13124615082
13124626007
13124632172
13124642121
13124648346
13124657684
13124663849
13124673615
13124680145
13124689117
13124695587
13124704681
13124712555
13124722321
13124729279
13124737274
13124745026
13124752960
13124758942
13124769317
13124776092
13124782440
13124789215
13124794037
13124801788
13124807647
13124812408
13124818634
13124822723
13124828705
13124833831
13124839142
13124845794
13124850372
13124856414
13124860748
13124866790
13124871551
13124876739
13124881866
13124890533
13124895721
13124903533
13124909332
13124915008
13124918487
13124927520
13124932647
13124940277
13124945098
13124951019
13124956451
13124963592
13124968841
13124973052
13124984161
13124990142
13124995757
13125001495
13125008025
13125012725
13125020477
13125026519
13125032317
13125038543
13125043487
13125051116
13125054839
13125066131
13125072967
13125082732
13125089324
13125099517
13125107757
13125116851
13125123992
13125132903
13125141570
13125149138
13125159148
13125161284
13125172637
13125180754
13125189055
13125198210
13125209258
13125219084
13125227446
13125236724
13125245818
13125254363
13125262908
13125269438
13125277190
13125285002
13125290923
13125297759
13125302763
13125310271
13125313200
13125320891
13125327788
13125333464
13125338713
13125343535
13125349577
13125354704
13125360991
13125367094
13125373625
13125378508
13125385466
13125390471
13125396940
13125403715
13125409758
13125416899
13125421782
13125426603
13125432158
13125439543
13125444853
13125449492
13125457243
13125463224
13125470304
13125475492
13125480680
13125488554
13125491789
13125498564
13125503874
13125510404
13125522062
13125527067
13125532560
13125539823
13125547575
13125555509
13125563200
13125572904
13125580900
13125587309
13125596708
13125604276
13125611295
13125617704
13125626493
13125632658
13125641569
13125648405
13125656339
13125663602
13125673673
13125677884
13125687894
13125695463
13125704069
13125713285
13125720975
13125730008
13125736478
13125745023
13125750943
13125755887
13125761686
13125764920
13125772611
13125779325
13125784330
13125789273
13125796964
13125803006
13125808805
13125814786
13125821073
13125828641
13125833768
13125839810
13125847012
13125852933
13125858853
13125866788
13125873380
13125880887
13125887235
13125893399
13125900113
13125906705
13125909756
13125919034
13125924710
13125930020
13125936002
13125941617
13125947171
13125951077
13125956692
13125961087
13125968228
13125973050
13125978360
13125983609
13125990384
13125994656
13125999417
13126007596
13126015042
13126021267
13126026638
13126033841
13126040127
13126050320
13126055081
13126065518
13126071682
13126083279
13126091885
13126099636
13126103848
13126113674
13126120205
13126129971
13126136440
13126145229
13126153713
13126160244
13126168850
13126175564
13126182949
13126191555
13126199001
13126207302
13126214870
13126221584
13126229824
13126236294
13126244778
13126250210
13126256740
13126261867
13126267727
13126273586
13126279873
13126285000
13126289760
13126296413
13126301601
13126306911
13126311428
13126318630
13126322170
13126330410
13126335781
13126340908
13126346767
13126353908
13126359096
13126365322
13126371608
13126377224
13126382350
13126388027
13126394924
13126399379
13126407497
13126413295
13126419399
13126426662
13126430934
13126436000
13126443202
13126448757
13126455287
13126462184
13126467922
13126473110
13126477809
13126486415
13126491298
13126498195
13126507350
13126514857
13126522853
13126528346
13126533473
13126541225
13126545924
13126553126
13126564235
13126568324
13126578517
13126584498
13126593104
13126599147
13126607325
13126615321
13126624415
13126630336
13126639247
13126645289
13126655238
13126661586
13126670192
13126678797
13126686000
13126694606
13126701869
13126710719
13126717921
13126726405
13126733485
13126740016
13126747645
13126756373
13126763270
13126770655
13126773646
13126781825
13126784571
13126791529
13126798243
13126804041
13126810389
13126815821
13126820216
13126825526
13126829920
13126837122
13126842371
13126848475
13126853724
13126860743
13126865931
13126870508
13126877222
13126881739
13126889734
13126898707
13126904444
13126910303
13126915003
13126921228
13126927515
13126930506
13126938440
13126943018
13126949121
13126953699
13126959192
13126965967
13126972437
13126977259
13126983301
13126988611
13126995447
13127003992
13127009119
13127018579
13127024500
13127034876
13127043237
13127047815
13127053980
13127058069
13127062341
13127066858
13127072717
13127079614
13127085840
13127094568
13127100732
13127106714
13127113489
13127120508
13127126550
13127132776
13127140710
13127146448
13127154138
13127160181
13127167871
13127172937
13127182397
13127188257
13127198877
13127205407
13127213037
13127218713
13127226037
13127233545
13127240197
13127247400
13127253686
13127258447
13127262292
13127268029
13127271691
13127277307
13127279992
13127286523
13127290307
13127295495
13127299401
13127303735
13127308618
13127313500
13127316613
13127324121
13127328027
13127334252
13127340234
13127345056
13127349633
13127355431
13127360497
13127364587
13127370873
13127376305
13127382165
13127386376
13127391625
13127396935
13127401940
13127406274
13127412255
13127416772
13127422082
13127429284
13127434716
13127440880
13127449853
13127454064
13127460168
13127464440
13127470360
13127475121
13127481286
13127487145
13127492211
13127498009
13127504357
13127509484
13127517907
13127526024
13127533287
13127539208
13127546654
13127555931
13127565575
13127572594
13127580345
13127588463
13127599266
13127605614
13127616539
13127625694
13127633934
13127642235
13127651268
13127657372
13127664818
13127675194
13127682030
13127689598
13127698814
13127705589
13127713463
13127720421
13127725792
13127730919
13127736473
13127741173
13127746849
13127751243
13127756126
13127761986
13127767052
13127774925
13127780601
13127787498
13127793236
13127798607
13127806236
13127810875
13127816002
13127822471
13127828941
13127834983
13127840599
13127845115
13127849632
13127855003
13127860008
13127866355
13127871299
13127876121
13127881919
13127886680
13127892478
13127898155
13127904258
13127908897
13127915244
13127921287
13127926780
13127932639
13127938377
13127941429
13127949485
13127954185
13127961082
13127965537
13127971702
13127976218
13127980918
13127986350
13127995200
13128001609
13128010276
13128016746
13128025840
13128033713
13128040916
13128048850
13128058066
13128064231
13128075156
13128082663
13128088889
13128096763
13128105979
13128113791
13128122825
13128130942
13128138083
13128144126
13128153281
13128161643
13128168906
13128177695
13128185996
13128188193
13128199423
13128204489
13128210227
13128217612
13128222800
13128229941
13128235495
13128240927
13128245932
13128251853
13128256918
13128261740
13128268820
13128273337
13128279868
13128284933
13128290732
13128295065
13128302817
13128308005
13128315329
13128322897
13128327963
13128332358
13128340353
13128345358
13128352926
13128358298
13128363608
13128373068
13128378500
13128384604
13128390463
13128399679
13128404196
13128415304
13128422934
13128429342
13128436483
13128441793
13128448446
13128454489
13128459494
13128465963
13128470846
13128477133
13128483297
13128487387
13128495870
13128503134
13128511007
13128518759
13128524679
13128531942
13128540853
13128546529
13128554952
13128559225
13128569967
13128579366
13128586813
13128594320
13128601888
13128609396
13128615560
13128624654
13128633138
13128641134
13128649373
13128655050
13128664144
13128671407
13128680806
13128688192
13128695638
13128701192
13128708699
13128713949
13128720601
13128725240
13128731099
13128736531
13128743856
13128749776
13128757039
13128762227
13128769002
13128774800
13128780660
13128786397
13128791524
13128797566
13128802876
13128808003
13128815145
13128821065
13128827107
13128834004
13128840840
13128846517
13128852498
13128857991
13128864339
13128869161
13128874471
13128877278
13128884602
13128887532
13128895345
13128899312
13128906087
13128911824
13128916951
13128921712
13128926594
13128932759
13128938313
13128944661
13128949238
13128953999
13128959248
13128964863
13128969563
13128975545
13128978779
13128985920
13128992329
13129000264
13129006489
13129016438
13129023274
13129030659
13129039387
13129051472
13129060688
13129069416
13129081074
13129087910
13129099262
13129104573
13129117024
13129123676
13129135151
13129138935
13129149250
13129155720
13129165302
13129172321
13129182270
13129188496
13129196125
13129203327
13129209553
13129215046
13129220417
13129226826
13129232929
13129239887
13129244404
13129250324
13129257160
13129262897
13129266132
13129274494
13129279316
13129286335
13129290668
13129296222
13129301838
13129306965
13129312580
13129317646
13129321796
13129328815
13129333515
13129337909
13129343586
13129347736
13129352863
13129358478
13129363056
13129368671
13129374042
13129379108
13129385395
13129388019
13129394123
13129399311
13129405170
13129410297
13129418109
13129422565
13129429828
13129433795
13129440509
13129444598
13129449298
13129453815
13129460651
13129466327
13129469867
13129476093
13129481403
13129486591
13129495197
13129502704
13129512836
13129520282
13129527789
13129535663
13129542132
13129549274
13129557818
13129566241
13129573138
13129582232
13129592669
13129599810
13129607196
13129611712
13129622149
13129628436
13129637652
13129644427
13129653399
13129659991
13129667376
13129675067
13129683062
13129689532
13129695269
13129701556
13129707293
13129713030
13129718463
13129724688
13129731219
13129737994
13129744280
13129749835
13129757952
13129762957
13129770403
13129776812
13129785052
13129791338
13129797503
13129803423
13129810198
13129815325
13129821612
13129826983
13129831927
13129836565
13129841692
13129849016
13129854571
13129860674
13129866167
13129869158
13129876116
13129878924
13129887713
13129891497
13129899798
13129904741
13129910418
13129915300
13129923723
13129928484
13129933733
13129940508
13129946917
13129953569
13129958574
13129963640
13129969377
13129977373
13129982561
13129987749
13129993730
13130002764
13130010027
13130017839
13130025835
13130033220
13130039690
13130049394
13130056291
13130066179
13130072343
13130081926
13130088579
13130098161
13130104387
13130112016
13130121965
13130128984
13130137346
13130147233
13130153764
13130162980
13130169694
13130180070
13130189164
13130198503
13130204911
13130213090
13130216996
13130222734
13130228837
13130232804
13130240739
13130247453
13130252214
13130258500
13130262895
13130267167
13130273149
13130277909
13130282975
13130289445
13130297196
13130301042
13130307755
13130311967
13130317277
13130323991
13130328935
13130334611
13130340470
13130344315
13130350968
13130355302
13130361222
13130366776
13130373368
13130378861
13130385270
13130390885
13130396622
13130401688
13130407181
13130415482
13130421708
13130427323
13130434037
13130439835
13130446000
13130450089
13130453995
13130459916
13130464493
13130471207
13130476883
13130483109
13130486222
13130492569
13130498673
13130502335
13130506302
13130513138
13130519547
13130525406
13130529435
13130535965
13130539078
13130545853
13130550919
13130557999
13130564957
13130570450
13130576248
13130581314
13130584915
13130592545
13130596817
13130604325
13130611099
13130617569
13130621414
13130628983
13130633621
13130638260
13130643143
13130649429
13130654129
13130660599
13130666397
13130671402
13130677811
13130682693
13130688065
13130693008
13130698257
13130703262
13130711014
13130714615
13130720535
13130723404
13130732864
13130739151
13130744766
13130751419
13130755813
13130760513
13130767227
13130772049
13130778396
13130782791
13130787552
13130794449
13130799392
13130803543
13130810989
13130816055
13130820572
13130823562
13130832046
13130838211
13130843643
13130848220
13130853530
13130858230
13130864578
13130870376
13130875503
13130881545
13130887893
13130894119
13130900039
13130904312
13130907974
13130914443
13130920669
13130926345
13130932998
13130939773
13130945937
13130952102
13130963454
13130969192
13130976394
13130984389
13130991775
13130997329
13131002334
13131009109
13131015578
13131019729
13131025832
13131030227
13131035476
13131041152
13131046767
13131051345
13131057631
13131062270
13131067946
13131074782
13131078566
13131085891
13131090224
13131096206
13131101149
13131106887
13131112380
13131117446
13131122573
13131128005
13131134047
13131138564
13131144179
13131149306
13131155104
13131159804
13131166396
13131170973
13131174758
13131181044
13131186049
13131191237
13131196852
13131203627
13131208388
13131215346
13131219130
13131225417
13131228346
13131234938
13131240004
13131245741
13131251112
13131258803
13131262099
13131267653
13131273634
13131278883
13131284682
13131288893
13131295119
13131300307
13131306959
13131311781
13131315932
13131322035
13131327101
13131331618
13131337782
13131344252
13131349379
13131353407
13131360731
13131363905
13131371596
13131374586
13131380690
13131385817
13131393507
13131396864
13131403334
13131409071
13131414320
13131419813
13131424391
13131429335
13131435560
13131441481
13131446730
13131453016
13131457655
13131461866
13131467420
13131473646
13131478468
13131486891
13131492201
13131498121
13131502699
13131508497
13131513380
13131520155
13131527296
13131533582
13131538770
13131547498
13131553297
13131560377
13131564954
13131572950
13131579908
13131585157
13131591566
13131596693
13131603712
13131608228
13131612440
13131618421
13131624402
13131630384
13131634595
13131640577
13131646497
13131650709
13131656507
13131661634
13131670118
13131673047
13131680860
13131686292
13131690870
13131693982
13131701246
13131708081
13131713269
13131719190
13131726026
13131731153
13131737073
13131741101
13131747510
13131754224
13131758863
13131764478
13131770215
13131776380
13131781079
13131786023
13131792859
13131797193
13131803784
13131808057
13131814771
13131820386
13131827161
13131833997
13131838696
13131844373
13131849927
13131856091
13131860974
13131867871
13131873975
13131877881
13131886365
13131892346
13131899487
13131905530
13131910779
13131917370
13131923901
13131927930
13131935437
13131942395
13131947461
13131953015
13131958630
13131963330
13131969128
13131973584
13131979382
13131986401
13131994397
13131999524
13132005566
13132011242
13132016369
13132022168
13132027600
13132032727
13132040173
13132046032
13132053234
13132059033
13132062695
13132071423
13132077465
13132084851
13132093762
13132103344
13132111157
13132117809
13132126354
13132131176
13132142407
13132151745
13132162487
13132170544
13132180981
13132190075
13132198193
13132206310
13132214001
13132224254
13132232128
13132237987
13132247082
13132254711
13132264721
13132271618
13132276867
13132282909
13132291637
13132297557
13132299450
13132309948
13132320263
13132326000
13132331798
13132340648
13132347118
13132351818
13132361461
13132363658
13132375377
13132383006
13132392711
13132402294
13132409862
13132417003
13132424571
13132429942
13132438854
13132443980
13132451671
13132459239
13132466930
13132475108
13132482249
13132489146
13132496593
13132503612
13132510570
13132518260
13132527354
13132535411
13132539561
13132549632
13132555858
13132560740
13132570445
13132576426
13132583934
13132591258
13132599620
13132606700
13132612681
13132621226
13132626231
13132633555
13132639903
13132647532
13132656199
13132664561
13132672862
13132677012
13132686595
13132693308
13132700511
13132704356
13132713267
13132719553
13132730418
13132736765
13132743845
13132750742
13132755137
13132763560
13132772227
13132776987
13132784373
13132793711
13132803782
13132805796
13132816355
13132822581
13132831492
13132837717
13132845347
13132852549
13132861704
13132869639
13132873850
13132883677
13132890818
13132897715
13132905527
13132911631
13132920359
13132929880
13132941538
13132950022
13132955271
13132963449
13132968332
13132979379
13132986826
13132995798
13133004099
13133011545
13133025095
13133033579
13133041391
13133049204
13133057016
13133061655
13133072458
13133082590
13133091440
13133101083
13133107431
13133113840
13133118051
13133124460
13133129831
13133135080
13133141672
13133146066
13133152780
13133155771
13133162118
13133167611
13133172738
13133177804
13133184640
13133188974
13133195993
13133200631
13133206918
13133211862
13133218270
13133223764
13133229745
13133235360
13133240670
13133245492
13133252206
13133257760
13133263192
13133269784
13133275216
13133281686
13133287240
13133294076
13133299447
13133305551
13133308785
13133315988
13133324532
13133330697
13133335580
13133341622
13133346261
13133353646
13133359139
13133365121
13133371773
13133376351
13133383065
13133389474
13133394601
13133401375
13133406197
13133412118
13133417672
13133425362
13133431710
13133434945
13133443245
13133448189
13133454659
13133461129
13133467598
13133472359
13133478463
13133485360
13133490303
13133495858
13133502938
13133508980
13133513497
13133520516
13133524056
13133532601
13133537484
13133544014
13133550118
13133555489
13133562203
13133567635
13133574227
13133580147
13133586495
13133592415
13133598274
13133603584
13133609200
13133615730
13133621712
13133629646
13133635384
13133642098
13133647530
13133652473
13133659737
13133664680
13133673164
13133679817
13133688606
13133693550
13133698677
13133705696
13133710335
13133717964
13133723945
13133731148
13133736946
13133741340
13133747383
13133753792
13133758247
13133764839
13133770881
13133776069
13133779365
13133788948
13133791999
13133802559
13133806709
13133813789
13133819038
13133825325
13133829902
13133836128
13133840400
13133846260
13133850654
13133857429
13133861335
13133867988
13133875129
13133880073
13133886115
13133891609
13133897651
13133903632
13133907844
13133913642
13133919746
13133924384
13133930366
13133935432
13133940986
13133946113
13133950813
13133957832
13133963142
13133971320
13133977241
13133982307
13133987250
13133992560
13133998847
13134004462
13134009528
13134015754
13134022712
13134029853
13134034919
13134041511
13134045844
13134053229
13134057929
13134065864
13134071418
13134076423
13134081244
13134086982
13134092780
13134099921
13134107672
13134113715
13134120917
13134128791
13134133857
13134142096
13134148200
13134153388
13134158087
13134163825
13134168402
13134176154
13134181098
13134187934
13134193060
13134198370
13134203497
13134209052
13134216254
13134222357
13134227545
13134230780
13134239691
13134242926
13134250555
13134256598
13134267645
13134273932
13134279913
13134287726
13134292853
13134300299
13134306891
13134314215
13134318670
13134325018
13134329596
13134335089
13134341009
13134346441
13134352118
13134357611
13134362860
13134367132
13134372686
13134378119
13134383612
13134389471
13134395086
13134399664
13134405706
13134409918
13134415777
13134421026
13134426214
13134432867
13134438116
13134444403
13134448370
13134455084
13134460394
13134465826
13134470403
13134476690
13134481207
13134488104
13134492864
13134499700
13134504034
13134510320
13134515997
13134522588
13134528204
13134534612
13134539129
13134545110
13134549566
13134554937
13134561529
13134567083
13134572881
13134578496
13134584905
13134590032
13134593023
13134599248
13134604314
13134610723
13134618902
13134624090
13134629644
13134634466
13134637334
13134645818
13134648748
13134656499
13134660589
13134669805
13134675237
13134681646
13134686284
13134693181
13134698369
13134705022
13134710271
13134716741
13134723333
13134728582
13134734136
13134738530
13134744084
13134748906
13134755376
13134761174
13134765874
13134771916
13134776067
13134782475
13134786687
13134794194
13134799809
13134804997
13134809514
13134816411
13134822453
13134828923
13134832219
13134841985
13134847600
13134856572
13134861027
13134867497
13134872136
13134878300
13134885625
13134892277
13134899907
13134905156
13134910527
13134916264
13134920231
13134926030
13134930607
13134937321
13134942204
13134949772
13134954716
13134960331
13134965397
13134971562
13134977055
13134981327
13134988163
13134993596
13135000004
13135004277
13135012028
13135016850
13135023564
13135031376
13135036137
13135042607
13135050053
13135055302
13135062992
13135067753
13135073612
13135079533
13135086186
13135091618
13135096623
13135103520
13135107853
13135113590
13135119816
13135126041
13135132328
13135137638
13135144169
13135149601
13135154179
13135161503
13135166325
13135171940
13135177250
13135180302
13135189945
13135196293
13135202030
13135208439
13135214420
13135217655
13135225834
13135231693
13135237919
13135242801
13135247867
13135254581
13135263797
13135269596
13135277042
13135281681
13135288089
13135292850
13135299198
13135305667
13135312381
13135317691
13135320804
13135330204
13135333560
13135341312
13135347171
13135354557
13135359317
13135369998
13135375308
13135381900
13135387760
13135394046
13135399844
13135406802
13135412540
13135418948
13135423648
13135429019
13135435672
13135440250
13135447086
13135454044
13135461490
13135469363
13135475467
13135481876
13135487613
13135492435
13135498721
13135504397
13135508975
13135517520
13135524417
13135530093
13135535464
13135540225
13135546267
13135552737
13135555667
13135562198
13135566226
13135572512
13135576846
13135582034
13135588504
13135593203
13135597293
13135603396
13135608279
13135615725
13135620120
13135625979
13135632144
13135639285
13135646670
13135653384
13135659121
13135666140
13135670596
13135675417
13135681094
13135686831
13135690432
13135695620
13135700747
13135704592
13135710268
13135714907
13135723086
13135728152
13135734988
13135739809
13135744631
13135750613
13135754458
13135761538
13135767763
13135772829
13135775759
13135784060
13135789309
13135794253
13135798403
13135803713
13135808535
13135814089
13135820559
13135827212
13135833010
13135839785
13135844362
13135849733
13135855166
13135863161
13135867739
13135873781
13135878420
13135884340
13135889894
13135896730
13135903017
13135907717
13135913454
13135918032
13135924868
13135929384
13135937319
13135942140
13135947328
13135952577
13135958803
13135964662
13135970827
13135976198
13135981508
13135987734
13135993166
13135999330
13136005190
13136010683
13136016481
13136021730
13136026613
13136032472
13136038149
13136045778
13136056764
13136059877
13136068544
13136073244
13136080690
13136083803
13136092348
13136098024
13136104494
13136108583
13136114381
13136119081
13136126039
13136129884
13136134706
13136138795
13136144777
13136148561
13136154176
13136158693
13136164796
13136169435
13136176332
13136180726
13136186647
13136192140
13136197389
13136202089
13136208802
13136213441
13136219911
13136224732
13136231324
13136235963
13136240846
13136246949
13136251588
13136256959
13136263001
13136268739
13136274598
13136279420
13136284669
13136289735
13136295960
13136301453
13136306031
13136312562
13136317201
13136324952
13136329652
13136336488
13136344605
13136351197
13136356507
13136361695
13136366883
13136374268
13136377564
13136386475
13136389405
13136396790
13136401124
13136407715
13136414124
13136420533
13136426331
13136432801
13136437378
13136442627
13136448304
13136454407
13136461060
13136466187
13136472779
13136479004
13136483460
13136489136
13136493348
13136499390
13136504944
13136512024
13136517639
13136523011
13136528260
13136533631
13136539734
13136543213
13136551758
13136557190
13136565796
13136569092
13136576111
13136581238
13136588806
13136594177
13136602356
13136607483
13136614746
13136617920
13136626221
13136632019
13136640625
13136645386
13136651306
13136657288
13136666931
13136672485
13136679260
13136682495
13136691162
13136693970
13136700439
13136706421
13136712280
13136716858
13136724548
13136731018
13136735473
13136740173
13136747680
13136753418
13136760315
13136765197
13136771606
13136777710
13136784240
13136789978
13136795410
13136801452
13136807006
13136812316
13136816467
13136820495
13136827575
13136832946
13136841308
13136846313
13136852172
13136857726
13136864746
13136869323
13136875915
13136880737
13136887328
13136893554
13136898742
13136904479
13136910461
13136913940
13136921691
13136926208
13136933105
13136936889
13136944152
13136950317
13136955199
13136961242
13136967040
13136972777
13136978271
13136985168
13136993102
13136998717
13137003539
13137010558
13137016295
13137021728
13137025145
13137034057
13137042296
13137048034
13137053466
13137059752
13137064879
13137071471
13137079161
13137085509
13137090209
13137097045
13137103270
13137108397
13137114867
13137119445
13137125853
13137130553
13137135680
13137143920
13137150572
13137155211
13137160277
13137165953
13137173033
13137175902
13137182372
13137187804
13137197081
13137203124
13137209654
13137216978
13137221190
13137231139
13137238341
13137247374
13137252806
13137269896
13137276427
13137284544
13137293333
13137301573
13137309813
13137312315
13137325438
13137333067
13137341978
13137348021
13137356260
13137362242
13137369139
13137376158
13137383604
13137391233
13137398924
13137407774
13137414183
13137420164
13137426268
13137433653
13137439573
13137445432
13137450682
13137456114
13137464353
13137470579
13137476316
13137481016
13137487364
13137491758
13137497617
13137504453
13137512144
13137517576
13137524595
13137529295
13137536192
13137542722
13137547910
13137552549
13137559751
13137565855
13137570676
13137577268
13137581541
13137588071
13137593015
13137598325
13137605588
13137612729
13137617917
13137623105
13137628782
13137633787
13137638852
13137644285
13137651975
13137659116
13137664060
13137670835
13137675779
13137682737
13137688535
13137692014
13137699338
13137705808
13137712216
13137717954
13137722348
13137726987
13137733335
13137738462
13137745603
13137752561
13137756955
13137759824
13137768613
13137774533
13137779721
13137784116
13137790952
13137795895
13137803098
13137807797
13137813168
13137819577
13137825803
13137833005
13137839291
13137845578
13137852902
13137859738
13137863644
13137873288
13137882199
13137888791
13137895688
13137904782
13137911069
13137920041
13137930539
13137939755
13137948178
13137958310
13137964047
13137974423
13137982235
13137991085
13137996762
13138009396
13138019650
13138028134
13138036618
13138042538
13138049191
13138056210
13138062496
13138072018
13138078426
13138081783
13138089962
13138094723
13138102352
13138106747
13138113033
13138117672
13138124386
13138130672
13138135860
13138140865
13138147030
13138152889
13138156551
13138163570
13138169491
13138176754
13138181637
13138188045
13138192440
13138198910
13138204281
13138209530
13138215511
13138222225
13138227840
13138232906
13138237972
13138243587
13138249508
13138255306
13138261043
13138268062
13138274776
13138281917
13138288570
13138294490
13138299556
13138304317
13138311397
13138317379
13138323604
13138328792
13138334102
13138339717
13138346126
13138351131
13138356502
13138366817
13138372249
13138375057
13138383907
13138389583
13138394649
13138399165
13138405025
13138412776
13138418147
13138422786
13138429561
13138433833
13138441035
13138445735
13138452022
13138460384
13138466792
13138473018
13138478633
13138483150
13138488154
13138495173
13138500178
13138506831
13138512935
13138517817
13138526973
13138534358
13138539485
13138544246
13138549800
13138555476
13138563105
13138568171
13138572993
13138578669
13138583491
13138591120
13138597773
13138605403
13138613520
13138619502
13138628291
13138631892
13138639704
13138642939
13138652766
13138656977
13138665461
13138669978
13138675288
13138680048
13138684321
13138689570
13138694087
13138699946
13138706110
13138709895
13138715449
13138720454
13138726069
13138730524
13138735163
13138741755
13138749262
13138755915
13138759882
13138764765
13138770624
13138775446
13138780390
13138788080
13138792536
13138797663
13138802607
13138808222
13138814631
13138819636
13138824640
13138830134
13138836786
13138842829
13138847773
13138852289
13138857660
13138862482
13138869257
13138875666
13138881647
13138885920
13138892328
13138896784
13138903253
13138907953
13138914545
13138920893
13138926813
13138932916
13138938349
13138942865
13138949335
13138953607
13138959039
13138964960
13138969843
13138976068
13138980646
13138987543
13138991632
13138998285
13139001276
13139008905
13139015253
13139024774
13139027643
13139036127
13139039117
13139046991
13139051935
13139058649
13139065118
13139072137
13139077264
13139082696
13139088556
13139093927
13139098993
13139104059
13139110650
13139118158
13139122918
13139128228
13139133722
13139139520
13139144586
13139149041
13139155633
13139160455
13139167535
13139177362
13139184137
13139189935
13139196344
13139201348
13139207635
13139214776
13139222833
13139227838
13139232537
13139239861
13139244500
13139252191
13139257379
13139263848
13139268243
13139274285
13139278680
13139285211
13139289605
13139296075
13139300652
13139307793
13139313775
13139318658
13139324700
13139328851
13139335137
13139339959
13139346978
13139354119
13139361077
13139365655
13139372796
13139377190
13139382317
13139388787
13139393975
13139399895
13139404778
13139409844
13139415703
13139418694
13139426507
13139430169
13139437188
13139441887
13139450066
13139453179
13139459465
13139464043
13139471001
13139476677
13139482598
13139487297
13139494194
13139500664
13139504570
13139510552
13139516655
13139521111
13139526421
13139532036
13139538323
13139543266
13139548577
13139553765
13139558769
13139566521
13139571282
13139577995
13139582756
13139588738
13139595024
13139599663
13139606194
13139612053
13139617363
13139623405
13139627800
13139633903
13139640861
13139646110
13139651909
13139656914
13139663261
13139668571
13139674431
13139677788
13139687736
13139694206
13139699150
13139705559
13139711540
13139714287
13139721184
13139726066
13139734428
13139737785
13139744560
13139748893
13139755302
13139764885
13139771537
13139780632
13139786308
13139794609
13139800224
13139806144
13139811820
13139817558
13139823112
13139831169
13139835685
13139840995
13139847038
13139852958
13139856986
13139862174
13139868217
13139874931
13139880973
13139885429
13139891105
13139896903
13139903129
13139906852
13139913383
13139918693
13139925468
13139929679
13139936454
13139941337
13139947867
13139952811
13139957816
13139964225
13139971427
13139976737
13139981803
13139988029
13139993339
13139998160
13140004142
13140009269
13140015372
13140021476
13140026297
13140030692
13140037223
13140043448
13140049552
13140055228
13140064017
13140068900
13140076957
13140082267
13140088126
13140093253
13140102530
13140108023
13140114554
13140120230
13140125723
13140132010
13140137015
13140141654
13140147513
13140153616
13140159110
13140165213
13140170645
13140176199
13140181815
13140186148
13140190970
13140198965
13140206595
13140211783
13140219412
13140226736
13140232596
13140239432
13140245291
13140251456
13140257315
13140263357
13140268912
13140274832
13140279959
13140285879
13140291922
13140297964
13140303030
13140309256
13140314444
13140319449
13140327871
13140334036
13140341055
13140346182
13140352346
13140361074
13140367666
13140373831
13140381033
13140387319
13140392446
13140398916
13140404165
13140412405
13140415884
13140422598
13140428518
13140433340
13140439138
13140444509
13140450613
13140455862
13140461721
13140467886
13140473806
13140478567
13140482778
13140486990
13140492910
13140499197
13140504629
13140509451
13140514700
13140520193
13140525808
13140530080
13140535085
13140540273
13140545888
13140551565
13140557180
13140563589
13140568227
13140573293
13140580434
13140585805
13140591970
13140598440
13140604665
13140609365
13140615041
13140620046
13140627736
13140632436
13140638967
13140644277
13140652211
13140657827
13140662770
13140669240
13140673330
13140679982
13140684865
13140692861
13140699147
13140704701
13140710195
13140716847
13140723073
13140729238
13140734670
13140741750
13140750051
13140755361
13140761281
13140766652
13140773549
13140778859
13140785756
13140792592
13140799794
13140805165
13140812062
13140817433
13140823598
13140830373
13140835988
13140839406
13140847462
13140850880
13140859791
13140862782
13140870534
13140876088
13140881337
13140886952
13140892811
13140900441
13140906422
13140912220
13140919545
13140924611
13140930775
13140937916
13140946888
13140954823
13140960682
13140968006
13140972950
13140980152
13140988697
13140995777
13141002308
13141007191
13141013355
13141019642
13141024403
13141030628
13141035938
13141042347
13141046742
13141053455
13141058338
13141064076
13141069935
13141075062
13141082569
13141090626
13141095936
13141101124
13141106861
13141112476
13141116749
13141122791
13141128345
13141134998
13141139698
13141144459
13141151295
13141155994
13141160938
13141165943
13141172535
13141177845
13141185169
13141188770
13141195667
13141200184
13141207325
13141213001
13141219166
13141225513
13141231922
13141236622
13141241504
13141248462
13141253589
13141260669
13141264331
13141271595
13141277088
13141282276
13141285755
13141294239
13141299121
13141304798
13141309925
13141316944
13141321887
13141328784
13141333362
13141339343
13141346240
13141351734
13141356433
13141361316
13141369190
13141375049
13141382800
13141388599
13141394702
13141399768
13141405139
13141409656
13141416980
13141423206
13141429492
13141434009
13141440723
13141446460
13141452930
13141457690
13141462146
13141470264
13141477038
13141482226
13141489551
13141494555
13141499194
13141506457
13141512011
13141518237
13141525500
13141534045
13141540332
13141546923
13141553088
13141559253
13141562670
13141572192
13141577807
13141587146
13141595324
13141602282
13141612170
13141614916
13141623339
13141627856
13141633898
13141639025
13141645983
13141650012
13141654162
13141660815
13141666247
13141670702
13141677844
13141683398
13141687548
13141693591
13141697436
13141703539
13141709704
13141714770
13141721117
13141727221
13141730700
13141737414
13141741808
13141746264
13141750109
13141755968
13141759447
13141767809
13141773485
13141779345
13141782091
13141789477
13141793627
13141800890
13141805895
13141812121
13141817125
13141822069
13141827807
13141833483
13141837938
13141844530
13141849474
13141854479
13141861010
13141865648
13141871019
13141877001
13141881761
13141885912
13141891039
13141898363
13141904405
13141909532
13141916063
13141921556
13141926439
13141931749
13141936998
13141941942
13141948107
13141953600
13141960863
13141966112
13141970873
13141974901
13141981187
13141987413
13141994066
13141998277
13142005174
13142009874
13142014818
13142020189
13142025499
13142033678
13142039720
13142045885
13142050218
13142056200
13142062181
13142068407
13142074266
13142080552
13142085008
13142090806
13142096361
13142102708
13142107896
13142117051
13142123887
13142134019
13142143113
13142149034
13142158372
13142164292
13142169603
13142175767
13142181321
13142190904
13142196336
13142202256
13142208726
13142213243
13142218980
13142223924
13142230760
13142236802
13142243333
13142247056
13142254075
13142258775
13142265183
13142270738
13142276536
13142283372
13142288804
13142294358
13142300034
13142305894
13142311265
13142317612
13142322739
13142325974
13142334092
13142337327
13142344895
13142350388
13142356736
13142362595
13142368394
13142375718
13142382981
13142387986
13142395005
13142399827
13142405137
13142412522
13142417466
13142422287
13142428086
13142432908
13142438706
13142444260
13142449570
13142456284
13142461411
13142467514
13142470566
13142482163
13142485276
13142493332
13142498215
13142504990
13142510544
13142517136
13142524155
13142531845
13142537705
13142542160
13142548325
13142553757
13142559677
13142564194
13142570725
13142575974
13142581772
13142586533
13142593430
13142598251
13142604599
13142609543
13142615768
13142621750
13142627914
13142632431
13142636948
13142644089
13142648483
13142655624
13142661362
13142666672
13142672409
13142678024
13142682724
13142689438
13142694626
13142701584
13142706283
13142712143
13142719955
13142725082
13142731613
13142735824
13142744918
13142750778
13142758285
13142763717
13142769516
13142775253
13142783004
13142788986
13142794784
13142798568
13142806930
13142812423
13142819503
13142824386
13142831832
13142836471
13142843063
13142848678
13142853927
13142860091
13142865829
13142870651
13142878158
13142883590
13142888900
13142895736
13142900741
13142907577
13142911117
13142919112
13142926070
13142931686
13142934981
13142942367
13142948287
13142957137
13142961776
13142969283
13142974166
13142981734
13142986373
13142991378
13142998885
13143003096
13143010238
13143015975
13143022139
13143028548
13143033919
13143039595
13143045272
13143050399
13143057723
13143062545
13143068465
13143075179
13143082137
13143087081
13143093672
13143098921
13143104170
13143111739
13143117537
13143123091
13143130171
13143137007
13143140486
13143148116
13143154952
13143160811
13143165572
13143171309
13143178389
13143184248
13143191328
13143196700
13143201399
13143207320
13143212813
13143218550
13143225081
13143232832
13143238142
13143241255
13143249495
13143253096
13143261336
13143266035
13143272017
13143277998
13143285261
13143290571
13143296675
13143302961
13143308027
13143314436
13143318647
13143324934
13143331526
13143335920
13143341963
13143347456
13143354292
13143359907
13143366438
13143373152
13143380110
13143391279
13143396589
13143403303
13143409162
13143412458
13143422651
13143429304
13143435835
13143442548
13143449323
13143454084
13143461225
13143465742
13143471113
13143477827
13143483686
13143488142
13143493757
13143499738
13143505598
13143510603
13143517194
13143525312
13143531354
13143536115
13143542768
13143547651
13143554426
13143558271
13143566389
13143570478
13143578718
13143583173
13143589765
13143594953
13143601667
13143606183
13143613263
13143619123
13143626081
13143630903
13143635541
13143642255
13143647626
13143653730
13143660382
13143665570
13143670148
13143677655
13143681623
13143687665
13143692975
13143699628
13143704206
13143710919
13143716840
13143724835
13143730573
13143736615
13143741193
13143746076
13143753278
13143757001
13143764081
13143769879
13143774640
13143780988
13143786847
13143792218
13143797772
13143802472
13143808148
13143815533
13143820660
13143823956
13143831586
13143836407
13143843609
13143848553
13143854474
13143861432
13143867230
13143871747
13143878399
13143884198
13143888287
13143895794
13143901349
13143907635
13143911419
13143918560
13143924359
13143931622
13143936810
13143944683
13143950787
13143955059
13143964337
13143972760
13143978619
13143983868
13143990826
13143994915
13144003155
13144008343
13144016766
13144023297
13144030132
13144038555
13144043804
13144050274
13144056622
13144063274
13144069561
13144076092
13144081646
13144086285
13144092144
13144097637
13144104229
13144110332
13144114971
13144122234
13144128216
13144132854
13144138775
13144143597
13144150188
13144155926
13144162517
13144168133
13144173076
13144179485
13144184307
13144190960
13144196575
13144203777
13144209697
13144213543
13144221965
13144226787
13144233562
13144238445
13144244731
13144251995
13144257610
13144262676
13144269390
13144274089
13144281291
13144286785
13144293437
13144297588
13144304424
13144309978
13144316570
13144324321
13144329509
13144334514
13144340434
13144347026
13144352458
13144357036
13144363384
13144368816
13144375285
13144380107
13144384807
13144391215
13144396342
13144403056
13144408610
13144414104
13144420146
13144425273
13144431193
13144437541
13144442302
13144447978
13144452739
13144460246
13144465373
13144472148
13144476848
13144482463
13144489482
13144493022
13144500468
13144504802
13144512004
13144518351
13144523234
13144528239
13144533915
13144539958
13144546305
13144552775
13144560710
13144567912
13144574015
13144577799
13144586833
13144592936
13144600871
13144608317
13144615275
13144623881
13144626933
13144643717
13144652201
13144660380
13144667643
13144673869
13144685282
13144691813
13144698344
13144707377
13144716471
13144724345
13144730570
13144738993
13144744913
13144750956
13144757181
13144763712
13144766886
13144777872
13144780924
13144789042
13144796183
13144802347
13144805643
13144812662
13144818399
13144825968
13144831095
13144837503
13144841715
13144846903
13144851419
13144856302
13144863016
13144868570
13144873331
13144877725
13144883829
13144888346
13144893473
13144899698
13144905191
13144908304
13144915750
13144918558
13144926798
13144931864
13144936807
13144942117
13144947733
13144952676
13144961160
13144966348
13144970926
13144976541
13144980753
13144986002
13144988748
13144997537
13145002664
13145008951
13145013711
13145020242
13145025125
13145030679
13145034952
13145042703
13145049783
13145054971
13145059671
13145065042
13145069620
13145075906
13145080057
13145086343
13145092080
13145099466
13145104348
13145111551
13145116006
13145122049
13145127053
13145132547
13145138894
13145148294
13145155435
13145159829
13145168557
13145175881
13145180886
13145189492
13145197610
13145203347
13145211221
13145218911
13145226418
13145232888
13145241555
13145246499
13145258218
13145265542
13145270608
13145280618
13145289712
13145295876
13145303567
13145313149
13145321755
13145330727
13145340371
13145345070
13145357949
13145366677
13145372902
13145382912
13145387368
13145400795
13145406777
13145418129
13145427651
13145435952
13145442849
13145451943
13145459816
13145464028
13145476235
13145482582
13145491493
13145497963
13145500099
13145512551
13145522316
13145530373
13145538796
13145546181
13145553810
13145560524
13145566933
13145574684
13145582069
13145591225
13145600624
13145608864
13145613136
13145623756
13145631142
13145640358
13145647377
13145649757
13145660560
13145668312
13145674721
13145683632
13145687355
13145697609
13145703590
13145711708
13145716407
13145725319
13145733802
13145738929
13145746742
13145751014
13145761207
13145767982
13145776893
13145783973
13145790687
13145798194
13145803687
13145813880
13145821510
13145827064
13145836036
13145842689
13145851600
13145856300
13145866737
13145873756
13145881873
13145889014
13145895484
13145904029
13145908546
13145918006
13145924659
13145932288
13145939185
13145948646
13145954139
13145960914
13145969581
13145976050
13145980933
13145991126
13145993445
13146004554
13146013404
13146021582
13146029395
13146036597
13146044165
13146052893
13146058264
13146064612
13146073340
13146081519
13146088416
13146096778
13146102637
13146114234
13146120337
13146127173
13146135901
13146141516
13146154028
13146162695
13146172034
13146179480
13146187720
13146196143
13146201269
13146212988
13146221838
13146227453
13146239233
13146242773
13146258459
13146265234
13146273596
13146279150
13146288794
13146297400
13146306006
13146315039
13146325048
13146333837
13146344152
13146351965
13146356359
13146366918
13146373083
13146380407
13146386877
13146394140
13146403723
13146405676
13146415991
13146422643
13146430883
13146437292
13146443334
13146450414
13146462011
13146469762
13146473974
13146489355
13146500280
13146508825
13146520727
13146531103
13146542455
13146554723
13146565709
13146576391
13146587560
13146600194
13146608556
13146616246
13146624242
13146633214
13146639501
13146648717
13146655614
13146665929
13146674657
13146681859
13146689000
13146695775
13146704320
13146711339
13146719945
13146728124
13146736730
13146745946
13146754002
13146762425
13146770116
13146779271
13146787022
13146795750
13146803746
13146812413
13146820470
13146828709
13146832738
13146844395
13146851903
13146860203
13146867222
13146875462
13146885899
13146892247
13146903904
13146911900
13146918797
13146927647
13146936863
13146943516
13146952427
13146960789
13146966892
13146975682
13146981724
13146992466
13147001011
13147008396
13147017124
13147024571
13147033299
13147042820
13147053013
13147061802
13147078953
13147099705
13147118503
13147136936
13147154758
13147173557
13147191257
13147208469
13147229038
13147241916
13147248203
13147256931
13147266941
13147279087
13147292026
13147305148
13147317661
13147329257
13147341220
13147349277
13147358127
13147366367
13147374179
13147383029
13147392551
13147400424
13147409518
13147418857
13147425815
13147435153
13147444430
13147452487
13147463290
13147471957
13147480136
13147488376
13147496371
13147503268
13147511264
13147516757
13147527316
13147531100
13147541537
13147550936
13147562350
13147570346
13147577120
13147583224
13147590548
13147598971
13147606600
13147614901
13147621066
13147630587
13147638400
13147647067
13147654757
13147662753
13147668307
13147678866
13147685458
13147694674
13147703280
13147711153
13147719088
13147726778
13147734774
13147742647
13147750826
13147756685
13147765108
13147773958
13147782442
13147788607
13147799471
13147806612
13147815401
13147822847
13147829683
13147837801
13147846773
13147855135
13147861849
13147869783
13147879366
13147887667
13147896028
13147902864
13147911836
13147920381
13147928560
13147938448
13147946626
13147956636
13147963411
13147973726
13147980562
13147989839
13148000459
13148007783
13148016572
13148025239
13148032136
13148041414
13148047273
13148056123
13148067109
13148074128
13148078523
13148082185
13148087556
13148092988
13148097139
13148101045
13148106050
13148109712
13148115876
13148120149
13148124604
13148129914
13148135591
13148141572
13148146943
13148151826
13148156709
13148161653
13148166596
13148170625
13148175569
13148184968
13148190339
13148195832
13148201081
13148205171
13148210053
13148215730
13148219148
13148223969
13148227937
13148232942
13148236787
13148242402
13148247712
13148252900
13148256623
13148261262
13148266084
13148269563
13148274995
13148278535
13148283662
13148287568
13148294038
13148299348
13148305146
13148308991
13148315217
13148319489
13148325959
13148331391
13148337189
13148341889
13148348664
13148353303
13148357514
13148362153
13148368989
13148375214
13148380829
13148384552
13148391144
13148396515
13148401276
13148406769
13148412629
13148418671
13148423249
13148428742
13148433014
13148439789
13148446503
13148451691
13148457611
13148462799
13148468598
13148474030
13148480255
13148488007
13148493378
13148499115
13148505951
13148513336
13148518036
13148524628
13148531036
13148537872
13148542572
13148547882
13148553314
13148557404
13148564056
13148568329
13148574493
13148578155
13148583832
13148589325
13148594635
13148599213
13148604584
13148608795
13148613067
13148617645
13148624054
13148632477
13148638641
13148644378
13148650116
13148655914
13148660431
13148664642
13148672394
13148676544
13148681488
13148686432
13148691497
13148695404
13148701324
13148705474
13148712188
13148718353
13148722381
13148727203
13148731536
13148736602
13148742706
13148749908
13148755828
13148760833
13148766265
13148771148
13148776458
13148781402
13148785919
13148791839
13148796539
13148802947
13148806304
13148813323
13148819244
13148824004
13148830291
13148834747
13148839751
13148845977
13148851226
13148856719
13148862151
13148866973
13148875396
13148880218
13148886321
13148891387
13148896087
13148902556
13148909148
13148915191
13148920684
13148925933
13148933379
13148937713
13148944121
13148948089
13148953093
13148958648
13148966521
13148972625
13148978240
13148983733
13148990447
13148995208
13149000212
13149007537
13149015410
13149023162
13149029082
13149038420
13149042082
13149049712
13149058989
13149065886
13149071257
13149076628
13149082671
13149086821
13149091643
13149098540
13149104094
13149110075
13149114958
13149121184
13149127165
13149131743
13149137297
13149143340
13149150175
13149156218
13149160918
13149166045
13149171904
13149177458
13149183317
13149188750
13149196867
13149202055
13149207915
13149213774
13149220305
13149225798
13149231169
13149238432
13149243376
13149249907
13149254240
13149262968
13149267363
13149275847
13149281340
13149288054
13149292692
13149298368
13149305449
13149312529
13149317350
13149323210
13149327299
13149331388
13149338163
13149343779
13149349211
13149353910
13149360258
13149365629
13149371427
13149375395
13149382414
13149387846
13149393400
13149398588
13149403532
13149411344
13149416410
13149421232
13149427580
13149432401
13149438444
13149442228
13149448209
13149452726
13149459928
13149463651
13149469999
13149476041
13149482389
13149488370
13149493619
13149498441
13149505094
13149510526
13149516813
13149521757
13149529081
13149534940
13149540677
13149545560
13149550199
13149557950
13149563566
13149568998
13149572904
13149581449
13149587125
13149592252
13149597806
13149605619
13149611112
13149617337
13149625638
13149634915
13149639432
13149647183
13149655179
13149660245
13149667996
13149672696
13149678800
13149683133
13149689359
13149691861
13149698026
13149702176
13149708096
13149712613
13149719266
13149722623
13149729398
13149732510
13149739468
13149744962
13149749417
13149755338
13149761319
13149766751
13149772061
13149779080
13149785001
13149789029
13149796048
13149800381
13149806363
13149812344
13149818814
13149822964
13149834805
13149840359
13149848721
13149851895
13149860684
13149863675
13149872342
13149875515
13149882840
13149887722
13149895657
13149902432
13149908230
13149914944
13149920376
13149923794
13149931973
13149936672
13149942532
13149948025
13149954983
13149961575
13149967251
13149971829
13149976772
13149984402
13149988613
13149995571
13150001003
13150006802
13150013577
13150019009
13150022060
13150030178
13150034817
13150041164
13150046902
13150054287
13150059963
13150065639
13150070278
13150075527
13150082973
13150088100
13150093410
13150099392
13150104580
13150107570
13150115993
13150120876
13150127102
13150132107
13150138332
13150145107
13150152248
13150157558
13150163295
13150171840
13150176601
13150182705
13150188015
13150194912
13150199306
13150211391
13150217678
13150222072
13150231655
13150236660
13150243373
13150249050
13150258510
13150264430
13150271327
13150277126
13150282497
13150288783
13150294765
13150299831
13150306789
13150313869
13150318507
13150325465
13150329005
13150338161
13150341518
13150348415
13150355373
13150359950
13150367152
13150371608
13150378810
13150385280
13150390651
13150395473
13150402492
13150409938
13150415553
13150418910
13150427272
13150432155
13150438930
13150444423
13150450709
13150457240
13150463527
13150469813
13150475978
13150481227
13150487025
13150494410
13150499781
13150505275
13150513026
13150518580
13150524379
13150530360
13150533473
13150541285
13150545985
13150554103
13150559168
13150565943
13150571009
13150577540
13150584376
13150589625
13150596278
13150600123
13150607691
13150615870
13150620570
13150627589
13150633265
13150636317
13150643824
13150648951
13150655848
13150661341
13150668909
13150674280
13150680994
13150685938
13150692164
13150699122
13150703882
13150711085
13150716273
13150723963
13150728846
13150735987
13150741114
13150746851
13150750086
13150761072
13150765772
13150775599
13150779017
13150787256
13150792566
13150800379
13150807154
13150811426
13150819849
13150826136
13150833887
13150839014
13150844751
13150849817
13150856592
13150859766
13150868372
13150875147
13150882776
13150888452
13150893884
13150900720
13150906763
13150913416
13150917993
13150924646
13150929895
13150935449
13150941797
13150945947
13150952295
13150955469
13150962915
13150967859
13150975061
13150979517
13150985681
13150992029
13150995508
13151002466
13151008874
13151013452
13151019372
13151026269
13151030115
13151037011
13151043054
13151048364
13151053430
13151058557
13151067346
13151072717
13151077600
13151083215
13151087487
13151095422
13151098779
13151106042
13151111962
13151119836
13151125207
13151133203
13151142236
13151148889
13151153771
13151158715
13151164819
13151172021
13151176904
13151182519
13151188744
13151193566
13151199548
13151204308
13151209374
13151215661
13151222863
13151226769
13151233178
13151238000
13151243554
13151249474
13151254601
13151257836
13151266259
13151271264
13151277856
13151282372
13151289330
13151293786
13151298913
13151306237
13151312646
13151319481
13151325036
13151330590
13151334252
13151340600
13151344994
13151351464
13151356408
13151361535
13151367760
13151373375
13151379357
13151385460
13151391808
13151397606
13151406395
13151411095
13151417992
13151425072
13151430992
13151436608
13151442772
13151448876
13151460106
13151465355
13151474938
13151481224
13151489464
13151494896
13151500145
13151509544
13151514427
13151520897
13151526146
13151532127
13151537865
13151544884
13151549705
13151557335
13151562645
13151567894
13151574058
13151579063
13151585228
13151589317
13151597069
13151602440
13151607750
13151611900
13151619713
13151623131
13151630089
13151634971
13151641197
13151646995
13151653831
13151660118
13151666771
13151671898
13151679466
13151685630
13151690269
13151697593
13151702842
13151709678
13151714988
13151719749
13151722801
13151732139
13151735191
13151742515
13151750755
13151756553
13151762535
13151768089
13151772910
13151779746
13151785545
13151791526
13151798118
13151806114
13151811424
13151817893
13151823447
13151826499
13151834495
13151837913
13151848045
13151851768
13151860374
13151865806
13151872947
13151877585
13151884543
13151890098
13151895408
13151902732
13151908591
13151914023
13151920249
13151924705
13151927695
13151935447
13151942161
13151947837
13151951499
13151959678
13151965232
13151972495
13151977195
13151984092
13151989463
13151995383
13152001120
13152009421
13152014304
13152018820
13152025778
13152030539
