13218198400
13218204076
13218209996
13218216161
13218222386
13218228551
13218234776
13218240148
13218247472
13218253514
13218260045
13218266271
13218272679
13218280431
13218288304
13218291783
13218301060
13218308995
13218316075
13218321446
13218328282
13218332066
13218341710
13218350072
13218356969
13218363927
13218371007
13218376744
13218382969
13218390049
13218396885
13218400792
13218413670
13218421605
13218429051
13218439183
13218448582
13218456456
13218464024
13218471531
13218477452
13218481358
13218492344
13218499790
13218505528
13218515965
13218522679
13218530186
13218537449
13218542759
13218549900
13218556187
13218562718
13218566135
13218573460
13218580174
13218587681
13218593296
13218599216
13218605137
13218610447
13218616123
13218620396
13218628269
13218633823
13218640903
13218646519
13218653049
13218658054
13218665012
13218670139
13218675754
13218681309
13218689487
13218694309
13218699802
13218704685
13218709507
13218713840
13218720066
13218723301
13218729160
13218734226
13218739292
13218742344
13218748813
13218751682
13218758030
13218762973
13218766880
13218772495
13218776523
13218781772
13218785739
13218790317
13218797153
13218802341
13218806735
13218811801
13218817172
13218822299
13218826206
13218832004
13218836398
13218841342
13218845065
13218849582
13218853549
13218858310
13218863010
13218870151
13218873874
13218883823
13218889682
13218899081
13218903720
13218907993
13218913242
13218918185
13218921542
13218929599
13218936191
13218943637
13218949985
13218957492
13218963901
13218968600
13218977939
13218982577
13218990878
13218997836
13219003817
13219011081
13219017367
13219024264
13219031222
13219039401
13219046359
13219053195
13219059420
13219065097
13219072665
13219079623
13219084811
13219091647
13219096347
13219101046
13219105929
13219111727
13219116183
13219122164
13219124911
13219130221
13219134860
13219139071
13219145175
13219149874
13219155367
13219158968
13219163973
13219169405
13219173800
13219180026
13219184786
13219190462
13219195284
13219200655
13219205599
13219210421
13219216219
13219221346
13219227083
13219231905
13219238253
13219243563
13219249178
13219254793
13219260592
13219264925
13219270479
13219274813
13219280001
13219283541
13219290926
13219294161
13219302584
13219306063
13219314608
13219320589
13219325594
13219332613
13219338961
13219348299
13219357454
13219365633
13219373201
13219381990
13219390413
13219400789
13219405977
13219416048
13219421358
13219437044
13219443330
13219450655
13219459016
13219464876
13219471285
13219477083
13219487764
13219496187
13219504121
13219512788
13219518587
13219525056
13219532136
13219538118
13219543550
13219549165
13219553804
13219561860
13219566987
13219573640
13219579927
13219586274
13219592073
13219598787
13219603730
13219608735
13219613618
13219618074
13219622163
13219628755
13219635102
13219640290
13219644624
13219649568
13219653779
13219658967
13219662568
13219670930
13219676179
13219682038
13219687470
13219693818
13219698945
13219705415
13219711396
13219715669
13219721833
13219726960
13219733125
13219740205
13219745637
13219750153
13219753877
13219762727
13219766511
13219773896
13219779267
13219785737
13219790803
13219796662
13219802888
13219810273
13219816315
13219824433
13219831574
13219841340
13219848725
13219857392
13219866425
13219874787
13219882844
13219891633
13219896943
13219907380
13219912690
13219923371
13219931977
13219938630
13219946320
13219955292
13219965790
13219972809
13219980255
13219986542
13219994538
13220001251
13220009247
13220016632
13220023956
13220029877
13220037079
13220041718
13220050263
13220056305
13220063751
13220069611
13220077850
13220082367
13220091949
13220099396
13220104340
13220110382
13220114715
13220117950
13220124481
13220127533
13220134796
13220138336
13220147125
13220150604
13220157257
13220160553
13220167328
13220172027
13220178009
13220183624
13220191803
13220198089
13220203155
13220207855
13220214447
13220220367
13220226410
13220231109
13220237457
13220243743
13220247284
13220255889
13220259429
13220266082
13220271453
13220279083
13220284393
13220290374
13220295196
13220302520
13220307708
13220314178
13220318817
13220326080
13220334136
13220342620
13220348419
13220357818
13220366546
13220373565
13220380462
13220388580
13220394744
13220403655
13220412383
13220419952
13220424224
13220435027
13220442046
13220447600
13220455474
13220463836
13220468963
13220480010
13220487456
13220495086
13220501555
13220509246
13220515960
13220525054
13220531035
13220535186
13220541045
13220547332
13220553923
13220559050
13220566924
13220572051
13220579558
13220584441
13220591216
13220597502
13220602507
13220608916
13220611296
13220622710
13220629302
13220634123
13220640166
13220646697
13220650603
13220657317
13220661101
13220669341
13220674284
13220682768
13220690947
13220699492
13220704314
13220710783
13220718291
13220723906
13220733549
13220739104
13220746855
13220751982
13220756071
13220762358
13220767058
13220772978
13220778227
13220785246
13220789396
13220796049
13220799955
13220807585
13220811247
13220819853
13220824308
13220833525
13220837736
13220848417
13220856169
13220863066
13220872404
13220878263
13220886686
13220893339
13220903349
13220910612
13220919462
13220928800
13220937101
13220944853
13220952421
13220959806
13220967558
13220974027
13220983488
13220992582
13220998136
13221006376
13221014677
13221019498
13221025114
13221031339
13221037504
13221043180
13221048002
13221053800
13221059232
13221063566
13221068265
13221074003
13221081266
13221086454
13221092496
13221097745
13221102140
13221108365
13221113614
13221118802
13221125516
13221131009
13221135648
13221141568
13221146634
13221152982
13221158292
13221163053
13221167752
13221175626
13221181424
13221186368
13221191495
13221197354
13221201444
13221208219
13221213773
13221220426
13221226468
13221231717
13221237027
13221243436
13221249051
13221254910
13221260465
13221266629
13221273404
13221279019
13221284695
13221288663
13221296841
13221303555
13221314664
13221323331
13221333157
13221347867
13221354092
13221364468
13221374661
13221382596
13221389309
13221396878
13221403470
13221411221
13221419156
13221425381
13221435147
13221441372
13221449673
13221455899
13221465420
13221471157
13221478115
13221486416
13221495266
13221500698
13221508572
13221512661
13221518276
13221522427
13221527187
13221531460
13221537014
13221542629
13221548489
13221553555
13221559536
13221565823
13221570461
13221576626
13221578457
13221588283
13221593960
13221598476
13221601833
13221608974
13221612636
13221621242
13221624660
13221631557
13221636440
13221642605
13221647976
13221653652
13221658047
13221664882
13221669643
13221676357
13221681606
13221686672
13221692836
13221696193
13221704555
13221708095
13221714626
13221719875
13221725734
13221731289
13221737270
13221742275
13221748317
13221753627
13221760219
13221765163
13221770290
13221778163
13221784206
13221789028
13221795558
13221801418
13221809047
13221816921
13221823390
13221832362
13221839137
13221849086
13221856105
13221866725
13221873683
13221879176
13221890529
13221896022
13221906154
13221911586
13221920436
13221927638
13221935878
13221943080
13221952052
13221958400
13221968287
13221974330
13221981105
13221990016
13221997889
13222007350
13222015895
13222023463
13222025782
13222034632
13222041224
13222046595
13222052699
13222059718
13222064540
13222069972
13222075160
13222082423
13222087794
13222093775
13222098658
13222103968
13222108607
13222114710
13222120936
13222126917
13222133326
13222138880
13222143153
13222149683
13222154749
13222160304
13222164515
13222168238
13222179102
13222181239
13222190150
13222193568
13222199671
13222203333
13222210535
13222215601
13222221033
13222225794
13222232020
13222236536
13222241419
13222246424
13222252222
13222258021
13222262964
13222269312
13222274744
13222280481
13222284693
13222291529
13222295252
13222301111
13222306055
13222313990
13222318933
13222328333
13222334803
13222342920
13222349329
13222358606
13222365625
13222372949
13222379114
13222387598
13222393640
13222403162
13222409082
13222414087
13222424829
13222431970
13222441492
13222446436
13222456873
13222465356
13222471338
13222475977
13222485986
13222494409
13222502771
13222507593
13222513269
13222518457
13222523523
13222529260
13222533227
13222538782
13222545373
13222550256
13222557458
13222561548
13222566125
13222571313
13222577112
13222582422
13222586633
13222592675
13222599206
13222603173
13222608850
13222614221
13222617456
13222623437
13222627099
13222636254
13222640344
13222646875
13222652368
13222659875
13222665124
13222671166
13222676599
13222684045
13222689721
13222693871
13222697839
13222702966
13222707055
13222713036
13222717187
13222721520
13222725793
13222732201
13222737328
13222741052
13222745507
13222751916
13222756799
13222764733
13222769860
13222776269
13222781701
13222788293
13222794762
13222803979
13222810998
13222813500
13222826989
13222835168
13222844079
13222851647
13222860497
13222868798
13222875329
13222885827
13222892846
13222901574
13222907799
13222917076
13222923607
13222932762
13222939354
13222947228
13222955651
13222964379
13222970970
13222978478
13222986778
13222992821
13223000694
13223005638
13223012047
13223016502
13223022362
13223028587
13223033165
13223039757
13223046959
13223052025
13223056297
13223062584
13223067345
13223073570
13223078209
13223084129
13223088158
13223094261
13223099754
13223106102
13223111717
13223117149
13223121849
13223128380
13223134666
13223136619
13223147728
13223153038
13223158958
13223164818
13223170616
13223175377
13223182213
13223188316
13223193016
13223199546
13223204490
13223211692
13223216453
13223222801
13223228111
13223235130
13223240440
13223247093
13223251731
13223258201
13223264610
13223271812
13223278221
13223287498
13223297508
13223307823
13223313438
13223323570
13223330711
13223339072
13223345969
13223355125
13223362266
13223370933
13223377952
13223386558
13223393272
13223402427
13223408835
13223420127
13223427573
13223435874
13223442161
13223451621
13223458518
13223466025
13223474509
13223481772
13223490561
13223496665
13223501181
13223504721
13223514121
13223519980
13223525229
13223530234
13223536154
13223541648
13223547751
13223552390
13223559592
13223564536
13223570212
13223576010
13223581259
13223589072
13223594077
13223599875
13223603537
13223611472
13223614829
13223621909
13223626730
13223634665
13223639975
13223646079
13223650900
13223656943
13223662131
13223668661
13223673239
13223678976
13223685385
13223691489
13223696432
13223699728
13223708456
13223712790
13223719137
13223722677
13223730307
13223733969
13223742392
13223745932
13223752890
13223757773
13223763510
13223767843
13223775290
13223779623
13223785727
13223791220
13223795309
13223806906
13223811911
13223822531
13223832296
13223840780
13223847250
13223855490
13223860556
13223871542
13223879721
13223887594
13223894674
13223902853
13223910177
13223919088
13223925375
13223934835
13223941305
13223951009
13223957479
13223967184
13223974996
13223984212
13223993124
13224001241
13224009847
13224014852
13224022115
13224026266
13224036703
13224042989
13224048604
13224052450
13224058126
13224063619
13224070272
13224074605
13224082662
13224085775
13224092427
13224097432
13224103353
13224109456
13224115560
13224120748
13224127278
13224132222
13224138326
13224142903
13224148763
13224154988
13224161214
13224165608
13224171956
13224176351
13224180440
13224189046
13224192830
13224200337
13224205159
13224211263
13224216206
13224223897
13224229085
13224234029
13224240804
13224245808
13224250325
13224256856
13224261983
13224266011
13224273518
13224279317
13224283833
13224291280
13224296406
13224301228
13224307515
13224314412
13224324238
13224331807
13224339192
13224348225
13224355549
13224361958
13224370625
13224377400
13224387715
13224394612
13224403645
13224410054
13224414997
13224427082
13224431843
13224441670
13224446614
13224457600
13224465351
13224474201
13224480915
13224489094
13224495564
13224503559
13224510212
13224516132
13224525532
13224531269
13224536518
13224541523
13224547199
13224550129
13224557209
13224560383
13224568378
13224572346
13224579609
13224587421
13224593891
13224599445
13224604633
13224606281
13224614582
13224620807
13224625263
13224632892
13224639484
13224649738
13224656635
13224664509
13224671772
13224678974
13224682880
13224688800
13224693561
13224699421
13224705768
13224709552
13224714435
13224718525
13224724079
13224727985
13224734333
13224740070
13224746051
13224750995
13224755939
13224760028
13224763080
13224770160
13224776264
13224782916
13224787250
13224795123
13224805133
13224810993
13224820880
13224827106
13224836078
13224843219
13224850299
13224857562
13224864642
13224870929
13224878680
13224885089
13224893207
13224899859
13224908221
13224915423
13224922626
13224928363
13224935992
13224942462
13224952166
13224959124
13224967120
13224973346
13224978595
13224988360
13224994098
13224999591
13225002887
13225010455
13225014972
13225021258
13225025958
13225030108
13225035907
13225040667
13225044024
13225053973
13225060137
13225065142
13225071002
13225075152
13225079974
13225085467
13225091143
13225097552
13225102801
13225108599
13225112750
13225118914
13225124407
13225128680
13225134295
13225140765
13225148089
13225150408
13225158587
13225164324
13225168597
13225171954
13225179705
13225183184
13225191057
13225197344
13225204363
13225210894
13225215655
13225222124
13225228106
13225235552
13225243426
13225254473
13225262896
13225271013
13225278948
13225285967
13225296770
13225305315
13225312151
13225321001
13225327959
13225335405
13225342363
13225349748
13225355364
13225362505
13225369402
13225376604
13225383074
13225388872
13225398149
13225402239
13225411272
13225420976
13225428667
13225436174
13225444841
13225451372
13225457719
13225464860
13225470293
13225474443
13225477251
13225484514
13225487321
13225496904
13225499589
13225506120
13225508989
13225516008
13225519243
13225525163
13225528459
13225535295
13225538713
13225544938
13225550065
13225556291
13225561479
13225566118
13225570634
13225577043
13225581987
13225587297
13225592729
13225597551
13225603837
13225609025
13225613603
13225617021
13225624040
13225627092
13225635270
13225639360
13225645890
13225650590
13225655168
13225661698
13225666520
13225670793
13225676896
13225681657
13225686723
13225692643
13225696916
13225703263
13225706925
13225715226
13225718705
13225724259
13225729447
13225735978
13225743424
13225751664
13225759110
13225767716
13225775407
13225783585
13225792191
13225798417
13225805192
13225814530
13225820695
13225829300
13225836381
13225841446
13225851395
13225859757
13225866593
13225873002
13225884354
13225889908
13225901566
13225907303
13225918106
13225926407
13225935013
13225942887
13225950394
13225955399
13225960953
13225967179
13225972489
13225977127
13225982803
13225988541
13225990433
13225999222
13226004715
13226011002
13226014359
13226021317
13226026138
13226033279
13226038101
13226043961
13226048782
13226054337
13226058731
13226065140
13226069534
13226076065
13226082107
13226087112
13226092850
13226098282
13226105423
13226108902
13226116226
13226119827
13226126907
13226132217
13226137161
13226143997
13226148391
13226153152
13226159622
13226164627
13226171158
13226175613
13226181411
13226187576
13226192886
13226200027
13226203750
13226210525
13226214309
13226221756
13226226516
13226232437
13226237625
13226244033
13226250930
13226261367
13226268264
13226274063
13226285476
13226290969
13226299392
13226306533
13226315566
13226322952
13226330703
13226337417
13226346023
13226353652
13226363662
13226370376
13226379409
13226387221
13226394301
13226401076
13226406264
13226417617
13226422622
13226431289
13226438369
13226447402
13226452468
13226457656
13226461806
13226468947
13226473769
13226479689
13226483962
13226490615
13226496047
13226503371
13226508681
13226514540
13226518874
13226521926
13226530226
13226533705
13226542800
13226547682
13226555861
13226561720
13226566237
13226573744
13226579421
13226585524
13226591750
13226597182
13226600295
13226606093
13226611464
13226616042
13226620863
13226625807
13226630934
13226636244
13226640211
13226645399
13226650221
13226654921
13226660780
13226667982
13226673109
13226679518
13226684767
13226688734
13226693007
13226698256
13226704176
13226708876
13226715529
13226720106
13226728041
13226734144
13226742323
13226747938
13226752516
13226762465
13226766920
13226778822
13226781691
13226793043
13226798109
13226807997
13226813063
13226824903
13226829786
13226838575
13226846022
13226853468
13226859815
13226868604
13226875196
13226882337
13226890516
13226898634
13226905531
13226914198
13226922071
13226926649
13226932630
13226936414
13226945509
13226948927
13226955762
13226960889
13226966688
13226971448
13226977064
13226981519
13226987806
13226994276
13227000013
13227004529
13227010023
13227015882
13227021741
13227026075
13227029554
13227038099
13227043653
13227049695
13227054822
13227061231
13227067456
13227072522
13227077405
13227083997
13227088941
13227095349
13227101026
13227105909
13227110730
13227115613
13227122571
13227127515
13227134351
13227139295
13227145032
13227150037
13227156018
13227163159
13227168653
13227173963
13227182630
13227188306
13227194470
13227200513
13227207105
13227212109
13227218091
13227223706
13227229321
13227237378
13227241833
13227251050
13227256360
13227266370
13227271191
13227280774
13227285412
13227293835
13227300122
13227307873
13227314709
13227323193
13227330151
13227336682
13227342358
13227350049
13227356274
13227363232
13227369519
13227377819
13227384716
13227396557
13227403027
13227412854
13227419262
13227427380
13227432324
13227438488
13227443798
13227450390
13227455761
13227461865
13227467358
13227473644
13227476879
13227484203
13227489880
13227495251
13227498608
13227509106
13227514904
13227521923
13227526623
13227531078
13227536938
13227543896
13227548962
13227554211
13227559948
13227566784
13227571789
13227576488
13227581371
13227587475
13227593151
13227595104
13227603344
13227609569
13227615856
13227620189
13227624462
13227630138
13227635448
13227640270
13227646496
13227651317
13227657421
13227661998
13227667247
13227672619
13227677990
13227682201
13227689525
13227695079
13227701671
13227706127
13227714366
13227721874
13227729991
13227736766
13227742504
13227753673
13227761058
13227769237
13227777171
13227784740
13227791881
13227802257
13227809032
13227818614
13227827403
13227833873
13227845225
13227850352
13227860789
13227867015
13227877452
13227883372
13227895579
13227904857
13227911082
13227917918
13227925853
13227932322
13227938548
13227943004
13227949595
13227954173
13227959178
13227963511
13227969798
13227974437
13227978160
13227985301
13227988719
13227998057
13228001841
13228008799
13228014476
13228019847
13228024607
13228029856
13228034495
13228040721
13228045298
13228054515
13228060496
13228065867
13228070078
13228075633
13228080088
13228087290
13228095225
13228100047
13228104807
13228111704
13228117014
13228122691
13228129465
13228135813
13228141062
13228147654
13228153818
13228156321
13228164500
13228169993
13228175608
13228179087
13228188425
13228192698
13228199534
13228203501
13228211130
13228216074
13228222300
13228226389
13228235178
13228241221
13228247080
13228252634
13228254587
13228263315
13228268259
13228274302
13228278208
13228285227
13228289621
13228296823
13228301889
13228307566
13228313242
13228320078
13228325144
13228331674
13228337961
13228343820
13228348032
13228353708
13228359323
13228365183
13228370615
13228377207
13228382883
13228389230
13228395090
13228400461
13228407114
13228412302
13228418222
13228422983
13228430734
13228437143
13228442331
13228449655
13228455087
13228461313
13228470590
13228476694
13228482675
13228490793
13228497140
13228501596
13228507760
13228513498
13228518075
13228526132
13228529550
13228537729
13228541574
13228547860
13228551706
13228558969
13228563791
13228568612
13228573312
13228580636
13228586068
13228591867
13228596688
13228601144
13228607553
13228612741
13228619271
13228625497
13228631356
13228636910
13228641305
13228647653
13228651986
13228658700
13228662972
13228666329
13228674081
13228679818
13228684884
13228690316
13228694466
13228700570
13228705880
13228710885
13228718453
13228723824
13228731332
13228735055
13228741647
13228747140
13228753731
13228757760
13228765938
13228772225
13228777413
13228783761
13228789986
13228794503
13228802804
13228808297
13228815682
13228822884
13228828011
13228831856
13228841927
13228845955
13228852547
13228858040
13228865364
13228871407
13228879586
13228883492
13228890511
13228895455
13228902291
13228907662
13228914559
13228920174
13228927498
13228933602
13228939644
13228946297
13228948555
13228957955
13228965401
13228970772
13228978584
13228984322
13228988472
13228995979
13229000313
13229008064
13229014290
13229019600
13229024788
13229030952
13229036934
13229043037
13229048958
13229055061
13229061409
13229068733
13229078682
13229085701
13229090095
13229097847
13229104500
13229111580
13229117378
13229127937
13229133430
13229140999
13229144539
13229151252
13229155220
13229161995
13229166816
13229173652
13229177375
13229185127
13229190010
13229196968
13229203315
13229208076
13229214241
13229219429
13229224372
13229230476
13229235359
13229242622
13229247016
13229252693
13229258979
13229261054
13229271125
13229276130
13229281928
13229289314
13229293769
13229299629
13229306098
13229311530
13229318916
13229323493
13229329353
13229334907
13229339912
13229344611
13229351203
13229356208
13229361823
13229368293
13229374274
13229379096
13229385993
13229390327
13229396491
13229402534
13229408332
13229414374
13229419623
13229425239
13229430793
13229435431
13229442511
13229446845
13229451728
13229459784
13229463752
13229470282
13229475592
13229481025
13229485480
13229491217
13229497504
13229502997
13229507636
13229513861
13229519538
13229521613
13229529914
13229533454
13229540106
13229545050
13229552741
13229558905
13229564276
13229569220
13229574469
13229579901
13229588873
13229595038
13229600165
13229607184
13229612555
13229618414
13229623602
13229630011
13229635443
13229639899
13229644781
13229653509
13229657538
13229664862
13229668402
13229675970
13229681463
13229687872
13229693426
13229702887
13229708380
13229715033
13229724310
13229729864
13229735846
13229739752
13229745062
13229751043
13229755987
13229761724
13229766180
13229771856
13229776556
13229781927
13229787176
13229793280
13229798529
13229803839
13229808050
13229813726
13229819708
13229823858
13229829473
13229835333
13229838934
13229845770
13229849310
13229857305
13229860662
13229867132
13229872503
13229880193
13229885198
13229892584
13229897405
13229902471
13229907049
13229914312
13229918584
13229924871
13229931951
13229936773
13229942693
13229947271
13229953191
13229956792
13229964178
13229967779
13229976446
13229980474
13229987798
13229991887
13229998845
13230003728
13230009893
13230015386
13230021245
13230026738
13230032964
13230038762
13230044744
13230049505
13230055059
13230061528
13230066777
13230071660
13230077581
13230082830
13230090337
13230094182
13230103459
13230107549
13230116826
13230120366
13230127507
13230132512
13230138555
13230144231
13230150151
13230155522
13230162358
13230168950
13230174687
13230182927
13230188725
13230195500
13230200322
13230208623
13230216557
13230224126
13230232610
13230240422
13230248479
13230254826
13230262822
13230271428
13230275334
13230285832
13230295781
13230302250
13230311772
13230320561
13230329045
13230340214
13230347660
13230351872
13230364750
13230374821
13230381718
13230394230
13230402714
13230410221
13230417423
13230423466
13230430546
13230436588
13230441227
13230450932
13230455326
13230462101
13230465641
13230472233
13230475346
13230481876
13230487614
13230493473
13230498417
13230503422
13230507938
13230514347
13230519840
13230524357
13230528690
13230534794
13230542484
13230550846
13230557438
13230565250
13230573246
13230579410
13230586490
13230590580
13230595768
13230600773
13230605839
13230610721
13230615970
13230620853
13230626285
13230632328
13230637394
13230641361
13230647403
13230651676
13230657474
13230662479
13230667301
13230672916
13230678104
13230683536
13230687992
13230692020
13230697757
13230703556
13230709110
13230715457
13230720584
13230724857
13230731326
13230735355
13230740421
13230745609
13230750247
13230755802
13230761417
13230765506
13230771365
13230776065
13230782169
13230787357
13230791873
13230797427
13230803897
13230807925
13230813541
13230819400
13230824344
13230829715
13230835269
13230840884
13230845645
13230851016
13230856204
13230861575
13230866214
13230872195
13230877505
13230883182
13230887698
13230893008
13230898868
13230904483
13230909732
13230914859
13230922122
13230930545
13230936892
13230943118
13230949893
13230956302
13230962100
13230967593
13230971011
13230977603
13230982547
13230987429
13230992739
13230997622
13231001956
13231006838
13231011172
13231018862
13231024722
13231030032
13231034731
13231039858
13231045168
13231050479
13231056643
13231060671
13231066653
13231070376
13231075259
13231080019
13231084963
13231089846
13231094485
13231100954
13231107912
13231111941
13231117129
13231123110
13231128237
13231134341
13231138491
13231144778
13231150698
13231156008
13231160219
13231165896
13231169131
13231177492
13231183413
13231189089
13231193667
13231199038
13231202334
13231209231
13231215029
13231220705
13231223818
13231232241
13231235659
13231241823
13231246401
13231251955
13231257143
13231262453
13231268251
13231273867
13231280458
13231286379
13231291201
13231297243
13231302187
13231307802
13231312624
13231320741
13231327944
13231332948
13231339418
13231344240
13231350099
13231355287
13231361696
13231363588
13231372194
13231375917
13231383974
13231388063
13231394533
13231398073
13231406007
13231410951
13231417970
13231423158
13231430116
13231435243
13231440919
13231446352
13231452394
13231456666
13231462221
13231468996
13231476747
13231485780
13231491945
13231498292
13231504518
13231514283
13231521486
13231527650
13231532594
13231538514
13231543580
13231548707
13231552797
13231559632
13231563966
13231569093
13231573304
13231577882
13231582032
13231588563
13231593141
13231599549
13231605348
13231609986
13231614564
13231620301
13231624696
13231630494
13231636659
13231642030
13231648683
13231654359
13231658631
13231663880
13231670228
13231672059
13231681031
13231684510
13231691895
13231695191
13231702515
13231706300
13231713807
13231717347
13231723939
13231729310
13231739136
13231744874
13231751038
13231754883
13231761475
13231766724
13231772645
13231775879
13231784302
13231790467
13231797913
13231804139
13231808350
13231817017
13231821412
13231828858
13231835694
13231843872
13231847657
13231854981
13231860535
13231867737
13231873658
13231880188
13231886841
13231891053
13231898682
13231905701
13231911011
13231915955
13231925537
13231931580
13231936341
13231942261
13231948303
13231953797
13231959534
13231965515
13231971436
13231977478
13231982056
13231986755
13231992126
13231997376
13232001587
13232007996
13232012451
13232018799
13232024170
13232029846
13232035400
13232042419
13232050781
13232056579
13232062683
13232069031
13232074096
13232079162
13232086303
13232091430
13232096740
13232102051
13232108276
13232113098
13232118774
13232122009
13232127624
13232132324
13232138733
13232142517
13232150512
13232155700
13232161377
13232166931
13232173217
13232178833
13232183654
13232189392
13232193298
13232199951
13232205139
13232211669
13232215087
13232222351
13232229614
13232235900
13232239318
13232246948
13232252929
13232257812
13232265380
13232272033
13232277770
13232283019
13232289367
13232293090
13232300109
13232305724
13232311950
13232317077
13232323608
13232329528
13232335082
13232338744
13232346801
13232352721
13232361266
13232366393
13232372924
13232377685
13232382201
13232388122
13232394042
13232400451
13232404601
13232412475
13232416320
13232423949
13232429503
13232434447
13232438292
13232447448
13232452575
13232457335
13232464110
13232471129
13232476744
13232481810
13232488890
13232492491
13232500121
13232504698
13232511840
13232518736
13232524108
13232527770
13232537718
13232542662
13232549254
13232555357
13232560973
13232567259
13232572813
13232580504
13232588499
13232596434
13232603270
13232610228
13232617674
13232622252
13232632445
13232639097
13232645445
13232647398
13232655821
13232660765
13232664549
13232670469
13232676146
13232681456
13232686217
13232692015
13232696959
13232702635
13232707396
13232713255
13232717589
13232722288
13232727476
13232734373
13232738462
13232745481
13232751463
13232757261
13232763060
13232767088
13232773252
13232777403
13232783262
13232788999
13232793821
13232799986
13232804624
13232810423
13232814878
13232820921
13232827146
13232831724
13232835508
13232845030
13232851194
13232856870
13232862364
13232868589
13232872312
13232880003
13232883299
13232891355
13232895078
13232902158
13232907346
13232913267
13232918150
13232923887
13232928709
13232935422
13232942564
13232948667
13232952878
13232959104
13232964719
13232969846
13232975889
13232981931
13232988950
13232992795
13233001035
13233006772
13233011228
13233016599
13233023130
13233027829
13233033994
13233039365
13233045530
13233052304
13233057248
13233063474
13233067868
13233073789
13233080014
13233086606
13233092893
13233097043
13233102658
13233108640
13233114072
13233119870
13233123410
13233131589
13233137570
13233141843
13233148679
13233153500
13233158688
13233165097
13233170590
13233180051
13233184506
13233193600
13233197446
13233204709
13233210324
13233217526
13233221005
13233228329
13233234433
13233240109
13233243283
13233250241
13233253476
13233260007
13233265133
13233273800
13233277463
13233283810
13233288571
13233295102
13233299740
13233304989
13233310788
13233316220
13233320675
13233328000
13233333004
13233337765
13233343441
13233351620
13233359066
13233369320
13233374691
13233386898
13233395626
13233404049
13233412777
13233421932
13233432736
13233443295
13233449886
13233456783
13233464596
13233471493
13233479488
13233487240
13233496700
13233504818
13233511776
13233519161
13233527462
13233533993
13233543270
13233551082
13233558834
13233567379
13233575069
13233580135
13233590938
13233599971
13233607906
13233614742
13233622738
13233631649
13233638057
13233646480
13233655086
13233664241
13233671505
13233681270
13233689022
13233696956
13233704219
13233712337
13233719844
13233728389
13233737483
13233743526
13233752925
13233762264
13233771419
13233779659
13233790096
13233795345
13233806575
13233814448
13233825252
13233830501
13233841853
13233847041
13233859431
13233865108
13233878840
13233889583
13233898738
13233913813
13233924495
13233932307
13233942195
13233951228
13233959224
13233966670
13233974910
13233985224
13233989924
13234001277
13234008784
13234017573
13234025508
13234031794
13234041010
13234049372
13234057429
13234066279
13234073237
13234080744
13234088068
13234096552
13234103388
13234111262
13234118525
13234129084
13234139155
13234147089
13234153986
13234161799
13234169245
13234177607
13234186152
13234193537
13234201899
13234209223
13234218134
13234226557
13234233759
13234241205
13234248285
13234256708
13234264215
13234270807
13234279413
13234284662
13234293268
13234299799
13234308222
13234314935
13234324030
13234333002
13234341120
13234347711
13234355646
13234363825
13234371698
13234380121
13234388177
13234396234
13234402460
13234412836
13234419244
13234429437
13234435785
13234444269
13234451898
13234459894
13234468561
13234475824
13234481927
13234491571
13234497674
13234506952
13234513604
13234521478
13234530267
13234537896
13234544610
13234555108
13234562066
13234570001
13234576837
13234587030
13234593682
13234601556
13234611688
13234618707
13234623467
13234628655
13234635186
13234643609
13234649224
13234655206
13234659051
13234665643
13234670037
13234675347
13234681390
13234686517
13234690667
13234695428
13234700616
13234705132
13234710381
13234715447
13234719659
13234724175
13234728509
13234734490
13234738640
13234743645
13234747491
13234754021
13234757256
13234763421
13234768792
13234773675
13234778679
13234783501
13234789788
13234794487
13234800286
13234805596
13234810662
13234814690
13234819573
13234825188
13234830742
13234835930
13234840081
13234845330
13234850457
13234855034
13234860466
13234866509
13234871392
13234878228
13234880059
13234887017
13234891716
13234898186
13234904656
13234911247
13234916313
13234920891
13234927178
13234930779
13234939812
13234943108
13234950249
13234956047
13234962639
13234968010
13234973625
13234979546
13234985161
13234992302
13234996269
13235002129
13235006828
13235012199
13235017265
13235023674
13235027031
13235033806
13235039299
13235044609
13235047905
13235054619
13235060234
13235065239
13235069572
13235076042
13235082206
13235087455
13235091667
13235097099
13235102348
13235108085
13235112297
13235115959
13235124076
13235128166
13235137809
13235146965
13235152641
13235159721
13235167411
13235173820
13235181571
13235187065
13235193046
13235198234
13235202873
13235206779
13235214225
13235218253
13235223380
13235227592
13235231742
13235237602
13235242240
13235249259
13235254691
13235259269
13235265189
13235272269
13235278434
13235283500
13235289481
13235294242
13235299125
13235304984
13235310477
13235315971
13235322501
13235327079
13235333427
13235337699
13235344962
13235349784
13235357230
13235362357
13235368400
13235374381
13235380851
13235385489
13235389090
13235399344
13235406058
13235411124
13235416739
13235422416
13235427909
13235432975
13235437979
13235445365
13235449149
13235456656
13235462210
13235466849
13235472098
13235478995
13235483878
13235491080
13235495535
13235501395
13235506766
13235513419
13235518546
13235523123
13235528128
13235536124
13235540946
13235546561
13235551199
13235556876
13235562125
13235568045
13235571585
13235579825
13235584647
13235590933
13235596548
13235600882
13235608084
13235611990
13235617361
13235624625
13235629141
13235634878
13235640066
13235644095
13235649161
13235654654
13235659537
13235666495
13235671438
13235678579
13235683951
13235688955
13235695974
13235703848
13235711538
13235718618
13235723379
13235732962
13235739675
13235746450
13235753714
13235759268
13235764944
13235770559
13235775625
13235781301
13235785879
13235790090
13235795889
13235802114
13235807119
13235814077
13235819570
13235825613
13235830435
13235834951
13235841665
13235845693
13235851309
13235857900
13235863088
13235868459
13235873464
13235879202
13235884573
13235890920
13235896352
13235902883
13235909719
13235915823
13235920766
13235926565
13235930044
13235937185
13235942556
13235949209
13235954458
13235959401
13235965688
13235970022
13235976858
13235982168
13235986684
13235993276
13235997915
13236004140
13236010549
13236016408
13236022207
13236027150
13236032888
13236036367
13236046315
13236052419
13236056874
13236063161
13236067617
13236073659
13236079152
13236083913
13236091176
13236094655
13236101735
13236106496
13236112111
13236116933
13236122731
13236127309
13236135304
13236141286
13236147450
13236151845
13236158070
13236164357
13236171071
13236175893
13236183583
13236190541
13236197072
13236202565
13236207326
13236213124
13236219227
13236226063
13236231923
13236240224
13236245839
13236251149
13236255360
13236261708
13236266224
13236275013
13236282765
13236290272
13236299000
13236303944
13236311512
13236316822
13236320790
13236331166
13236337025
13236345082
13236350148
13236354237
13236359730
13236366261
13236371205
13236377735
13236382923
13236388966
13236394459
13236398487
13236404286
13236408375
13236414356
13236420460
13236425465
13236431324
13236437672
13236442127
13236447254
13236452686
13236457203
13236464100
13236470387
13236475697
13236481495
13236486805
13236491505
13236497364
13236504383
13236509388
13236515308
13236521046
13236525867
13236532215
13236535572
13236543690
13236547291
13236554981
13236561207
13236567005
13236570667
13236578663
13236583606
13236588733
13236595264
13236602039
13236607166
13236613941
13236618824
13236624805
13236629810
13236636280
13236640735
13236647388
13236652271
13236659168
13236664112
13236670337
13236676013
13236680957
13236687000
13236690540
13236699939
13236704517
13236712268
13236717700
13236723010
13236727344
13236732776
13236738391
13236744678
13236750964
13236756091
13236761768
13236766895
13236773975
13236779041
13236786182
13236791309
13236798450
13236801990
13236808154
13236814136
13236820056
13236826831
13236833362
13236839404
13236843799
13236850268
13236854663
13236859607
13236866260
13236871570
13236879870
13236890429
13236897876
13236903247
13236910327
13236916308
13236919726
13236929675
13236935534
13236941394
13236946460
13236951953
13236955126
13236961840
13236967272
13236973254
13236977709
13236982958
13236986193
13236993395
13236996569
13237004382
13237007556
13237014636
13237021044
13237025012
13237032885
13237039233
13237045214
13237051562
13237057543
13237063281
13237069140
13237074938
13237080004
13237084460
13237087756
13237095446
13237098498
13237107287
13237113573
13237119311
13237123583
13237128954
13237134325
13237138231
13237142626
13237149279
13237154833
13237161120
13237164354
13237170031
13237174852
13237180895
13237186510
13237193163
13237197680
13237205004
13237209642
13237214525
13237218920
13237224474
13237228258
13237234117
13237240099
13237245958
13237250475
13237256334
13237261644
13237266954
13237270861
13237277208
13237283434
13237289537
13237293932
13237299791
13237304247
13237309618
13237314745
13237318468
13237324510
13237330980
13237336656
13237341112
13237346300
13237349413
13237356493
13237361925
13237368150
13237374681
13237379137
13237385179
13237391771
13237395372
13237401781
13237406785
13237412950
13237419359
13237428026
13237435350
13237442735
13237452196
13237456712
13237466844
13237471910
13237479295
13237485582
13237490403
13237494859
13237500108
13237506883
13237512254
13237517076
13237522569
13237527879
13237533250
13237538438
13237544358
13237551072
13237555101
13237561326
13237566087
13237572190
13237577745
13237583360
13237588609
13237596116
13237601792
13237608506
13237614610
13237619065
13237624864
13237629868
13237633225
13237640855
13237644151
13237650987
13237654221
13237660508
13237666184
13237672959
13237678513
13237685471
13237690354
13237696885
13237702866
13237709336
13237715012
13237720078
13237724900
13237733628
13237739121
13237746079
13237751145
13237756150
13237762620
13237766526
13237773606
13237779953
13237787400
13237792588
13237799179
13237803879
13237810898
13237815781
13237821823
13237825486
13237834702
13237841599
13237846848
13237850510
13237858322
13237862107
13237869004
13237872666
13237878952
13237885666
13237891037
13237897080
13237902146
13237908371
13237913071
13237916733
13237926010
13237933151
13237938644
13237941879
13237950180
13237957504
13237962448
13237966721
13237975754
13237981491
13237987289
13237991318
13237998764
13238006760
13238013962
13238018722
13238026474
13238033127
13238044357
13238051071
13238057968
13238063827
13238069076
13238075851
13238082016
13238086776
13238091354
13238098800
13238103927
13238109420
13238115951
13238121444
13238126327
13238131759
13238136093
13238141586
13238147750
13238151779
13238158187
13238162948
13238169540
13238174789
13238180160
13238185531
13238192367
13238197067
13238201827
13238206283
13238213546
13238218185
13238225143
13238230941
13238237106
13238241744
13238245467
13238254073
13238258041
13238267623
13238273605
13238278243
13238284591
13238290755
13238296004
13238301742
13238307845
13238313521
13238318160
13238323775
13238329818
13238334517
13238339400
13238346724
13238351607
13238355330
13238362899
13238367415
13238373702
13238378280
13238385360
13238391036
13238397567
13238402266
13238409468
13238416182
13238421187
13238425765
13238431685
13238438948
13238444075
13238449080
13238452742
13238460250
13238463973
13238471114
13238478255
13238485091
13238487166
13238496687
13238500838
13238511336
13238518111
13238524336
13238529952
13238534834
13238538557
13238547530
13238553389
13238562178
13238569441
13238573897
13238581099
13238586775
13238593001
13238599776
13238605574
13238613814
13238622481
13238629011
13238634260
13238642012
13238646895
13238652022
13238660261
13238666975
13238672590
13238676741
13238684919
13238690290
13238694746
13238700239
13238705671
13238712080
13238716230
13238722517
13238726423
13238731428
13238736616
13238741987
13238747358
13238753340
13238757551
13238763349
13238767317
13238772566
13238776411
13238783735
13238789655
13238794904
13238799909
13238805158
13238810529
13238815351
13238818891
13238825178
13238829389
13238834516
13238839277
13238845808
13238850019
13238854169
13238859296
13238864606
13238870710
13238877119
13238881635
13238886518
13238892194
13238896223
13238900007
13238907453
13238911542
13238918256
13238922895
13238927106
13238933210
13238938215
13238942121
13238947797
13238953473
13238960492
13238965314
13238969953
13238974042
13238979108
13238984235
13238989240
13238996991
13239003339
13239009259
13239014630
13239018476
13239023969
13239029889
13239033490
13239040692
13239046735
13239051129
13239057904
13239062848
13239068463
13239074384
13239079144
13239085065
13239090192
13239094220
13239099774
13239104474
13239108685
13239114362
13239118756
13239125043
13239129987
13239137555
13239141339
13239148358
13239153363
13239159222
13239165143
13239172406
13239179181
13239187176
13239195477
13239199872
13239208661
13239214703
13239220868
13239226117
13239230633
13239237286
13239241376
13239247174
13239251629
13239257794
13239264325
13239269696
13239274945
13239280804
13239285809
13239292157
13239296856
13239302349
13239307110
13239313031
13239319989
13239325665
13239330365
13239336529
13239342205
13239347454
13239354595
13239360516
13239367474
13239372540
13239376812
13239382427
13239388043
13239394695
13239400433
13239404217
13239412335
13239419232
13239424603
13239431439
13239437664
13239442181
13239450603
13239454815
13239463360
13239467266
13239473919
13239479595
13239484905
13239491863
13239496624
13239503277
13239508221
13239514141
13239520733
13239525310
13239530559
13239535076
13239541912
13239550091
13239556194
13239562175
13239566936
13239572551
13239579021
13239583721
13239590130
13239595073
13239600261
13239607524
13239613323
13239618633
13239623821
13239628215
13239634807
13239639568
13239646953
13239651836
13239657817
13239664104
13239669841
13239673625
13239679729
13239685588
13239692668
13239698161
13239703777
13239708782
13239715556
13239720256
13239727336
13239732524
13239738017
13239745342
13239752299
13239760966
13239769084
13239774333
13239784465
13239788737
13239798198
13239804912
13239811748
13239819743
13239825847
13239831523
13239837138
13239839030
13239849711
13239855327
13239861430
13239864970
13239871806
13239876689
13239882792
13239888285
13239896525
13239900370
13239906657
13239911845
13239917582
13239921977
13239927409
13239931559
13239937846
13239944987
13239950907
13239957072
13239962748
13239967143
13239972514
13239978312
13239983073
13239990336
13239995768
13240002055
13240005595
13240013468
13240016947
13240023051
13240028300
13240035807
13240039530
13240046427
13240051371
13240057291
13240064432
13240070719
13240076090
13240080790
13240087504
13240093119
13240098002
13240104349
13240108805
13240115031
13240121439
13240126078
13240132120
13240138956
13240144632
13240149271
13240155008
13240156901
13240165934
13240169535
13240177836
13240181681
13240189737
13240195169
13240200541
13240205790
13240211100
13240215616
13240221842
13240228861
13240233316
13240239725
13240241617
13240250284
13240252176
13240261453
13240264871
13240275064
13240277139
13240287393
13240294107
13240300821
13240306619
13240311319
13240320535
13240326273
13240332376
13240338480
13240343057
13240354898
13240358194
13240368021
13240376260
13240384561
13240392435
13240403177
13240413797
13240417642
13240432962
13240439065
13240456399
13240462320
13240473977
13240483011
13240489663
13240496255
13240504922
13240511514
13240516458
13240524575
13240531045
13240540078
13240548318
13240554666
13240561746
13240568276
13240575662
13240581460
13240590371
13240596475
13240601540
13240612710
13240621194
13240627297
13240633645
13240641763
13240648476
13240653847
13240665017
13240672890
13240681618
13240688637
13240697671
13240705788
13240712624
13240721047
13240726052
13240733803
13240740212
13240750466
13240758095
13240766457
13240773171
13240778054
13240785927
13240793129
13240799782
13240806374
13240810952
13240824379
13240829506
13240836769
13240842812
13240851235
13240857399
13240864357
13240870400
13240877419
13240888405
13240893654
13240902565
13240910072
13240915871
13240924843
13240927650
13240938576
13240943581
13240951637
13240958351
13240967079
13240973305
13240981178
13240987465
13240994362
13241001869
13241008827
13241014503
13241023353
13241030006
13241036293
13241044044
13241049720
13241055763
13241063759
13241070533
13241079384
13241087379
13241092689
13241100929
13241107765
13241114112
13241122291
13241128395
13241134681
13241141456
13241148902
13241155860
13241163795
13241170997
13241176307
13241186378
13241194618
13241201576
13241209571
13241218055
13241230384
13241234107
13241245582
13241253699
13241264197
13241273353
13241281959
13241291358
13241299964
13241309485
13241326819
13241331641
13241340247
13241346595
13241352881
13241360694
13241365760
13241373877
13241380469
13241384986
13241392127
13241396582
13241403418
13241408362
13241415320
13241420203
13241426123
13241431555
13241437476
13241441992
13241447730
13241451819
13241457739
13241463355
13241471350
13241476477
13241480322
13241488074
13241490210
13241501196
13241505103
13241513098
13241518897
13241524878
13241529272
13241534888
13241538245
13241544958
13241548926
13241555823
13241561011
13241567236
13241570654
13241576514
13241583288
13241589941
13241596960
13241601599
13241606116
13241613501
13241618689
13241625097
13241629858
13241636816
13241642370
13241646338
13241654760
13241658728
13241665747
13241670080
13241677282
13241682592
13241688574
13241694311
13241700537
13241705358
13241711340
13241717749
13241723852
13241728674
13241734411
13241741308
13241745031
13241752050
13241756079
13241762670
13241768774
13241775060
13241780370
13241785009
13241792089
13241798315
13241803198
13241808202
13241814733
13241821142
13241825964
13241829565
13241837682
13241841405
13241848974
13241852880
13241860876
13241865087
13241871801
13241877965
13241884557
13241893346
13241899023
13241903539
13241912389
13241916356
13241924230
13241930944
13241939916
13241944494
13241951452
13241956640
13241962499
13241966649
13241973119
13241978429
13241983983
13241988622
13241995824
13242001683
13242007909
13242012548
13242016332
13242025792
13242029637
13242038976
13242041295
13242049962
13242054418
13242060765
13242066808
13242072972
13242078282
13242083959
13242089208
13242095006
13242102086
13242106847
13242112340
13242119603
13242124120
13242129491
13242137425
13242142430
13242148473
13242152379
13242159764
13242165074
13242171422
13242176793
13242183385
13242189427
13242196324
13242201573
13242206944
13242212071
13242217686
13242224339
13242226475
13242235570
13242241246
13242246129
13242253270
13242258641
13242264439
13242269932
13242276280
13242282811
13242287449
13242293614
13242299229
13242305760
13242310459
13242316319
13242321873
13242328648
13242334141
13242338108
13242345371
13242351414
13242359043
13242364720
13242370762
13242377232
13242379551
13242389561
13242396580
13242402134
13242406468
13242415867
13242421665
13242428928
13242435886
13242442539
13242449009
13242457310
13242463474
13242468418
13242478062
13242482700
13242490757
13242500278
13242503269
13242515659
13242524265
13242530979
13242539463
13242547275
13242558017
13242563999
13242575595
13242584446
13242588108
13242603855
13242610324
13242620212
13242625339
13242635410
13242641941
13242647312
13242657810
13242665500
13242670993
13242679355
13242684909
13242690158
13242698642
13242703586
13242707492
13242715671
13242719516
13242728366
13242732150
13242740451
13242743991
13242750278
13242755588
13242762546
13242767490
13242772494
13242780124
13242786655
13242792575
13242797275
13242803744
13242809176
13242813571
13242817355
13242827060
13242833835
13242839023
13242845065
13242850863
13242856051
13242861972
13242865573
13242874057
13242878085
13242885531
13242889132
13242895907
13242901095
13242907687
13242912997
13242921054
13242924838
13242932101
13242936984
13242943148
13242948580
13242953951
13242958651
13242964694
13242971530
13242976534
13242982943
13242988375
13242994174
13242998690
13243005160
13243008639
13243018221
13243024081
13243028780
13243034884
13243039645
13243043063
13243050997
13243056002
13243063937
13243067538
13243073824
13243078829
13243085848
13243090853
13243095797
13243102144
13243106905
13243114412
13243119661
13243126253
13243132601
13243136995
13243142489
13243148348
13243153597
13243162386
13243168917
13243173861
13243179842
13243184298
13243190157
13243195833
13243200716
13243209444
13243213350
13243223299
13243231417
13243239778
13243245333
13243251192
13243257601
13243262239
13243268343
13243273348
13243281465
13243286165
13243291780
13243297395
13243304292
13243310701
13243317537
13243324007
13243330598
13243335298
13243339021
13243347200
13243350984
13243358736
13243364961
13243372224
13243376070
13243381746
13243387117
13243394441
13243399263
13243406038
13243410615
13243417512
13243423250
13243429841
13243434541
13243440706
13243445405
13243449800
13243460481
13243466523
13243472505
13243479036
13243486848
13243494172
13243498994
13243506501
13243511506
13243517060
13243522737
13243529634
13243534333
13243539887
13243545320
13243552766
13243557893
13243561616
13243568635
13243574555
13243581208
13243586213
13243591218
13243595796
13243602692
13243608735
13243615754
13243620515
13243626069
13243633332
13243638825
13243643586
13243647431
13243656586
13243661225
13243667817
13243672883
13243679902
13243685761
13243690461
13243695222
13243702241
13243708100
13243713532
13243719330
13243725556
13243730195
13243734101
13243742707
13243746552
13243752594
13243758637
13243765656
13243772187
13243777741
13243783051
13243787873
13243794525
13243800141
13243808625
13243814118
13243821198
13243827240
13243835602
13243842194
13243847931
13243855683
13243861420
13243867584
13243872772
13243879791
13243884491
13243890045
13243894074
13243899811
13243905731
13243911102
13243916168
13243922150
13243927521
13243932465
13243937286
13243943695
13243950836
13243955963
13243961883
13243967438
13243971588
13243976837
13243983429
13243989166
13243995758
13244001068
13244005401
13244011139
13244016998
13244022430
13244028778
13244035125
13244039703
13244045318
13244051544
13244056610
13244063507
13244069854
13244074981
13244079132
13244086517
13244092804
13244097442
13244102630
13244108612
13244110565
13244119781
13244125396
13244133514
13244137115
13244146942
13244150054
13244157256
13244161590
13244168243
13244172942
13244182342
13244188384
13244192657
13244198394
13244202911
13244206390
13244212676
13244218658
13244227874
13244232391
13244238067
13244242828
13244248992
13244254607
13244260650
13244266021
13244273894
13244278106
13244283782
13244289275
13244294829
13244300689
13244306060
13244309234
13244317962
13244324370
13244329070
13244335112
13244339446
13244342681
13244350188
13244353606
13244362212
13244366118
13244373381
13244377410
13244383635
13244388274
13244394133
13244399749
13244407683
13244415435
13244422698
13244429595
13244437651
13244443877
13244449370
13244456999
13244465178
13244471709
13244477141
13244483305
13244489409
13244494048
13244498259
13244504301
13244511015
13244516814
13244523222
13244527556
13244534148
13244540190
13244545744
13244547819
13244557036
13244561919
13244567290
13244572294
13244578032
13244583342
13244589201
13244594755
13244598906
13244604765
13244610380
13244617338
13244622648
13244629057
13244634428
13244640776
13244646635
13244652739
13244657133
13244663420
13244670622
13244672819
13244680815
13244684782
13244692778
13244696562
13244703459
13244708708
13244713957
13244719389
13244725675
13244730375
13244737516
13244743254
13244750028
13244755155
13244759306
13244768827
13244772855
13244781706
13244785856
13244795255
13244801176
13244807829
13244813139
13244818937
13244824247
13244832731
13244838895
13244845304
13244851530
13244856596
13244862882
13244868070
13244873563
13244879056
13244886869
13244892118
13244898038
13244904996
13244910856
13244915860
13244921598
13244928067
13244933133
13244937589
13244945524
13244951200
13244958280
13244962796
13244969144
13244974027
13244977384
13244984830
13244990140
13244998502
13245006681
13245012052
13245018582
13245025113
13245032254
13245041287
13245049771
13245054837
13245065457
13245072598
13245078214
13245084012
13245088345
13245094632
13245100858
13245106473
13245112332
13245118619
13245123013
13245126492
13245134732
13245139432
13245147305
13245151150
13245158475
13245161954
13245169766
13245174710
13245179898
13245185330
13245191006
13245197415
13245204007
13245209683
13245216214
13245221158
13245226895
13245231534
13245237820
13245244290
13245250332
13245254727
13245261380
13245267361
13245272244
13245276883
13245282070
13245290982
13245294766
13245301907
13245305874
13245312832
13245317593
13245323513
13245328457
13245334805
13245341458
13245346096
13245351772
13245357754
13245362270
13245368435
13245374355
13245379849
13245384365
13245388393
13245397244
13245401272
13245409206
13245413601
13245421047
13245424709
13245431728
13245435574
13245443264
13245447475
13245455349
13245457912
13245466762
13245471096
13245480007
13245482204
13245491604
13245499050
13245504299
13245511623
13245516994
13245524013
13245531826
13245538784
13245543972
13245548122
13245557277
13245561428
13245568813
13245572902
13245581081
13245588893
13245593044
13245598110
13245604702
13245610683
13245612758
13245622158
13245625881
13245633510
13245639186
13245647548
13245653224
13245660243
13245666591
13245672023
13245677944
13245686549
13245694667
13245701137
13245707545
13245713954
13245719386
13245724452
13245730739
13245735988
13245740871
13245747340
13245752589
13245758937
13245764613
13245768458
13245775661
13245779384
13245787135
13245793361
13245798732
13245804164
13245809230
13245813929
13245820704
13245826014
13245834803
13245840175
13245849696
13245856410
13245861903
13245865565
13245873744
13245877528
13245885218
13245889735
13245897670
13245901393
13245908168
13245911647
13245918177
13245923976
13245931239
13245938258
13245942652
13245947230
13245954249
13245959498
13245965907
13245970667
13245978358
13245983485
13245989710
13245994288
13245998377
13246006983
13246010767
13246017908
13246022913
13246029993
13246035548
13246042200
13246046961
13246050684
13246055506
13246061793
13246066004
13246072169
13246078821
13246083765
13246090235
13246095057
13246100489
13246103846
13246109583
13246115381
13246123682
13246127649
13246136683
13246141077
13246148523
13246152308
13246159754
13246163477
13246172266
13246176966
13246182764
13246188562
13246193201
13246196863
13246205408
13246207605
13246217554
13246222009
13246226465
13246233179
13246239649
13246246057
13246252954
13246257532
13246268396
13246272669
13246282068
13246286340
13246292627
13246298303
13246304407
13246309900
13246316248
13246321069
13246327783
13246331384
13246338281
13246342798
13246350549
13246356470
13246362390
13246368677
13246373071
13246377710
13246384424
13246390222
13246394922
13246399377
13246405237
13246410791
13246416101
13246422754
13246428857
13246433069
13246436853
13246446557
13246451501
13246458154
13246462121
13246469690
13246473962
13246480981
13246487939
13246494165
13246498010
13246504724
13246510888
13246517480
13246522790
13246527001
13246533227
13246538415
13246545068
13246551415
13246557946
13246563012
13246567712
13246571740
13246580590
13246584435
13246590295
13246596459
13246604821
13246610192
13246615441
13246620202
13246628197
13246633630
13246639611
13246644372
13246650902
13246657677
13246664086
13246668664
13246675683
13246680871
13246686303
13246692895
13246699303
13246706688
13246711754
13246717186
13246722863
13246740990
13246746788
13246753502
13246759728
13246764550
13246770958
13246777245
13246783287
13246788353
13246793419
13246800743
13246806481
13246814720
13246818749
13246825340
13246830895
13246836754
13246842491
13246849510
13246855919
13246863060
13246867638
13246877037
13246884789
13246890831
13246897850
13246902611
13246909080
13246912865
13246920982
13246927330
13246932701
13246939720
13246946983
13246953758
13246958702
13246964195
13246970054
13246974327
13246978599
13246985863
13246990989
13246998131
13247003685
13247010277
13247015648
13247021934
13247028221
13247032859
13247038597
13247045555
13247050621
13247055992
13247062584
13247066734
13247074791
13247080162
13247084678
13247091697
13247096519
13247101402
13247109214
13247113731
13247120262
13247124961
13247132408
13247137779
13247145042
13247150840
13247154624
13247161704
13247166038
13247173484
13247178794
13247183616
13247188560
13247195884
13247201865
13247207847
13247212608
13247217918
13247224815
13247230491
13247237632
13247243735
13247248679
13247254966
13247260276
13247264487
13247271323
13247276328
13247283042
13247289268
13247295127
13247299888
13247305930
13247311423
13247317832
13247322471
13247329123
13247336509
13247343650
13247348655
13247352805
13247361777
13247368796
13247373557
13247378806
13247386069
13247393332
13247399497
13247405478
13247409567
13247416525
13247422934
13247428916
13247434714
13247442465
13247448020
13247454062
13247459616
13247466757
13247475363
13247477866
13247488791
13247491660
13247503683
13247511801
13247517844
13247523276
13247528891
13247535971
13247540854
13247547018
13247553549
13247559530
13247564841
13247568930
13247576681
13247580832
13247588156
13247591940
13247599447
13247604330
13247610373
13247615744
13247622519
13247626303
13247632956
13247639364
13247645529
13247650351
13247656576
13247661215
13247669760
13247675253
13247680746
13247687094
13247691610
13247699728
13247705038
13247711996
13247717855
13247724752
13247730306
13247735739
13247739828
13247748861
13247753988
13247759847
13247765707
13247771871
13247777181
13247783041
13247788229
13247796651
13247801900
13247808431
13247813985
13247820150
13247824789
13247831502
13247838460
13247844320
13247850728
13247854757
13247862264
13247865743
13247873678
13247877218
13247883870
13247888631
13247895650
13247901021
13247907796
13247913778
13247919820
13247926778
13247933065
13247939840
13247946737
13247955403
13247961568
13247967000
13247974446
13247983358
13247991048
13247998433
13248003804
13248014241
13248022908
13248030232
13248037801
13248044331
13248055501
13248061849
13248072347
13248077840
13248087117
13248095845
13248101460
13248112691
13248121297
13248129842
13248137349
13248147481
13248155598
13248161763
13248171956
13248180501
13248190388
13248200032
13248210103
13248219136
13248226216
13248235554
13248243550
13248254475
13248263264
13248272175
13248278706
13248287190
13248293232
13248297871
13248306050
13248313496
13248320515
13248327473
13248332539
13248336872
13248345722
13248349751
13248357563
13248362019
13248370075
13248374165
13248383381
13248387287
13248393940
13248398884
13248405109
13248411396
13248418354
13248425800
13248430988
13248436970
13248442829
13248447773
13248454365
13248460102
13248466938
13248473163
13248475544
13248483783
13248488178
13248495685
13248499531
13248505817
13248511921
13248518879
13248525226
13248531696
13248536701
13248542072
13248547077
13248554523
13248559894
13248566547
13248574115
13248579059
13248585529
13248590900
13248596881
13248602313
13248609394
13248613361
13248620807
13248624591
13248631610
13248637653
13248644245
13248649310
13248655597
13248661884
13248667072
13248672931
13248680377
13248685321
13248691364
13248696613
13248700397
13248708881
13248712543
13248720111
13248724383
13248732135
13248737445
13248742450
13248747577
13248755511
13248760699
13248767474
13248775470
13248777911
13248787555
13248794391
13248800982
13248808368
13248814349
13248819049
13248827533
13248834857
13248841265
13248845050
13248853228
13248859454
13248865435
13248873248
13248878375
13248888873
13248897357
13248903277
13248909381
13248916094
13248918597
13248927020
13248931170
13248941119
13248944781
13248952471
13248956255
13248964434
13248970721
13248976397
13248981585
13248987811
13248992571
