13411083526
13411090545
13411096343
13411100250
13411106536
13411112151
13411117706
13411123809
13411129485
13411136077
13411141875
13411147918
13411154388
13411161468
13411167693
13411174224
13411181609
13411187835
13411195342
13411201140
13411206572
13411213958
13411219268
13411226165
13411233123
13411241729
13411248809
13411257293
13411264617
13411271148
13411278167
13411286711
13411293975
13411302520
13411311248
13411318450
13411326445
13411332244
13411341399
13411347502
13411359099
13411367095
13411375090
13411382597
13411389067
13411396269
13411402068
13411407927
13411415129
13411421416
13411429045
13411435637
13411442107
13411447172
13411454802
13411461211
13411467070
13411474760
13411479643
13411488371
13411494291
13411501188
13411508635
13411513395
13411521086
13411531096
13411537443
13411543669
13411550077
13411556181
13411560453
13411568449
13411572660
13411575651
13411580778
13411586027
13411590177
13411596037
13411599577
13411604765
13411609465
13411615202
13411619535
13411624418
13411628507
13411631864
13411636442
13411641569
13411645780
13411650602
13411654814
13411660612
13411665434
13411670011
13411675199
13411679472
13411685270
13411691068
13411696256
13411702360
13411707670
13411713163
13411718046
13411722074
13411727750
13411733427
13411740629
13411747343
13411753873
13411760404
13411767057
13411775724
13411783780
13411791349
13411797269
13411805387
13411811185
13411817960
13411824735
13411829557
13411837247
13411844938
13411852933
13411859891
13411866361
13411873685
13411878812
13411886930
13411892728
13411900907
13411905912
13411910489
13411914823
13411920865
13411928983
13411932706
13411939725
13411944608
13411949735
13411953885
13411959134
13411964993
13411969388
13411974149
13411979337
13411983426
13411989896
13411995572
13412001187
13412007230
13412012540
13412019192
13412024564
13412033047
13412040738
13412044644
13412049771
13412053799
13412058072
13412063199
13412068265
13412072964
13412077908
13412082364
13412085721
13412091214
13412095486
13412099820
13412105008
13412110379
13412115933
13412119412
13412125393
13412130215
13412138272
13412144680
13412151150
13412158291
13412163113
13412169705
13412175503
13412181607
13412188076
13412195217
13412201443
13412208462
13412214627
13412221218
13412228481
13412235378
13412242764
13412247341
13412255703
13412263149
13412267849
13412274380
13412281155
13412287991
13412295376
13412300686
13412303921
13412308926
13412313198
13412318264
13412325649
13412332241
13412336391
13412341762
13412347195
13412351406
13412356289
13412361233
13412367763
13412373134
13412378750
13412384731
13412389370
13412394008
13412399807
13412405361
13412411831
13412416836
13412422939
13412427944
13412433071
13412437587
13412442958
13412448085
13412454433
13412459255
13412463588
13412469997
13412476772
13412480922
13412486537
13412491481
13412499233
13412503871
13412510036
13412515407
13412519008
13412529140
13412536464
13412542201
13412549709
13412554408
13412560268
13412564845
13412573329
13412581325
13412587917
13412595363
13412603297
13412608730
13412614162
13412623317
13412629604
13412637721
13412643336
13412652614
13412660121
13412665736
13412673305
13412681117
13412687037
13412693873
13412701381
13412709926
13412714503
13412724269
13412729152
13412736781
13412743861
13412752162
13412758326
13412763148
13412770594
13412775660
13412780238
13412785182
13412789942
13412793910
13412801966
13412806300
13412812709
13412818263
13412822901
13412828395
13412834498
13412837916
13412844630
13412849513
13412856654
13412862879
13412867091
13412873377
13412878443
13412883936
13412888758
13412894556
13412900416
13412905970
13412910670
13412918177
13412922388
13412928370
13412934412
13412938990
13412944727
13412951014
13412955836
13412963892
13412968775
13412975672
13412980799
13412986536
13412990870
13412997339
13413003626
13413010706
13413015101
13413021021
13413025965
13413031885
13413037561
13413043543
13413048243
13413055017
13413063807
13413070826
13413079187
13413086634
13413095972
13413105066
13413112390
13413119348
13413129053
13413137964
13413146692
13413155298
13413161157
13413170129
13413179956
13413189783
13413198145
13413208093
13413216455
13413225366
13413232324
13413241235
13413251367
13413259729
13413266870
13413273889
13413283227
13413288171
13413294580
13413299035
13413305444
13413308923
13413315881
13413323205
13413328393
13413334069
13413338220
13413345056
13413350244
13413354638
13413361901
13413368066
13413372583
13413376794
13413382287
13413388269
13413392907
13413398461
13413403222
13413411279
13413417626
13413423303
13413427331
13413434350
13413438256
13413444604
13413448144
13413456445
13413460412
13413469811
13413474694
13413480126
13413485192
13413490929
13413494836
13413501672
13413506860
13413512475
13413518273
13413523888
13413528710
13413534142
13413538415
13413545373
13413550500
13413555565
13413560387
13413567040
13413572533
13413580895
13413587975
13413593163
13413603783
13413609643
13413619774
13413626488
13413635888
13413641930
13413651696
13413659081
13413666893
13413675133
13413683007
13413689049
13413697472
13413706505
13413713829
13413719933
13413727745
13413735069
13413744896
13413751061
13413757713
13413767235
13413775169
13413780907
13413785667
13413790855
13413798607
13413803978
13413808311
13413814049
13413818809
13413824974
13413829430
13413832848
13413839439
13413847252
13413851829
13413855369
13413865196
13413869530
13413876488
13413880699
13413888511
13413893516
13413901634
13413904503
13413913963
13413919273
13413924827
13413929405
13413933433
13413938438
13413944969
13413949424
13413953331
13413959312
13413963401
13413969871
13413974876
13413981590
13413986717
13413992698
13413998435
13414003318
13414008872
13414015525
13414022422
13414027305
13414033164
13414038841
13414045432
13414051597
13414058189
13414066306
13414075523
13414082481
13414092246
13414097434
13414106101
13414114890
13414125510
13414134299
13414142539
13414151450
13414159629
13414165183
13414176841
13414182456
13414192222
13414200644
13414207419
13414214682
13414220786
13414228293
13414236045
13414240989
13414251242
13414256614
13414264304
13414269126
13414273398
13414279196
13414284140
13414290488
13414295127
13414301535
13414306479
13414311240
13414316550
13414321555
13414328208
13414335288
13414340415
13414345480
13414352438
13414357199
13414363547
13414368063
13414372031
13414379599
13414384116
13414388754
13414395956
13414400656
13414404074
13414411032
13414414938
13414422018
13414425497
13414431723
13414439413
13414444174
13414449545
13414454733
13414460348
13414465414
13414469992
13414474875
13414482260
13414488302
13414494223
13414499838
13414504599
13414510824
13414516073
13414524374
13414529379
13414536520
13414540670
13414546713
13414554953
13414561605
13414566976
13414572714
13414582418
13414590902
13414596823
13414605490
13414610983
13414618246
13414623678
13414631185
13414641439
13414647482
13414654806
13414661520
13414667928
13414676229
13414681722
13414689474
13414695577
13414705343
13414711019
13414718832
13414726522
13414733358
13414737508
13414742940
13414747823
13414755453
13414760152
13414766683
13414771322
13414775533
13414781392
13414783162
13414793477
13414799032
13414805379
13414810628
13414814779
13414818929
13414826070
13414830465
13414837056
13414840657
13414849630
13414853902
13414859395
13414864522
13414869222
13414874349
13414879598
13414885823
13414890950
13414896321
13414901692
13414907247
13414911885
13414916524
13414922078
13414926961
13414933919
13414939229
13414944417
13414950887
13414954915
13414960713
13414965413
13414973653
13414979024
13414984090
13414989095
13414994527
13414999593
13415005513
13415010457
13415018758
13415025593
13415034383
13415040669
13415049092
13415056904
13415062642
13415069783
13415078206
13415086506
13415096272
13415103840
13415112690
13415120442
13415128254
13415136738
13415146809
13415154988
13415161885
13415168415
13415178669
13415185566
13415195271
13415202961
13415212116
13415218586
13415226521
13415232685
13415237385
13415243427
13415247517
13415252705
13415258259
13415264973
13415268452
13415273884
13415278950
13415284992
13415290424
13415296772
13415301533
13415307514
13415312336
13415320942
13415324787
13415331684
13415337787
13415343891
13415347370
13415352680
13415360493
13415366291
13415371784
13415379413
13415383808
13415391010
13415397297
13415403217
13415411029
13415415729
13415419880
13415428486
13415432453
13415439960
13415443988
13415451191
13415456928
13415462421
13415467731
13415473285
13415478412
13415484516
13415490985
13415493000
13415504047
13415510211
13415514911
13415521442
13415527728
13415535602
13415542987
13415550006
13415558368
13415566608
13415577045
13415584064
13415592059
13415598529
13415605731
13415611835
13415619769
13415626117
13415637164
13415643512
13415650897
13415658710
13415665179
13415673236
13415679278
13415687335
13415695331
13415703448
13415709002
13415717669
13415722613
13415731585
13415735125
13415740924
13415748004
13415753680
13415758624
13415764483
13415769488
13415774310
13415780230
13415785296
13415791400
13415798663
13415804644
13415810259
13415816912
13415821917
13415826861
13415833758
13415839251
13415846880
13415852618
13415856341
13415863970
13415868914
13415872820
13415876482
13415882952
13415888628
13415893206
13415899432
13415903704
13415909197
13415913836
13415920000
13415924761
13415930865
13415937273
13415942827
13415947466
13415953081
13415958086
13415964129
13415970904
13415977801
13415985674
13415992083
13416000383
13416005266
13416011248
13416014544
13416021746
13416031023
13416038469
13416043474
13416051531
13416058794
13416066362
13416073137
13416080400
13416089128
13416096514
13416103350
13416110918
13416117754
13416123186
13416129106
13416137468
13416145403
13416153154
13416159929
13416165788
13416171831
13416180193
13416187028
13416196062
13416204118
13416211626
13416217302
13416223711
13416228654
13416234819
13416239824
13416245622
13416251359
13416257158
13416262407
13416268571
13416273210
13416279497
13416284562
13416291093
13416295915
13416299943
13416306108
13416312394
13416317094
13416320390
13416328752
13416332780
13416337785
13416345170
13416350724
13416356645
13416361833
13416366777
13416372880
13416376359
13416382157
13416389970
13416395524
13416399125
13416405351
13416411027
13416417924
13416423722
13416430375
13416437943
13416446122
13416451005
13416458268
13416463395
13416469254
13416475968
13416479996
13416485734
13416491044
13416495866
13416500993
13416509598
13416516984
13416523026
13416530778
13416537491
13416545365
13416551957
13416560013
13416566117
13416572587
13416581193
13416587845
13416593827
13416602066
13416610672
13416616654
13416624588
13416633805
13416640885
13416649186
13416656571
13416665360
13416672440
13416679947
13416686417
13416695694
13416700760
13416706680
13416712113
13416718949
13416724198
13416729996
13416736160
13416741104
13416746780
13416751541
13416756424
13416763748
13416769669
13416775284
13416780228
13416786209
13416791763
13416797134
13416801895
13416810379
13416817032
13416824051
13416828873
13416834061
13416838394
13416843887
13416851944
13416856766
13416862991
13416867996
13416873062
13416878372
13416884475
13416888626
13416894119
13416900345
13416905410
13416911880
13416916397
13416921829
13416926773
13416932876
13416937332
13416943191
13416949111
13416953872
13416957473
13416965347
13416969070
13416976516
13416982620
13416988052
13416997756
13417004775
13417011978
13417020645
13417027175
13417034866
13417043655
13417051162
13417059524
13417069228
13417076797
13417085036
13417091506
13417101516
13417107864
13417116714
13417127334
13417134963
13417144546
13417150527
13417158889
13417165847
13417171767
13417181289
13417188674
13417197097
13417202529
13417208937
13417214553
13417219069
13417223830
13417229934
13417235549
13417242507
13417247267
13417253859
13417259047
13417262282
13417269301
13417274916
13417280043
13417284255
13417291579
13417296767
13417302077
13417305983
13417313124
13417318495
13417323866
13417329176
13417336440
13417340041
13417346327
13417351149
13417356093
13417362685
13417366530
13417371962
13417380202
13417384901
13417390334
13417394911
13417399184
13417406569
13417424513
13417430067
13417437269
13417442579
13417450331
13417455153
13417461195
13417465956
13417471937
13417478163
13417484755
13417492323
13417501661
13417509291
13417517469
13417524244
13417530592
13417541517
13417549391
13417558424
13417565443
13417573805
13417579969
13417589491
13417599134
13417606031
13417612257
13417621656
13417630384
13417639356
13417647718
13417654798
13417661817
13417672865
13417681043
13417687940
13417693128
13417702405
13417707288
13417714612
13417719984
13417726575
13417732801
13417738233
13417742444
13417751722
13417757215
13417764844
13417770887
13417777784
13417783399
13417790479
13417796155
13417803296
13417808484
13417814222
13417821302
13417825940
13417832105
13417836744
13417842542
13417846631
13417852857
13417859387
13417865430
13417870252
13417876905
13417881970
13417886975
13417891919
13417897656
13417903638
13417909924
13417915173
13417920728
13417926587
13417933728
13417938794
13417943921
13417949353
13417957532
13417963513
13417969373
13417976331
13417983350
13417987012
13417995557
13418004712
13418013562
13418021619
13418027234
13418034497
13418042737
13418049695
13418057507
13418064770
13418074414
13418081494
13418090344
13418097485
13418105664
13418111584
13418118420
13418127941
13418138073
13418146496
13418155407
13418164135
13418172558
13418179272
13418187084
13418194653
13418202954
13418208630
13418213635
13418220654
13418226696
13418232678
13418238354
13418244579
13418250439
13418255932
13418261547
13418267040
13418273510
13418279186
13418285229
13418290722
13418296642
13418302318
13418307812
13418313610
13418319042
13418323803
13418333263
13418338268
13418344188
13418348522
13418355419
13418359508
13418365490
13418370617
13418377819
13418383373
13418389904
13418397167
13418402477
13418410473
13418416942
13418423229
13418432323
13418437755
13418444591
13418450328
13418454784
13418460948
13418465770
13418472240
13418477428
13418484081
13418489757
13418494823
13418502635
13418508495
13418518016
13418522655
13418534007
13418541515
13418549144
13418554759
13418562389
13418569835
13418577769
13418585887
13418594371
13418602306
13418611888
13418619395
13418627574
13418634715
13418643016
13418649913
13418657908
13418666636
13418675120
13418681773
13418691661
13418698375
13418707103
13418711619
13418717418
13418723277
13418729380
13418734202
13418740123
13418746897
13418752024
13418757273
13418762522
13418769541
13418775096
13418782664
13418787303
13418793467
13418799388
13418806651
13418813609
13418818736
13418824961
13418829051
13418837107
13418840830
13418848521
13418854502
13418861216
13418866648
13418873057
13418878245
13418884775
13418890818
13418897166
13418901926
13418907908
13418915049
13418920847
13418925913
13418930918
13418938242
13418945322
13418952219
13418957163
13418963694
13418967478
13418975351
13418981821
13418986277
13418991465
13418997751
13419003733
13419010080
13419015085
13419022776
13419032297
13419040903
13419047739
13419057382
13419064157
13419072519
13419082407
13419089121
13419100473
13419112253
13419119821
13419130502
13419138010
13419147653
13419155344
13419165170
13419172800
13419183054
13419189401
13419197519
13419206003
13419211496
13419222360
13419227304
13419237436
13419244455
13419250436
13419255807
13419262460
13419268258
13419273263
13419278024
13419284738
13419290536
13419296151
13419301400
13419309518
13419314096
13419320626
13419325570
13419331918
13419338327
13419342416
13419348947
13419352548
13419359628
13419365609
13419371347
13419376290
13419381478
13419388497
13419394845
13419400216
13419405648
13419412057
13419417489
13419422555
13419428719
13419435433
13419441171
13419448068
13419452950
13419459176
13419463692
13419469491
13419475716
13419480721
13419488656
13419494698
13419500558
13419505074
13419510995
13419516488
13419521004
13419528084
13419532845
13419540291
13419546639
13419553353
13419560555
13419570199
13419577767
13419585335
13419595772
13419602791
13419609200
13419618416
13419625191
13419635018
13419641426
13419650399
13419659004
13419666268
13419674690
13419680916
13419690499
13419698433
13419706123
13419714180
13419722237
13419730049
13419738960
13419745918
13419753365
13419760811
13419766792
13419771797
13419778084
13419783577
13419793281
13419796699
13419804329
13419810127
13419816597
13419821663
13419828682
13419834114
13419844124
13419849800
13419855537
13419859932
13419865303
13419870186
13419876594
13419882148
13419888069
13419893501
13419899299
13419904365
13419910041
13419913887
13419919990
13419923835
13419930122
13419934028
13419940132
13419945625
13419951789
13419955146
13419963813
13419967475
13419975105
13419981025
13419985664
13419991096
13419997688
13420002448
13420008247
13420015022
13420019904
13420024604
13420031318
13420036323
13420043647
13420049262
13420057929
13420064338
13420069404
13420081306
13420086433
13420097907
13420106391
13420114081
13420122687
13420131049
13420140021
13420148627
13420153449
13420163031
13420170112
13420179938
13420187262
13420195197
13420201911
13420210822
13420217231
13420223517
13420234503
13420240424
13420249396
13420254828
13420262458
13420269965
13420277594
13420281806
13420288397
13420293463
13420299872
13420305609
13420311041
13420316351
13420321722
13420326178
13420333197
13420338141
13420344366
13420348822
13420355292
13420360419
13420368903
13420374091
13420379217
13420385138
13420389899
13420396307
13420400580
13420406927
13420412665
13420418402
13420424566
13420428534
13420433661
13420441229
13420446722
13420452459
13420458807
13420465887
13420471014
13420477057
13420482550
13420489203
13420494329
13420501837
13420506536
13420512518
13420516607
13420522894
13420528814
13420533087
13420538458
13420543768
13420549444
13420554815
13420562383
13420568060
13420575079
13420582769
13420591253
13420598699
13420605352
13420612249
13420621282
13420628729
13420634527
13420641485
13420651311
13420658758
13420667486
13420674810
13420683660
13420690435
13420699712
13420706182
13420712346
13420721197
13420730657
13420739812
13420747930
13420754705
13420759893
13420770330
13420773992
13420780828
13420784551
13420792363
13420797551
13420803655
13420808538
13420814763
13420821599
13420827825
13420834233
13420841680
13420848455
13420853826
13420859441
13420866643
13420871953
13420878545
13420885076
13420887578
13420898564
13420904179
13420910344
13420916814
13420921574
13420926885
13420931584
13420935796
13420943913
13420951848
13420957341
13420961858
13420968388
13420973027
13420979741
13420983647
13420991276
13420997014
13421003361
13421009282
13421015690
13421019230
13421025090
13421030339
13421036564
13421041386
13421048161
13421053410
13421058415
13421062993
13421068608
13421074650
13421079716
13421085148
13421093205
13421098942
13421106022
13421112980
13421118534
13421125004
13421129765
13421136479
13421141789
13421146733
13421154118
13421157963
13421162846
13421168339
13421170109
13421179264
13421185490
13421191837
13421195988
13421201908
13421206303
13421212467
13421215702
13421222172
13421226017
13421233097
13421236820
13421243107
13421246891
13421252323
13421257816
13421263248
13421268192
13421274845
13421281498
13421288029
13421291202
13421298527
13421301945
13421308292
13421316715
13421322452
13421328556
13421333622
13421339054
13421343998
13421349308
13421355045
13421359867
13421365055
13421370243
13421376041
13421381473
13421387210
13421391666
13421396183
13421402713
13421409305
13421414188
13421419559
13421424320
13421427982
13421435611
13421440921
13421445438
13421451602
13421456058
13421461490
13421466495
13421471866
13421476993
13421481632
13421487552
13421494327
13421500308
13421506290
13421511417
13421515811
13421520999
13421526248
13421530887
13421535953
13421542667
13421548648
13421553714
13421560123
13421564273
13421569339
13421574954
13421580020
13421587833
13421593509
13421599673
13421605105
13421611148
13421616092
13421619632
13421626651
13421631534
13421637820
13421643191
13421649234
13421654300
13421660525
13421665774
13421671023
13421679019
13421684390
13421691287
13421696292
13421702578
13421708438
13421713870
13421721194
13421726016
13421732363
13421738772
13421744082
13421748843
13421754092
13421758669
13421765444
13421770083
13421776309
13421781985
13421786440
13421792056
13421797610
13421802554
13421806826
13421814517
13421821475
13421826479
13421833010
13421837466
13421842471
13421849429
13421854372
13421861452
13421867617
13421873720
13421877810
13421883669
13421889712
13421895266
13421900881
13421905276
13421914065
13421918825
13421924318
13421931032
13421935793
13421940676
13421947207
13421952883
13421957583
13421964052
13421968813
13421972963
13421980593
13421985781
13421992250
13421996889
13422003359
13422009767
13422016176
13422020266
13422025759
13422030825
13422037172
13422041994
13422048769
13422054933
13422061037
13422066652
13422071047
13422076479
13422083376
13422088258
13422094484
13422099611
13422106813
13422112123
13422116884
13422125124
13422129823
13422135805
13422142336
13422147218
13422155092
13422162111
13422167482
13422173646
13422178407
13422184511
13422191469
13422197267
13422202638
13422210573
13422216493
13422222535
13422228822
13422235048
13422239564
13422245668
13422251283
13422256715
13422266176
13422272096
13422279969
13422285157
13422292421
13422299134
13422304567
13422312196
13422317811
13422324342
13422331056
13422335328
13422341065
13422346864
13422350526
13422357606
13422362306
13422368226
13422372193
13422378602
13422384522
13422390199
13422394044
13422400391
13422406800
13422412843
13422417115
13422423646
13422429627
13422434693
13422438233
13422445924
13422450745
13422457398
13422462586
13422470032
13422474793
13422480897
13422487061
13422492737
13422500550
13422507142
13422511475
13422517884
13422523377
13422529236
13422533387
13422540223
13422546204
13422553284
13422557374
13422563477
13422568909
13422574646
13422578797
13422585511
13422591492
13422598938
13422605042
13422611267
13422618470
13422623658
13422630738
13422636780
13422642212
13422648865
13422654480
13422659485
13422667237
13422672119
13422677246
13422684509
13422687500
13422697632
13422703308
13422709595
13422713379
13422720093
13422726990
13422734253
13422740173
13422746155
13422751404
13422757873
13422764099
13422771118
13422776184
13422780579
13422788452
13422793396
13422801636
13422808105
13422814209
13422820129
13422826233
13422832214
13422837707
13422846069
13422851867
13422857971
13422864441
13422871521
13422876281
13422885559
13422891479
13422898681
13422905151
13422914856
13422920043
13422925476
13422933105
13422939636
13422946533
13422950927
13422958373
13422963928
13422969421
13422976135
13422982543
13422986144
13422992736
13422996276
13423003845
13423008605
13423015807
13423021117
13423026427
13423031188
13423036987
13423043151
13423048461
13423053710
13423062316
13423067626
13423072387
13423077087
13423081481
13423089171
13423095153
13423101928
13423107360
13423118102
13423122252
13423127074
13423133117
13423138427
13423144591
13423150390
13423155822
13423163085
13423167907
13423172667
13423176696
13423183226
13423188842
13423194274
13423200804
13423205931
13423210082
13423214965
13423219115
13423226622
13423230590
13423235961
13423245238
13423251525
13423255858
13423262633
13423269042
13423273619
13423278319
13423286315
13423292906
13423298033
13423301329
13423309447
13423313719
13423319762
13423324950
13423330809
13423337340
13423342711
13423349669
13423354613
13423361754
13423366637
13423373106
13423378233
13423386656
13423391966
13423398985
13423403929
13423407469
13423415159
13423420042
13423426878
13423431456
13423438353
13423443174
13423448485
13423454405
13423460203
13423465086
13423470823
13423479002
13423486021
13423495237
13423500486
13423509642
13423515562
13423525389
13423530760
13423540159
13423545591
13423550169
13423554624
13423560423
13423566953
13423572874
13423578794
13423584654
13423591306
13423596616
13423603147
13423609861
13423615476
13423620420
13423625913
13423631590
13423637449
13423642698
13423649717
13423655332
13423660276
13423666074
13423671506
13423678403
13423683652
13423689023
13423694822
13423701719
13423708188
13423713621
13423718747
13423724790
13423730039
13423734983
13423740903
13423745969
13423750669
13423755674
13423760556
13423767759
13423773984
13423779111
13423785825
13423790036
13423796689
13423803586
13423808957
13423813474
13423820371
13423825559
13423831662
13423838864
13423844174
13423849851
13423854611
13423859860
13423867124
13423871884
13423879514
13423884763
13423890500
13423895688
13423900082
13423905393
13423912900
13423920285
13423927304
13423933286
13423939755
13423945309
13423951596
13423958676
13423962765
13423969357
13423974850
13423982236
13423987301
13423993588
13424000241
13424006222
13424013608
13424020382
13424022458
13424033200
13424039120
13424043820
13424050656
13424055966
13424060360
13424068173
13424073178
13424080990
13424085812
13424094296
13424101254
13424107479
13424115414
13424122372
13424128842
13424135372
13424141354
13424147396
13424152828
13424158077
13424163448
13424170284
13424175167
13424180233
13424186703
13424191769
13424196591
13424204098
13424208798
13424215267
13424219845
13424226742
13424231197
13424235470
13424243099
13424247555
13424254940
13424258419
13424266048
13424269771
13424277340
13424283138
13424289974
13424296566
13424301632
13424311275
13424319393
13424328060
13424336178
13424344356
13424355587
13424363826
13424372005
13424378109
13424390743
13424396846
13424407833
13424414119
13424422908
13424428585
13424434505
13424438899
13424445308
13424451045
13424455562
13424462520
13424466853
13424472347
13424477229
13424485713
13424493404
13424499019
13424506648
13424513362
13424517635
13424525508
13424530452
13424537044
13424542476
13424547542
13424554561
13424560237
13424563594
13424572139
13424575923
13424580073
13424584346
13424590632
13424596492
13424602046
13424607295
13424611751
13424616206
13424624080
13424630427
13424637080
13424643367
13424649104
13424653987
13424659480
13424663325
13424670100
13424673945
13424680171
13424688838
13424695246
13424701350
13424707820
13424713496
13424719050
13424724909
13424730403
13424737849
13424743525
13424749140
13424754878
13424759577
13424763789
13424768733
13424773615
13424778864
13424783015
13424787226
13424791438
13424796259
13424798762
13424805415
13424811823
13424816340
13424821711
13424825556
13424828852
13424835871
13424841547
13424846369
13424852106
13424857905
13424862238
13424868037
13424871027
13424879084
13424882868
13424887629
13424893427
13424898371
13424904108
13424910090
13424915583
13424920771
13424925837
13424929682
13424935907
13424940180
13424945063
13424949518
13424954706
13424960260
13424965754
13424969660
13424977289
13424983942
13424989435
13424994074
13424999384
13425003961
13425009149
13425015375
13425021234
13425027216
13425032587
13425039057
13425044061
13425049433
13425055048
13425059992
13425067133
13425072748
13425077753
13425083368
13425088190
13425092889
13425099115
13425103449
13425108026
13425115411
13425119806
13425126337
13425130792
13425136774
13425140680
13425145990
13425151605
13425157281
13425163568
13425168146
13425173822
13425178461
13425182489
13425188348
13425194757
13425199090
13425205987
13425212518
13425216852
13425221979
13425228021
13425233270
13425239251
13425248224
13425253900
13425257257
13425266168
13425270196
13425276300
13425282281
13425289605
13425294915
13425300470
13425305963
13425310357
13425313653
13425320367
13425325250
13425331353
13425335198
13425342156
13425346124
13425352227
13425357842
13425363519
13425368951
13425374627
13425379449
13425386041
13425391412
13425395928
13425401116
13425407281
13425412347
13425418084
13425423272
13425429803
13425434930
13425440545
13425446038
13425450433
13425455071
13425460747
13425465630
13425472710
13425477654
13425483025
13425487176
13425491631
13425498772
13425504143
13425508477
13425512749
13425520196
13425523980
13425530755
13425536248
13425540947
13425545952
13425550835
13425560234
13425565850
13425569207
13425574639
13425579399
13425586541
13425591301
13425596794
13425602898
13425609062
13425615593
13425620598
13425625359
13425631279
13425636345
13425646721
13425651604
13425658196
13425664787
13425669243
13425676506
13425681145
13425688347
13425695000
13425700798
13425707695
13425713066
13425718987
13425725212
13425730705
13425736504
13425741447
13425749016
13425754387
13425759575
13425768669
13425773674
13425780388
13425787529
13425792961
13425798942
13425805595
13425811699
13425820366
13425827141
13425835319
13425841240
13425848442
13425855522
13425859672
13425867241
13425873832
13425883537
13425887443
13425895439
13425901359
13425906669
13425912345
13425918205
13425924674
13425931571
13425937309
13425942619
13425946281
13425953178
13425958671
13425963554
13425971427
13425976493
13425981071
13425987296
13425992606
13425997855
13426003410
13426009513
13426014945
13426020560
13426026115
13426031669
13426036552
13426041862
13426046928
13426051871
13426060172
13426066642
13426071891
13426075919
13426082206
13426086967
13426093863
13426097404
13426103629
13426109366
13426114249
13426120536
13426125358
13426130729
13426136954
13426142081
13426147940
13426154654
13426158988
13426164969
13426172721
13426176505
13426184500
13426189505
13426196097
13426201285
13426207511
13426213248
13426218680
13426223624
13426228446
13426233328
13426239310
13426244254
13426251212
13426256400
13426261038
13426267142
13426272513
13426279044
13426283621
13426291678
13426296561
13426301260
13426306631
13426311942
13426319144
13426324210
13426328177
13426335623
13426343619
13426349722
13426354361
13426362295
13426369131
13426376517
13426383414
13426389578
13426395865
13426404898
13426412710
13426420401
13426429617
13426437063
13426442679
13426450796
13426461416
13426471670
13426480154
13426490347
13426499807
13426507681
13426514700
13426517446
13426531851
13426540335
13426545950
13426558889
13426566457
13426575491
13426582205
13426590627
13426598196
13426602956
13426613882
13426622243
13426629201
13426636159
13426641836
13426650136
13426655080
13426665212
13426673269
13426679067
13426686452
13426697622
13426702810
13426710439
13426716604
13426723073
13426731313
13426738637
13426743337
13426752065
13426758718
13426767568
13426774282
13426780996
13426789479
13426794667
13426801198
13426809194
13426814748
13426821584
13426829762
13426836171
13426841176
13426848866
13426855763
13426864186
13426868825
13426875234
13426882863
13426889821
13426900319
13426905080
13426912831
13426918874
13426925893
13426931203
13426936757
13426943959
13426952260
13426960744
13426969044
13426974171
13426981312
13426987172
13426996571
13427002492
13427012501
13427021657
13427031666
13427037098
13427044545
13427051136
13427056630
13427065602
13427070301
13427079518
13427088368
13427096241
13427101063
13427108021
13427116932
13427122425
13427128956
13427135609
13427142140
13427148853
13427157398
13427164539
13427170399
13427177296
13427184315
13427190540
13427197010
13427205799
13427212147
13427219349
13427226246
13427234669
13427241077
13427246937
13427253040
13427260364
13427266590
13427277393
13427284168
13427294361
13427303028
13427309314
13427316822
13427324756
13427332508
13427337879
13427345081
13427352466
13427361866
13427368091
13427374195
13427380909
13427386646
13427390857
13427396839
13427401905
13427407825
13427412647
13427417591
13427421985
13427427905
13427432849
13427438465
13427444019
13427450672
13427455432
13427461841
13427466113
13427471240
13427477649
13427482227
13427488147
13427494373
13427499255
13427505969
13427511035
13427515186
13427526416
13427532580
13427538562
13427545886
13427552295
13427558826
13427563830
13427568896
13427575732
13427579394
13427588794
13427590869
13427600940
13427605639
13427613086
13427617480
13427626147
13427631335
13427637866
13427641833
13427649768
13427655505
13427661364
13427665576
13427671923
13427676745
13427682971
13427688464
13427695910
13427701464
13427707019
13427711596
13427718005
13427722643
13427729235
13427733874
13427742480
13427748950
13427753710
13427759509
13427765429
13427769885
13427776171
13427781176
13427789233
13427795580
13427800890
13427807299
13427812792
13427820116
13427825854
13427832629
13427839342
13427846484
13427853503
13427858019
13427868090
13427875475
13427883959
13427888476
13427894396
13427903307
13427915148
13427924059
13427929979
13427937731
13427942614
13427949816
13427958971
13427968431
13427977953
13427985277
13427995409
13428003710
13428011278
13428019701
13428024767
13428034715
13428043871
13428050829
13428061266
13428069139
13428075121
13428080309
13428085741
13428092088
13428097215
13428104051
13428109056
13428116075
13428121141
13428124498
13428131212
13428134874
13428142381
13428145860
13428152757
13428160875
13428165452
13428171983
13428178209
13428183092
13428188280
13428194627
13428201524
13428208787
13428214280
13428219713
13428224778
13428228990
13428235399
13428240342
13428244981
13428251085
13428256822
13428261522
13428265794
13428272935
13428277513
13428283433
13428287400
13428294053
13428301072
13428305589
13428310288
13428316697
13428320420
13428326829
13428331529
13428337022
13428342515
13428349107
13428354295
13428359727
13428364304
13428371507
13428375718
13428381211
13428386094
13428394151
13428398972
13428403367
13428411240
13428416306
13428421616
13428427903
13428433030
13428438950
13428445542
13428450791
13428456711
13428461716
13428468003
13428474106
13428479844
13428485276
13428490098
13428497666
13428501328
13428509324
13428515549
13428521286
13428525193
13428531662
13428539597
13428546067
13428551682
13428556382
13428562851
13428568283
13428573654
13428578171
13428584030
13428588547
13428597702
13428605026
13428610398
13428616623
13428621994
13428627609
13428633469
13428637741
13428646530
13428652512
13428657272
13428662827
13428668259
13428672958
13428679123
13428684799
13428690292
13428693527
13428699814
13428705612
13428711410
13428716354
13428721725
13428727524
13428733566
13428738205
13428743576
13428748947
13428754379
13428760422
13428766098
13428772445
13428780990
13428786911
13428792343
13428798385
13428805160
13428809555
13428816208
13428822677
13428829940
13428833419
13428838852
13428843673
13428849166
13428855575
13428860153
13428865768
13428871810
13428876815
13428882125
13428888168
13428892257
13428896163
13428901290
13428908370
13428913375
13428918075
13428923385
13428928329
13428933639
13428938583
13428944930
13428949569
13428955856
13428960677
13428967208
13428972762
13428978622
13428984237
13428989547
13428995284
13429001876
13429006759
13429013168
13429019332
13429024520
13429029220
13429036239
13429042220
13429048446
13429055099
13429061385
13429066390
13429073836
13429078658
13429083236
13429091598
13429093673
13429103866
13429108443
13429115279
13429120284
13429127608
13429131209
13429139937
13429145552
13429152877
13429157454
13429164840
13429170089
13429177230
13429182967
13429191329
13429196944
13429205123
13429209822
13429218794
13429225325
13429232161
13429239974
13429247481
13429253218
13429259261
13429265913
13429271040
13429278181
13429284468
13429288069
13429294966
13429300581
13429307539
13429311446
13429318770
13429324202
13429328963
13429334151
13429343794
13429351851
13429363386
13429371687
13429379072
13429386824
13429397444
13429404768
13429412764
13429422773
13429431868
13429440107
13429446821
13429454084
13429460676
13429467268
13429476301
13429488386
13429495466
13429502729
13429510542
13429518232
13429526838
13429535139
13429543257
13429551252
13429559248
13429568159
13429575605
13429583112
13429591596
13429599653
13429607709
13429616804
13429624738
13429633832
13429641523
13429649763
13429657148
13429666364
13429674787
13429681928
13429690595
13429697858
13429708051
13429716169
13429724408
13429733503
13429739789
13429749067
13429757856
13429766217
13429773297
13429781720
13429788678
13429797589
13429805524
13429814313
13429820233
13429833234
13429840680
13429849835
13429857404
13429864179
13429874066
13429882733
13429892010
13429897992
13429911175
13429920819
13429931012
13429939130
13429949383
13429956463
13429964825
13429975689
13429981976
13429991925
13430002362
13430009137
13430017071
13430026654
13430033551
13430043377
13430049542
13430057415
13430066937
13430072735
13430082073
13430090985
13430096600
13430106060
13430111736
13430121380
13430127361
13430135418
13430146526
13430161785
13430174053
13430193706
13430209637
13430223186
13430241131
13430256206
13430271343
13430288555
13430303692
13430317485
13430333477
13430350261
13430364604
13430374187
13430385295
13430397380
13430410869
13430426006
13430441509
13430456279
13430469707
13430480327
13430489421
13430499126
13430507426
13430517009
13430525615
13430534892
13430543376
13430551799
13430560588
13430569438
13430578471
13430588237
13430596965
13430605632
13430614543
13430622660
13430630107
13430639445
13430647746
13430657450
13430667338
13430674906
13430682414
13430690043
13430698283
13430707499
13430717021
13430722941
13430733012
13430739115
13430749125
13430756205
13430765238
13430774821
13430782877
13430790507
13430797587
13430805704
13430818766
13430826700
13430832499
13430838236
13430841654
13430848246
13430853983
13430858622
13430865336
13430869120
13430874552
13430878580
13430883707
13430888590
13430893046
13430898722
13430903544
13430911783
13430915384
13430920939
13430926004
13430929178
13430935221
13430939798
13430943827
13430948893
13430953592
13430957926
13430961954
13430971048
13430978006
13430983438
13430989542
13430995279
13431000040
13431005228
13431010538
13431013651
13431020365
13431023477
13431029154
13431034036
13431038492
13431042886
13431049356
13431054361
13431058511
13431063089
13431067789
13431072610
13431076395
13431080911
13431087625
13431092996
13431098184
13431102090
13431107950
13431112833
13431117410
13431122476
13431128763
13431133645
13431138223
13431143106
13431148233
13431152322
13431158426
13431162637
13431168924
13431174844
13431179727
13431184244
13431190103
13431195657
13431200967
13431205362
13431210672
13431217508
13431222512
13431228311
13431233133
13431237344
13431243386
13431248147
13431254556
13431259744
13431265664
13431270425
13431275613
13431280007
13431286111
13431291604
13431298440
13431301797
13431310708
13431314553
13431322305
13431328957
13431334084
13431341409
13431348794
13431356362
13431362038
13431366677
13431372414
13431377175
13431382424
13431389077
13431393227
13431398843
13431404214
13431409585
13431414529
13431419411
13431423501
13431430337
13431435097
13431441323
13431446633
13431455666
13431461953
13431467324
13431471657
13431478798
13431484292
13431490700
13431494912
13431500588
13431507058
13431513100
13431518593
13431524880
13431531166
13431536415
13431541542
13431547463
13431551796
13431557900
13431562538
13431569191
13431573586
13431578530
13431583901
13431590798
13431595375
13431600380
13431605141
13431612282
13431616738
13431623451
13431627968
13431634621
13431641152
13431649818
13431655495
13431662697
13431667946
13431674660
13431680763
13431685402
13431691261
13431695717
13431703529
13431709572
13431716408
13431721718
13431728676
13431733803
13431738808
13431745643
13431751198
13431758461
13431764198
13431771522
13431775673
13431781593
13431787452
13431793007
13431798561
13431805336
13431810096
13431816444
13431821632
13431829200
13431835243
13431841102
13431847206
13431853858
13431859291
13431865760
13431871315
13431876808
13431881385
13431889259
13431894874
13431902625
13431913123
13431919532
13431924537
13431932166
13431936805
13431943153
13431948158
13431957618
13431963783
13431967994
13431973609
13431978675
13431983985
13431987647
13431995338
13432001746
13432006324
13432011634
13432017493
13432022620
13432027625
13432032508
13432038001
13432044105
13432048682
13432053687
13432059485
13432063758
13432070167
13432075171
13432079932
13432085059
13432090857
13432095801
13432100684
13432106421
13432111792
13432116736
13432122474
13432126563
13432132544
13432138831
13432143042
13432146155
13432153052
13432158240
13432163428
13432170874
13432176795
13432182288
13432187537
13432192359
13432197913
13432204260
13432210120
13432215918
13432221900
13432226416
13432232764
13432237586
13432243567
13432248145
13432254309
13432261145
13432265479
13432272375
13432275977
13432283057
13432288245
13432294775
13432299963
13432305334
13432310828
13432316748
13432323157
13432328161
13432334143
13432338354
13432345251
13432348669
13432355871
13432361914
13432367102
13432372534
13432377661
13432384009
13432389807
13432395239
13432400366
13432405249
13432412390
13432417151
13432421362
13432428076
13432434301
13432439062
13432444921
13432450720
13432456945
13432463354
13432469091
13432477209
13432482519
13432489477
13432497778
13432505834
13432512975
13432518469
13432525121
13432528661
13432537756
13432541052
13432547582
13432554174
13432559484
13432564611
13432570837
13432576452
13432581029
13432585485
13432592260
13432599523
13432605505
13432609289
13432616064
13432620153
13432626806
13432630102
13432636877
13432640294
13432647863
13432653173
13432657995
13432664098
13432668981
13432673681
13432680394
13432686498
13432691747
13432697301
13432703649
13432708654
13432713231
13432720372
13432724340
13432730626
13432738622
13432745641
13432756749
13432763402
13432772252
13432779393
13432786290
13432793492
13432798863
13432804051
13432809056
13432814122
13432818639
13432823155
13432828954
13432833531
13432837987
13432842870
13432847325
13432851720
13432855992
13432859959
13432865880
13432871434
13432876744
13432881871
13432886266
13432891270
13432894383
13432900548
13432906834
13432912755
13432916783
13432921544
13432924962
13432931248
13432935704
13432939671
13432945775
13432950413
13432954381
13432959385
13432962925
13432967747
13432971592
13432977452
13432982396
13432987095
13432991856
13432997471
13433002781
13433007786
13433013707
13433021519
13433026524
13433033055
13433039891
13433044529
13433050144
13433056492
13433060948
13433068943
13433075352
13433080052
13433084202
13433090000
13433095066
13433101597
13433105869
13433110996
13433114842
13433120701
13433124546
13433130344
13433134434
13433140904
13433145176
13433150974
13433154087
13433160801
13433164524
13433171055
13433175327
13433182224
13433186985
13433194736
13433198399
13433205967
13433209385
13433216648
13433220737
13433227390
13433233311
13433240452
13433243992
13433251804
13433258640
13433263401
13433269260
13433275364
13433280979
13433285556
13433291172
13433295810
13433300632
13433309238
13433315891
13433320591
13433327060
13433331943
13433338413
13433342990
13433346469
13433352878
13433358860
13433364841
13433369297
13433375156
13433378940
13433384372
13433387607
13433394382
13433398349
13433404392
13433411594
13433418186
13433421604
13433427951
13433433017
13433438876
13433444614
13433451816
13433458286
13433463046
13433466708
13433473849
13433478183
13433483676
13433489169
13433495029
13433500583
13433508090
13433514377
13433520602
13433526828
13433532870
13433537570
13433543429
13433549350
13433554294
13433560214
13433567599
13433573275
13433578463
13433584445
13433591525
13433597506
13433604464
13433615207
13433619784
13433624789
13433633273
13433638339
13433645114
13433649813
13433656649
13433660128
13433667330
13433671725
13433677218
13433683322
13433688449
13433695834
13433701693
13433707736
13433714022
13433718417
13433724947
13433731112
13433737582
13433743258
13433749972
13433754488
13433761080
13433766756
13433772921
13433777804
13433782320
13433790194
13433796175
13433801058
13433807101
13433812411
13433819247
13433822970
13433831454
13433836580
13433842806
13433849032
13433853731
13433858370
13433865694
13433870699
13433875887
13433882113
13433887972
13433894442
13433900301
13433904268
13433910616
13433916292
13433921602
13433930574
13433934725
13433941194
13433943392
13433952974
13433958223
13433964449
13433968294
13433974520
13433980928
13433986910
13433992220
13433998201
13434003816
13434009554
13434014314
13434021211
13434026704
13434032808
13434039766
13434045442
13434050569
13434056856
13434062715
13434067049
13434073824
13434080415
13434087007
13434092989
13434100130
13434105745
13434112642
13434117891
13434122713
13434130342
13434136506
13434142305
13434146272
13434156587
13434161043
13434169832
13434176667
13434184846
13434196077
13434203523
13434212190
13434220491
13434229280
13434239167
13434247407
13434256013
13434265962
13434273469
13434282746
13434290925
13434295930
13434303559
13434309785
13434316621
13434322297
13434330048
13434335786
13434343293
13434348176
13434353852
13434360566
13434362824
13434371857
13434377839
13434382844
13434389436
13434396271
13434400361
13434406830
13434411286
13434418183
13434423798
13434428437
13434435822
13434442292
13434448151
13434453400
13434458466
13434464692
13434470490
13434476044
13434483551
13434491120
13434496125
13434502106
13434507599
13434513764
13434518402
13434524750
13434529511
13434538300
13434543366
13434548981
13434554779
13434559845
13434566437
13434570648
13434576447
13434582428
13434588471
13434594147
13434600250
13434603851
13434610993
13434617218
13434621674
13434627167
13434633759
13434640045
13434644867
13434651459
13434656647
13434661102
13434667267
13434674774
13434682587
13434687653
13434694061
13434699066
13434706268
13434710602
13434714752
13434722137
13434728546
13434733429
13434736908
13434744598
13434748260
13434756256
13434761932
13434767791
13434774444
13434779998
13434785553
13434790558
13434795562
13434803009
13434807769
13434813202
13434818451
13434824981
13434830352
13434835845
13434841095
13434849029
13434854766
13434862030
13434868072
13434874664
13434883209
13434889312
13434896087
13434900848
13434905731
13434912139
13434919158
13434924835
13434929900
13434935638
13434941131
13434946563
13434952972
13434959502
13434963592
13434969817
13434974700
13434980743
13434985381
13434993438
13434999297
13435004424
13435010772
13435015777
13435021148
13435028289
13435033294
13435038421
13435047088
13435052398
13435057891
13435062224
13435066985
13435072112
13435077117
13435083831
13435089446
13435095916
13435101348
13435107207
13435112395
13435118865
13435123809
13435129241
13435136504
13435142241
13435146880
13435152861
13435158049
13435164641
13435171172
13435176055
13435183501
13435187285
13435193389
13435198515
13435204009
13435209563
13435215544
13435220244
13435224699
13435229582
13435236418
13435243193
13435248137
13435252470
13435258574
13435264189
13435269987
13435274687
13435282927
13435288176
13435293974
13435299589
13435304289
13435310515
13435314787
13435319914
13435326933
13435332792
13435336394
13435343474
13435349272
13435353850
13435358366
13435364775
13435371245
13435375517
13435380461
13435386808
13435392057
13435399565
13435404570
13435411283
13435418852
13435427519
13435434599
13435440763
13435446012
13435453215
13435458586
13435464872
13435473844
13435475736
13435484342
13435488676
13435494718
13435502348
13435507597
13435514494
13435519254
13435525175
13435531583
13435537321
13435541959
13435547392
13435552518
13435558256
13435563078
13435569181
13435574247
13435580472
13435585111
13435591642
13435597501
13435603055
13435608915
13435616544
13435621732
13435627958
13435633573
13435638883
13435645048
13435650480
13435655485
13435661649
13435667753
13435670560
13435676542
13435683316
13435689115
13435694303
13435699369
13435704862
13435709500
13435715360
13435719937
13435725797
13435733670
13435739652
13435745084
13435750577
13435754422
13435760770
13435766995
13435774442
13435780606
13435785062
13435792020
13435799649
13435805936
13435811490
13435817899
13435824063
13435829800
13435836209
13435841092
13435846707
13435854459
13435859280
13435863553
13435871426
13435877042
13435883633
13435887540
13435895230
13435899686
13435907010
13435912564
13435919339
13435924161
13435932034
13435938260
13435942898
13435947598
13435954556
13435958951
13435964016
13435972256
13435978726
13435984890
13435989407
13435996792
13436002041
13436009976
13436013943
13436020657
13436030239
13436036099
13436042263
13436049404
13436053921
13436060391
13436066311
13436071987
13436075222
13436083401
13436087856
13436098477
13436106655
13436123074
13436130398
13436137844
13436147366
13436155056
13436161831
13436170132
13436178188
13436184475
13436191372
13436196743
13436202846
13436208156
13436213405
13436219753
13436224819
13436230556
13436236233
13436241298
13436245571
13436252102
13436258205
13436264187
13436269436
13436274868
13436279384
13436285671
13436290065
13436296230
13436300685
13436307399
13436312709
13436317287
13436322048
13436327968
13436333705
13436337856
13436342922
13436349880
13436354396
13436359950
13436365566
13436370021
13436375942
13436382289
13436387843
13436393276
13436398525
13436404079
13436409511
13436414272
13436418544
13436423976
13436428859
13436435634
13436441493
13436446498
13436452052
13436456264
13436462428
13436467677
13436475062
13436480617
13436486659
13436490565
13436496974
13436503261
13436507838
13436515346
13436520717
13436526881
13436531703
13436537684
13436542140
13436548060
13436555812
13436563380
13436570033
13436576747
13436582728
13436589076
13436593104
13436601832
13436607447
13436615748
13436621058
13436624720
13436631007
13436634852
13436640040
13436646632
13436651698
13436656214
13436662257
13436666529
13436672816
13436678065
13436683314
13436688990
13436694972
13436700282
13436706507
13436711451
13436716151
13436721217
13436727137
13436732813
13436738917
13436746241
13436752161
13436756617
13436764857
13436770106
13436776697
13436783106
13436787989
13436794398
13436799036
13436804590
13436809962
13436813868
13436821070
13436827234
13436833277
13436835047
13436842981
13436846277
13436853174
13436856348
13436864039
13436872644
13436877100
13436882837
13436888392
13436893702
13436898767
13436903833
13436909571
13436916285
13436921656
13436926966
13436932581
13436938928
13436944422
13436948938
13436953943
13436961084
13436966516
13436971765
13436975672
13436983179
13436987390
13436994776
13436998865
13437005396
13437009180
13437017481
13437021082
13437028284
13437034448
13437039514
13437044458
13437050928
13437058008
13437063623
13437068445
13437074304
13437079492
13437085535
13437091943
13437097253
13437102746
13437109888
13437114709
13437121606
13437129602
13437136194
13437142175
13437148767
13437155908
13437162744
13437168664
13437175439
13437183068
13437189904
13437196740
13437203576
13437211084
13437216577
13437221337
13437227075
13437231774
13437238000
13437243310
13437248803
13437254846
13437260522
13437264367
13437270410
13437275109
13437281945
13437285607
13437292687
13437299523
13437305688
13437309533
13437317956
13437321740
13437330590
13437337121
13437342797
13437346947
13437354638
13437358971
13437366784
13437372643
13437378136
13437383874
13437389977
13437397240
13437403283
13437409325
13437415001
13437420983
13437425866
13437432152
13437439110
13437443139
13437450158
13437456078
13437460839
13437466027
13437473107
13437479943
13437485985
13437492638
13437498070
13437503746
13437509423
13437513207
13437520409
13437525597
13437532677
13437538048
13437544457
13437549584
13437555626
13437561058
13437566734
13437571922
13437578697
13437585472
13437591393
13437595360
13437603233
13437609032
13437614159
13437620140
13437625084
13437631248
13437637779
13437643455
13437650047
13437655357
13437661949
13437667992
13437675133
13437679527
13437686851
13437692345
13437699730
13437705711
13437710533
13437716514
13437723045
13437729698
13437740562
13437748069
13437754600
13437762474
13437768394
13437775474
13437782493
13437791771
13437799522
13437804344
13437810874
13437816795
13437821678
13437829368
13437836509
13437842491
13437848533
13437854453
13437859092
13437865196
13437870201
13437876914
13437885887
13437891685
13437898460
13437905540
13437910239
13437918113
13437923484
13437931602
13437937034
13437943137
13437947898
13437953513
13437959678
13437965232
13437970420
13437978660
13437984153
13437990928
13437996055
13438001670
13438006125
13438012473
13438017295
13438025657
13438030906
13438037070
13438042136
13438049033
13438055320
13438057456
13438068015
13438075950
13438080649
13438087851
13438092490
13438098655
13438104758
13438110068
13438116294
13438122580
13438129965
13438135459
13438140586
13438146872
13438153220
13438158469
13438163840
13438172995
13438178183
13438184653
13438189475
13438196127
13438202658
13438208029
13438213034
13438220297
13438225363
13438230917
13438237875
13438242819
13438248251
13438254965
13438261313
13438268393
13438273215
13438279501
13438285788
13438290365
13438297201
13438303000
13438310812
13438315939
13438322226
13438327475
13438335898
13438342367
13438347433
13438355246
13438360800
13438366110
13438375021
13438379538
13438386862
13438393026
13438398825
13438407370
13438412741
13438417746
13438424826
13438430502
13438435568
13438440389
13438447531
13438453634
13438459921
13438463400
13438469930
13438474996
13438481649
13438486593
13438492941
13438499410
13438505148
13438509969
13438515890
13438520895
13438528280
13438533651
13438540609
13438546407
13438553548
13438558675
13438564901
13438569906
13438576620
13438582174
13438588277
13438595601
13438602682
13438608419
13438615804
13438621053
13438626973
13438631978
13438638631
13438644857
13438651449
13438656514
13438663533
13438669271
13438673604
13438678487
13438685933
13438692525
13438698507
13438703756
13438710958
13438715963
13438721395
13438726338
13438733419
13438740315
13438746724
13438751607
13438758565
13438763570
13438769368
13438774434
13438780660
13438788411
13438793904
13438798909
13438805379
13438810384
13438816304
13438822652
13438827840
13438833333
13438839436
13438844868
13438851277
13438855794
13438862324
13438869282
13438875508
13438881428
13438888264
13438893574
13438899983
13438905049
13438911580
13438918171
13438922688
13438930745
13438939900
13438948079
13438953755
13438960225
13438966877
13438973591
13438977986
13438986042
13438993245
13439000569
13439006855
13439012776
13439019306
13439023884
13439030415
13439036701
13439041523
13439048786
13439055134
13439059590
13439065266
13439071247
13439077351
13439084187
13439089497
13439096638
13439102924
13439107441
13439113789
13439119587
13439125629
13439130451
13439137531
13439144001
13439149311
13439155353
13439161396
13439165913
13439171650
13439178730
13439185139
13439191486
13439197285
13439203022
13439207294
13439213764
13439219623
13439226032
13439230243
13439237812
13439242206
13439248798
13439255024
13439260822
13439266376
13439270893
13439280170
13439285114
13439291339
13439297199
13439301288
13439307880
13439313800
13439319477
13439326984
13439333820
13439338092
13439344684
13439350849
13439355365
13439361102
13439367694
13439374042
13439380573
13439386493
13439391010
13439396991
13439403522
13439407184
13439413776
13439421527
13439426471
13439432208
13439438556
13439444537
13439450946
13439454669
13439462543
13439468646
13439474994
13439479388
13439486590
13439491168
13439497821
13439501483
13439509173
13439513324
13439521625
13439525104
13439532672
13439536151
13439544513
13439550921
13439555499
13439561969
13439569293
13439573382
13439580401
13439587542
13439593158
13439599017
13439607379
13439613055
13439620623
13439627642
13439632769
13439640643
13439647601
13439654254
13439659869
13439666766
13439672320
13439679583
13439685076
13439691119
13439696978
13439703997
13439709673
13439717303
13439723162
13439730608
13439736651
13439742754
13439750262
13439755999
13439763323
13439771624
13439776934
13439782488
13439788103
13439793658
13439799639
13439805742
13439810564
13439817522
13439822527
13439829119
13439835039
13439839922
13439845842
13439849932
13439857622
13439863787
13439870073
13439876116
13439881731
13439887957
13439893999
13439898149
13439904802
13439910906
13439917253
13439923479
13439929582
13439934343
13439940386
13439946367
13439951006
13439959245
13439965715
13439970049
13439976763
13439982439
13439988481
13439992876
13440001115
13440005754
13440013689
13440017412
13440025224
13440030656
13440038408
13440044084
13440048784
13440056169
13440063188
13440067399
13440074724
13440080339
13440086503
13440091081
13440097429
13440103532
13440110612
13440116227
13440121476
13440127702
13440132951
13440139360
13440147783
13440153825
13440159990
13440168657
13440175065
13440181596
13440187516
13440193986
13440201188
13440208573
13440214677
13440223405
13440229020
13440234147
13440239030
13440245866
13440253068
13440258561
13440263505
13440270036
13440275041
13440280778
13440285783
13440292130
13440299149
13440305436
13440311967
13440319169
13440323136
13440329606
13440334367
13440340287
13440347428
13440353654
13440358475
13440364884
13440369157
13440376298
13440380753
13440384965
13440392228
13440399979
13440404862
13440408463
13440416276
13440421891
13440427018
13440432511
13440438004
13440443558
13440451065
13440454789
13440460770
13440467484
13440472245
13440476517
13440482437
13440489090
13440496964
13440501480
13440505692
13440513199
13440517472
13440524491
13440528702
13440535050
13440542069
13440549088
13440552567
13440560440
13440563919
13440571793
13440576004
13440582901
13440589432
13440597611
13440601028
13440608048
13440613052
13440620987
13440624832
13440632339
13440639847
13440645950
13440651382
13440657364
13440662796
13440670425
13440675979
13440682876
13440688614
13440694595
13440699600
13440707901
13440713150
13440720169
13440725113
13440731155
13440737930
13440745620
13440750991
13440757400
13440763931
13440770889
13440776687
13440783462
13440790420
13440797134
13440803787
13440808670
13440816177
13440821548
13440828994
13440834426
13440841995
13440850295
13440856277
13440860977
13440866958
13440873550
13440878310
13440884048
13440891128
13440895705
13440902908
13440907241
13440914138
13440919753
13440926162
13440931289
13440941299
13440948196
13440956374
13440962661
13440968398
13440975295
13440979568
13440985671
13440991103
13440998000
13441004775
13441010146
13441014663
13441021071
13441025527
13441032607
13441037612
13441044814
13441049453
13441056533
13441061171
13441068740
13441074416
13441080031
13441084792
13441092665
13441098098
13441103102
13441109450
13441114272
13441120375
13441126662
13441133437
13441139784
13441145339
13441151625
13441156630
13441162795
13441167311
13441174391
13441179823
13441188429
13441193800
13441199721
13441204726
13441210768
13441217055
13441221632
13441229079
13441235487
13441240858
13441247816
13441252821
13441258742
13441263258
13441269484
13441274489
13441282667
13441287855
13441295119
13441300306
13441305311
13441310377
13441316603
13441322218
13441328016
13441331862
13441338759
13441344740
13441348890
13441356031
13441361219
13441370375
13441377394
13441385023
13441391493
13441396742
13441400526
13441409681
13441417127
13441423414
13441429457
13441436842
13441444837
13441449415
13441456190
13441460645
13441467787
13441472913
13441479444
13441484022
13441490369
13441496168
13441502149
13441507459
13441515821
13441521253
13441526746
13441531263
13441538404
13441543043
13441549757
13441554578
13441561658
13441566602
13441572950
13441577588
13441583570
13441589734
13441595594
13441602857
13441609754
13441616834
13441622266
13441626722
13441633497
13441638074
13441644666
13441651502
13441656995
13441664014
13441668470
13441675428
13441681043
13441685681
13441692762
13441697827
13441705762
13441712598
13441719495
13441724134
13441730603
13441735181
13441741895
13441746839
13441753735
13441759107
13441765881
13441770398
13441776807
13441783154
13441788403
13441796277
13441801709
13441808301
13441813611
13441818249
13441824597
13441830395
13441836072
13441841321
13441848889
13441855054
13441861035
13441867566
13441873425
13441878003
13441884350
13441889233
13441897290
13441902234
13441908093
13441914074
13441920056
13441924756
13441931530
13441936474
13441945507
13441950268
13441957287
13441961804
13441968335
13441973645
13441980481
13441987133
13441994702
13442001477
13442008740
13442016552
13442023937
13442031628
13442039623
13442044811
13442051708
