13314558016
13314563021
13314568453
13314572604
13314577486
13314582308
13314587130
13314592074
13314596529
13314601168
13314605990
13314610750
13314615328
13314619967
13314624666
13314629183
13314634310
13314638888
13314643404
13314648531
13314653841
13314658053
13314662569
13314668429
13314674349
13314679720
13314684969
13314690340
13314695284
13314700533
13314706331
13314711702
13314716951
13314721773
13314727510
13314732210
13314737398
13314742830
13314748445
13314753023
13314757418
13314762728
13314767244
13314772615
13314777925
13314783052
13314788301
13314793550
13314798067
13314802706
13314806368
13314809358
13314813142
13314818330
13314824495
13314830537
13314837007
13314841035
13314846529
13314851228
13314856477
13314861726
13314866060
13314869417
13314873323
13314877168
13314883089
13314887971
13314892610
13314897371
13314901582
13314904939
13314908967
13314914216
13314918855
13314921785
13314927644
13314931245
13314935884
13314939973
13314945222
13314950349
13314954255
13314959199
13314963716
13314968355
13314972261
13314975679
13314980500
13314983674
13314990449
13314995637
13315000154
13315004182
13315008149
13315013215
13315017183
13315023347
13315027619
13315033296
13315037629
13315044587
13315050325
13315054841
13315061921
13315066987
13315072419
13315077546
13315081880
13315088105
13315091157
13315097444
13315100556
13315109467
13315116425
13315121064
13315127656
13315135285
13315144929
13315151521
13315157990
13315164887
13315170014
13315176362
13315183259
13315190400
13315196503
13315204133
13315211335
13315215302
13315225068
13315232026
13315239716
13315250947
13315259491
13315265473
13315269623
13315277924
13315284150
13315289765
13315294648
13315300385
13315305695
13315310395
13315315766
13315320404
13315325043
13315329926
13315334259
13315337799
13315344086
13315348786
13315353241
13315357270
13315360687
13315365326
13315369843
13315374542
13315378815
13315383209
13315388214
13315393280
13315397308
13315402802
13315407684
13315412994
13315418915
13315422516
13315428925
13315432709
13315438690
13315443085
13315449493
13315457245
13315463654
13315469330
13315475128
13315481903
13315490326
13315500030
13315507355
13315514313
13315522735
13315528534
13315537079
13315545746
13315551788
13315559417
13315567474
13315574493
13315580841
13315586944
13315594696
13315601715
13315609893
13315616973
13315623443
13315629974
13315635406
13315644012
13315647857
13315654449
13315660186
13315665069
13315669769
13315674346
13315682769
13315686981
13315691558
13315697845
13315702850
13315709014
13315715972
13315722076
13315725982
13315736541
13315744170
13315749847
13315756072
13315761016
13315764922
13315772796
13315777984
13315783172
13315788970
13315795806
13315801238
13315807403
13315811370
13315815459
13315821807
13315825042
13315832061
13315836577
13315842132
13315847197
13315853240
13315858306
13315862944
13315867888
13315873992
13315880156
13315884490
13315888457
13315895171
13315899810
13315909087
13315913604
13315924834
13315932036
13315940337
13315947722
13315953887
13315964324
13315970000
13315978911
13315985808
13315993987
13316003081
13316010527
13316017851
13316023772
13316033110
13316042571
13316048735
13316059477
13316065825
13316073332
13316080778
13316090544
13316096770
13316103483
13316109343
13316113920
13316120085
13316129851
13316140898
13316147368
13316153166
13316156767
13316166349
13316170134
13316176786
13316182402
13316187468
13316193937
13316198576
13316202055
13316211882
13316215483
13316223295
13316227446
13316235990
13316238249
13316247404
13316251432
13316259245
13316263517
13316271330
13316275358
13316281889
13316287687
13316293852
13316297636
13316304533
13316309904
13316316312
13316322843
13316328519
13316335844
13316342619
13316347990
13316353666
13316359281
13316367399
13316373014
13316380033
13316386198
13316395048
13316400541
13316409208
13316417447
13316423490
13316432096
13316440091
13316447782
13316453946
13316463163
13316469266
13316473661
13316483121
13316490384
13316497953
13316503873
13316511136
13316519254
13316525052
13316532437
13316540799
13316547696
13316555326
13316563138
13316569242
13316578885
13316583890
13316592618
13316598233
13316604581
13316610440
13316617581
13316623563
13316629849
13316636807
13316641263
13316646573
13316653714
13316657620
13316665494
13316669522
13316676175
13316681607
13316687344
13316692959
13316699124
13316706509
13316712063
13316717679
13316724576
13316729886
13316734585
13316739712
13316744412
13316750454
13316756680
13316760891
13316768582
13316773953
13316779690
13316785061
13316790921
13316798855
13316804104
13316809292
13316815579
13316820645
13316826809
13316831570
13316838711
13316845242
13316852261
13316857449
13316863491
13316868679
13316872708
13316881802
13316886562
13316893643
13316898586
13316907864
13316912685
13316924038
13316932400
13316940701
13316948574
13316955288
13316963711
13316972011
13316977322
13316987148
13316991604
13317001858
13317010097
13317019375
13317026882
13317037319
13317049343
13317054714
13317066188
13317074733
13317083034
13317089016
13317096584
13317102993
13317110073
13317114711
13317121059
13317127223
13317132656
13317140529
13317145839
13317152065
13317157741
13317164760
13317171108
13317177089
13317182033
13317188686
13317193569
13317200282
13317205776
13317212306
13317219447
13317225490
13317232204
13317238063
13317244899
13317250209
13317256679
13317260951
13317268031
13317273585
13317280116
13317286220
13317295253
13317302516
13317307338
13317314235
13317318751
13317325587
13317332484
13317337367
13317341884
13317349147
13317355861
13317360621
13317366664
13317374110
13317378016
13317384791
13317390712
13317398646
13317404078
13317409816
13317414637
13317423793
13317430140
13317439906
13317450221
13317457789
13317464198
13317473536
13317482691
13317488978
13317497035
13317505152
13317511500
13317519434
13317527613
13317535365
13317541834
13317549342
13317556177
13317564356
13317571131
13317579310
13317588282
13317596216
13317603541
13317610377
13317620081
13317628321
13317635767
13317640772
13317646570
13317655298
13317661951
13317667627
13317674830
13317681360
13317689234
13317691248
13317701929
13317707361
13317714258
13317718714
13317728540
13317732813
13317740564
13317744654
13317753137
13317757288
13317764795
13317769922
13317776148
13317781580
13317787256
13317793665
13317798181
13317804468
13317809534
13317814478
13317821863
13317826318
13317831812
13317839319
13317845178
13317850977
13317856164
13317862634
13317864587
13317872766
13317876245
13317883264
13317888269
13317894922
13317901025
13317905603
13317911340
13317918176
13317923486
13317929406
13317936487
13317942468
13317950769
13317957971
13317963952
13317974023
13317980371
13317987878
13317996057
13318004846
13318011376
13318020043
13318026818
13318036279
13318040551
13318051721
13318059167
13318066186
13318073876
13318079675
13318084252
13318095117
13318102380
13318111352
13318120019
13318128869
13318135949
13318144738
13318150353
13318156518
13318162621
13318169274
13318173058
13318181786
13318187707
13318193383
13318200280
13318205407
13318211693
13318219628
13318225060
13318232628
13318239159
13318244774
13318249657
13318256005
13318260949
13318268578
13318273278
13318277245
13318285546
13318289635
13318296959
13318303429
13318309716
13318316918
13318324608
13318329064
13318337609
13318343163
13318348595
13318353966
13318361168
13318369835
13318377953
13318386131
13318390831
13318398705
13318403893
13318411705
13318420738
13318431053
13318437035
13318447960
13318452965
13318462974
13318471702
13318481895
13318493431
13318504478
13318512474
13318520714
13318529381
13318538231
13318548179
13318557151
13318567344
13318577293
13318585105
13318594200
13318604393
13318615196
13318624717
13318634300
13318643455
13318653098
13318663169
13318667137
13318682334
13318690879
13318700950
13318711753
13318718528
13318727317
13318732017
13318744224
13318750693
13318757835
13318764732
13318773154
13318780479
13318789146
13318795005
13318801780
13318811484
13318819785
13318826987
13318834128
13318841086
13318849570
13318860190
13318867026
13318874106
13318883200
13318891379
13318899497
13318907614
13318914572
13318921714
13318928427
13318938315
13318946128
13318954367
13318961447
13318973166
13318980551
13318988303
13318999350
13319004355
13319015219
13319024191
13319031027
13319039633
13319049338
13319055563
13319063742
13319072226
13319082114
13319092184
13319104269
13319112753
13319125143
13319136374
13319146627
13319156759
13319165670
13319179708
13319188559
13319198202
13319212362
13319219869
13319232321
13319241171
13319249899
13319259237
13319268697
13319277303
13319286886
13319297384
13319314352
13319333211
13319351766
13319372457
13319392843
13319411397
13319432271
13319452779
13319471517
13319491780
13319509114
13319519673
13319528707
13319540608
13319556539
13319569051
13319580281
13319593037
13319605244
13319617329
13319627095
13319635701
13319643758
13319650593
13319661030
13319668477
13319676655
13319684102
13319691731
13319700581
13319708455
13319716328
13319725789
13319733479
13319740620
13319748005
13319754475
13319763935
13319771077
13319779560
13319786579
13319795002
13319804280
13319811360
13319819660
13319831013
13319840107
13319845722
13319861164
13319871174
13319878376
13319888996
13319899067
13319909443
13319917255
13319928730
13319936420
13319948200
13319958393
13319966572
13319976642
13319987568
13319997944
13320004780
13320012043
13320019489
13320026508
13320033954
13320041706
13320052387
13320059223
13320065998
13320071247
13320076923
13320080951
13320085407
13320091144
13320096576
13320100910
13320104999
13320110187
13320115741
13320119831
13320125202
13320129169
13320133747
13320138568
13320144916
13320149433
13320153339
13320158344
13320163287
13320167804
13320172748
13320177448
13320180866
13320186603
13320191669
13320196124
13320200214
13320205585
13320209613
13320214740
13320219318
13320224445
13320229694
13320233112
13320239276
13320243060
13320247638
13320252765
13320257587
13320263019
13320268756
13320273273
13320277728
13320283954
13320290057
13320295550
13320303546
13320308917
13320312518
13320322528
13320328265
13320334552
13320341266
13320346454
13320353839
13320358783
13320367755
13320373614
13320380389
13320387469
13320395343
13320402850
13320410723
13320417193
13320425616
13320433306
13320440020
13320446124
13320453448
13320459246
13320463152
13320468524
13320473712
13320480120
13320484759
13320490923
13320494647
13320501116
13320503924
13320510882
13320517962
13320523516
13320530230
13320535845
13320543108
13320549029
13320555743
13320561968
13320568804
13320574602
13320579485
13320586687
13320591082
13320596270
13320600115
13320605852
13320611406
13320616778
13320622210
13320627520
13320632341
13320636919
13320641619
13320646257
13320651751
13320657915
13320663652
13320668718
13320673723
13320679644
13320685442
13320690264
13320696428
13320701067
13320708818
13320712664
13320721025
13320726396
13320734697
13320742632
13320749529
13320756609
13320762041
13320769914
13320778337
13320784624
13320793413
13320800859
13320809892
13320816850
13320823442
13320831865
13320838457
13320844865
13320854936
13320862016
13320868608
13320875688
13320881853
13320889055
13320895891
13320903093
13320909013
13320915361
13320920976
13320926408
13320930925
13320934831
13320941301
13320947953
13320952958
13320957597
13320963151
13320967729
13320973527
13320980973
13320986406
13320992631
13320999223
13321009477
13321013932
13321019853
13321024430
13321030778
13321034867
13321042741
13321048539
13321054032
13321059770
13321065080
13321070023
13321077042
13321083512
13321089738
13321094865
13321101884
13321108842
13321114457
13321120072
13321127274
13321132523
13321139115
13321144364
13321148698
13321158585
13321162858
13321169999
13321173783
13321182511
13321189957
13321197342
13321201981
13321210953
13321218339
13321225480
13321231888
13321239457
13321247025
13321252396
13321260086
13321267350
13321274613
13321280350
13321288285
13321296646
13321305252
13321311600
13321319779
13321330094
13321335770
13321342789
13321349930
13321359268
13321365128
13321372391
13321379166
13321384293
13321388992
13321395584
13321400528
13321405716
13321411026
13321416275
13321422073
13321425796
13321430130
13321435440
13321443619
13321449356
13321453750
13321459000
13321463882
13321468765
13321473648
13321479263
13321485000
13321493301
13321497085
13321503311
13321508804
13321515030
13321520645
13321527420
13321534256
13321539810
13321545974
13321551468
13321556045
13321563552
13321568618
13321574661
13321581863
13321586990
13321593215
13321598281
13321603897
13321610427
13321615310
13321618606
13321626602
13321633254
13321638076
13321644241
13321649307
13321654617
13321661697
13321667312
13321676894
13321685378
13321691482
13321700332
13321708511
13321715652
13321721511
13321726211
13321737563
13321742629
13321753432
13321761977
13321770278
13321778457
13321785110
13321790297
13321802932
13321815261
13321820388
13321830642
13321837722
13321847304
13321852309
13321862746
13321867873
13321875685
13321883254
13321889357
13321893141
13321900466
13321904067
13321912612
13321917922
13321923659
13321927199
13321935378
13321939345
13321947402
13321951674
13321959364
13321966322
13321973586
13321979384
13321984511
13321989150
13321996169
13322001784
13322008803
13322013808
13322019057
13322025648
13322031142
13322037428
13322041762
13322048964
13322053114
13322060499
13322067396
13322072645
13322076613
13322085646
13322090040
13322096266
13322101454
13322108412
13322114637
13322120741
13322125319
13322131910
13322137159
13322143202
13322149427
13322151564
13322161268
13322165602
13322174635
13322178419
13322187635
13322195570
13322204908
13322209669
13322219374
13322227308
13322237745
13322243116
13322252760
13322260267
13322269849
13322277723
13322286451
13322291700
13322302625
13322311170
13322317579
13322324842
13322335096
13322343214
13322350599
13322357801
13322367933
13322373060
13322384107
13322389234
13322399366
13322403699
13322411634
13322415052
13322421888
13322428296
13322435682
13322443921
13322450208
13322454908
13322464246
13322468335
13322476941
13322481092
13322489026
13322495069
13322502881
13322509229
13322514783
13322520154
13322527173
13322530225
13322537000
13322541577
13322546948
13322551587
13322559155
13322565015
13322570813
13322573987
13322580884
13322586133
13322590527
13322595349
13322601270
13322606152
13322612134
13322617627
13322624158
13322627393
13322634656
13322639783
13322645764
13322652478
13322658642
13322663647
13322670117
13322674573
13322680493
13322685437
13322691662
13322698742
13322705945
13322713208
13322722607
13322729565
13322737011
13322744397
13322753430
13322761670
13322770153
13322777050
13322783886
13322790539
13322800122
13322806652
13322813488
13322820507
13322828381
13322835278
13322844250
13322851208
13322858715
13322865673
13322875073
13322882702
13322893139
13322898022
13322908337
13322912487
13322918529
13322923351
13322929027
13322934948
13322941173
13322945263
13322950817
13322956127
13322961010
13322967296
13322973217
13322979320
13322984447
13322990368
13322995067
13323001598
13323006847
13323012279
13323018749
13323025219
13323029918
13323036083
13323041515
13323048168
13323052684
13323058971
13323062938
13323069957
13323076122
13323082653
13323088634
13323094127
13323099498
13323107494
13323112987
13323119884
13323127269
13323135936
13323139476
13323146678
13323150340
13323158824
13323162486
13323169994
13323173595
13323180187
13323184825
13323191051
13323196727
13323203441
13323209788
13323219920
13323224925
13323234080
13323238536
13323249583
13323254100
13323263377
13323267894
13323278026
13323282725
13323292918
13323297862
13323308787
13323315989
13323324473
13323333445
13323340220
13323345713
13323356639
13323364817
13323373179
13323380015
13323388072
13323395579
13323402903
13323408885
13323414134
13323420420
13323426402
13323434947
13323439585
13323443247
13323451853
13323456065
13323463511
13323468821
13323474741
13323480601
13323487193
13323493540
13323504526
13323508433
13323517466
13323521433
13323530772
13323537363
13323542307
13323546213
13323555918
13323559702
13323567576
13323572947
13323578928
13323586558
13323592600
13323597971
13323603281
13323611216
13323617685
13323623118
13323630320
13323635141
13323638987
13323647165
13323654612
13323659922
13323663950
13323672251
13323678232
13323685190
13323690866
13323696726
13323702158
13323707712
13323715524
13323720712
13323728586
13323735727
13323745004
13323753122
13323761606
13323769479
13323779123
13323790842
13323797983
13323807748
13323814706
13323824777
13323831979
13323838632
13323851449
13323859506
13323865549
13323873666
13323879709
13323888376
13323897409
13323904306
13323912912
13323920175
13323928537
13323937082
13323942025
13323948129
13323954415
13323959909
13323965646
13323969369
13323976571
13323982125
13323987802
13323992318
13323998117
13324004464
13324011300
13324018563
13324023995
13324031075
13324036447
13324042245
13324048348
13324055245
13324060494
13324067513
13324074654
13324080331
13324085824
13324092599
13324098519
13324104073
13324109627
13324114815
13324122262
13324127694
13324132882
13324139840
13324146126
13324151925
13324157601
13324164681
13324170907
13324176949
13324183236
13324190499
13324196480
13324201729
13324207955
13324212899
13324219979
13324227608
13324232979
13324239083
13324247567
13324254769
13324263497
13324270821
13324280770
13324287667
13324296944
13324304146
13324312447
13324319527
13324329415
13324336678
13324346199
13324353401
13324362068
13324368782
13324378120
13324385262
13324394417
13324402779
13324411812
13324418953
13324429878
13324437935
13324445198
13324451973
13324460457
13324467903
13324476082
13324481148
13324489631
13324494636
13324504524
13324512275
13324519233
13324530525
13324534248
13324542060
13324545845
13324552681
13324558113
13324563728
13324568855
13324574348
13324579292
13324585212
13324590339
13324595100
13324602058
13324607063
13324613166
13324617866
13324623908
13324629157
13324633369
13324638557
13324646186
13324649482
13324658027
13324663581
13324669379
13324673164
13324680244
13324685981
13324692146
13324698554
13324703132
13324709052
13324714790
13324719489
13324727790
13324732795
13324739204
13324746894
13324753425
13324758918
13324765082
13324768805
13324775275
13324781379
13324786323
13324791938
13324798468
13324803473
13324810248
13324815375
13324821723
13324826667
13324831916
13324839728
13324846686
13324851447
13324856818
13324861823
13324868109
13324872504
13324879096
13324883979
13324891364
13324897833
13324904181
13324908637
13324915534
13324920355
13324923712
13324932135
13324936530
13324944647
13324951056
13324956061
13324959418
13324967291
13324972540
13324978461
13324983588
13324990179
13324996039
13325000616
13325005438
13325011359
13325017401
13325022894
13325030279
13325033636
13325041022
13325045294
13325052679
13325058172
13325065069
13325073065
13325078314
13325083441
13325090948
13325096624
13325101751
13325108587
13325114386
13325120672
13325127386
13325132818
13325138433
13325143560
13325149603
13325154486
13325160833
13325166998
13325171698
13325176214
13325182196
13325186712
13325192083
13325198004
13325204107
13325209783
13325215826
13325220464
13325226324
13325231268
13325237676
13325247076
13325252142
13325256902
13325263006
13325268377
13325274969
13325280035
13325286199
13325291082
13325297430
13325304388
13325311040
13325315679
13325319402
13325327764
13325333257
13325339727
13325343511
13325349981
13325356634
13325362066
13325367498
13325373723
13325379400
13325385747
13325390996
13325396734
13325402410
13325409307
13325414373
13325420293
13325425237
13325432378
13325437749
13325441594
13325449163
13325453313
13325461370
13325465215
13325471501
13325476811
13325482122
13325488713
13325495488
13325500493
13325506841
13325512883
13325518926
13325524114
13325530217
13325534856
13325538640
13325547368
13325551213
13325560246
13325563908
13325570683
13325576482
13325582646
13325587468
13325593449
13325598271
13325604436
13325611333
13325617619
13325622746
13325629033
13325634221
13325641118
13325646672
13325651127
13325658085
13325664006
13325671574
13325677006
13325683598
13325689274
13325696904
13325702885
13325710637
13325716557
13325721989
13325728459
13325732670
13325738774
13325742558
13325751530
13325755436
13325763554
13325768986
13325774662
13325778202
13325784306
13325790226
13325795292
13325800785
13325807438
13325812809
13325818974
13325823734
13325829044
13325834416
13325840092
13325846684
13325852787
13325858463
13325865116
13325870609
13325876835
13325881596
13325888920
13325895878
13325897953
13325906742
13325910526
13325919804
13325923710
13325931034
13325936527
13325942692
13325948673
13325956302
13325961429
13325967411
13325978519
13325985721
13325991459
13325998966
13326004398
13326011661
13326017215
13326023502
13326029056
13326035892
13326042301
13326047428
13326054325
13326060916
13326065799
13326073307
13326078311
13326084659
13326090030
13326095767
13326103824
13326108646
13326114261
13326121524
13326126895
13326132266
13326137454
13326144656
13326151248
13326158328
13326164127
13326169315
13326174381
13326181583
13326186649
13326193362
13326198245
13326206058
13326211124
13326217654
13326223086
13326228519
13326233829
13326240298
13326246768
13326253970
13326258853
13326266604
13326270755
13326278567
13326283572
13326289920
13326296451
13326303775
13326309817
13326318545
13326324343
13326330630
13326336734
13326343814
13326350161
13326356204
13326360476
13326365786
13326371035
13326375308
13326381777
13326387210
13326393679
13326398379
13326404605
13326409304
13326415896
13326419192
13326425295
13326430789
13326437563
13326442812
13326448550
13326452334
13326459597
13326463503
13326471682
13326475832
13326480715
13326486025
13326491701
13326497134
13326502749
13326507693
13326513369
13326518496
13326524050
13326529238
13326536989
13326542544
13326547610
13326552370
13326560000
13326565981
13326571169
13326577089
13326584169
13326589968
13326595156
13326601320
13326606325
13326612795
13326619753
13326625307
13326631105
13326636049
13326642092
13326650454
13326656557
13326663149
13326667971
13326674562
13326679079
13326685366
13326692446
13326698061
13326702760
13326708437
13326714174
13326722658
13326727480
13326732912
13326738893
13326745058
13326752260
13326757631
13326763185
13326770143
13326774843
13326779481
13326786989
13326792787
13326797975
13326803957
13326809511
13326818056
13326823183
13326829103
13326835695
13326840455
13326846132
13326850465
13326856019
13326860597
13326868837
13326874269
13326881227
13326888307
13326892701
13326900941
13326905397
13326912904
13326920533
13326927858
13326934877
13326939698
13326944886
13326950807
13326956239
13326962037
13326967286
13326974244
13326979249
13326986451
13326990296
13326998170
13327001588
13327007020
13327012025
13327017762
13327022950
13327029847
13327035767
13327040955
13327045655
13327050233
13327057923
13327063050
13327067567
13327074036
13327078919
13327086671
13327091187
13327097047
13327101624
13327108216
13327112733
13327116395
13327123963
13327131287
13327136170
13327139893
13327147217
13327154358
13327160340
13327165955
13327172303
13327178162
13327183594
13327191163
13327197205
13327202088
13327208558
13327213440
13327220398
13327225708
13327232239
13327238221
13327242066
13327248963
13327255310
13327260987
13327266541
13327273865
13327280335
13327286988
13327290650
13327297608
13327303101
13327309509
13327315613
13327320801
13327325440
13327332581
13327338196
13327343689
13327350159
13327356079
13327362061
13327364563
13327372681
13327377686
13327384888
13327388855
13327394470
13327400330
13327406860
13327412964
13327419311
13327424805
13327430664
13327436035
13327443847
13327449219
13327455810
13327468506
13327475769
13327480285
13327488159
13327494873
13327501465
13327506897
13327511963
13327521423
13327529052
13327533996
13327541320
13327547180
13327551696
13327559265
13327563293
13327571777
13327577941
13327583496
13327588439
13327595397
13327601440
13327605956
13327612670
13327618774
13327624084
13327629516
13327634277
13327639587
13327644103
13327653442
13327660033
13327664550
13327670959
13327678710
13327684264
13327690673
13327697509
13327704284
13327709716
13327714110
13327720092
13327724608
13327730407
13327735229
13327742003
13327749206
13327754638
13327759459
13327765319
13327770446
13327777038
13327781676
13327787047
13327792296
13327798888
13327803344
13327808410
13327814879
13327820128
13327825804
13327831359
13327838622
13327845153
13327851744
13327858702
13327864379
13327870787
13327876464
13327882933
13327889220
13327893675
13327900633
13327906737
13327912169
13327915831
13327921935
13327927489
13327932921
13327937193
13327943480
13327947813
13327956969
13327960875
13327968382
13327973814
13327978941
13327984190
13327987974
13327993346
13327997557
13328003538
13328009032
13328016844
13328022215
13328025877
13328034361
13328039915
13328045286
13328048704
13328057371
13328064390
13328068968
13328074339
13328079588
13328085630
13328092955
13328098265
13328103087
13328109190
13328115843
13328121031
13328128843
13328134397
13328138670
13328145201
13328149107
13328155027
13328161497
13328166929
13328172056
13328177610
13328184141
13328189207
13328195066
13328200254
13328205503
13328212095
13328217405
13328223753
13328228819
13328234922
13328241514
13328248716
13328254697
13328259763
13328265562
13328271726
13328278501
13328284544
13328289609
13328295652
13328301328
13328307615
13328312681
13328319028
13328323850
13328328367
13328336057
13328341245
13328346128
13328352109
13328360349
13328365232
13328371518
13328377256
13328382871
13328388425
13328393735
13328400388
13328405210
13328411863
13328416135
13328420041
13328427549
13328432187
13328438596
13328445127
13328449948
13328453549
13328460385
13328466123
13328473386
13328476926
13328483396
13328490048
13328495847
13328500852
13328507199
13328513303
13328518308
13328525205
13328531186
13328535581
13328543332
13328549191
13328556638
13328563229
13328570920
13328575436
13328583188
13328589169
13328594845
13328599911
13328604977
13328609555
13328616635
13328622433
13328627743
13328633908
13328638913
13328645566
13328653561
13328658810
13328663327
13328671078
13328675412
13328681881
13328688107
13328695797
13328701718
13328708249
13328713986
13328720150
13328727291
13328732479
13328734494
13328742184
13328748104
13328753048
13328759640
13328764584
13328770626
13328776119
13328780697
13328785824
13328789852
13328794796
13328797970
13328804379
13328807858
13328814877
13328821346
13328826473
13328830074
13328837338
13328841854
13328847836
13328853451
13328860226
13328863583
13328869991
13328875423
13328880978
13328887325
13328892208
13328897213
13328903744
13328908382
13328913021
13328917721
13328924434
13328929134
13328936214
13328941707
13328948116
13328954159
13328958736
13328964290
13328969967
13328976009
13328979976
13328989132
13328993343
13329000667
13329004207
13329011104
13329017147
13329023433
13329029842
13329036739
13329041866
13329049556
13329055233
13329060787
13329066402
13329071651
13329076045
13329080928
13329087398
13329093929
13329098567
13329103816
13329108028
13329113521
13329118892
13329124934
13329128413
13329136348
13329141963
13329150935
13329156856
13329163387
13329169063
13329176875
13329182063
13329188655
13329193416
13329199275
13329204707
13329209285
13329215816
13329223018
13329230159
13329236140
13329244258
13329249446
13329256282
13329261775
13329269038
13329275813
13329282405
13329289607
13329294612
13329300837
13329307307
13329313105
13329318721
13329324702
13329328181
13329335078
13329338496
13329346125
13329349482
13329357844
13329361262
13329369807
13329373774
13329380976
13329386530
13329391230
13329397334
13329404658
13329410639
13329417048
13329420527
13329427302
13329434504
13329440119
13329446711
13329453242
13329456965
13329463435
13329468012
13329473811
13329479426
13329485895
13329490656
13329495905
13329501154
13329508112
13329514094
13329519770
13329525385
13329531733
13329537592
13329544428
13329549616
13329556147
13329561457
13329566950
13329571955
13329578486
13329586176
13329592341
13329595942
13329603327
13329609064
13329614557
13329618769
13329625299
13329631647
13329637995
13329641535
13329647455
13329653253
13329657648
13329663751
13329668817
13329675470
13329680231
13329686273
13329690424
13329693842
13329700739
13329706903
13329712885
13329719904
13329725641
13329732477
13329739008
13329744012
13329750299
13329754694
13329761468
13329767816
13329774164
13329780023
13329785150
13329791925
13329797784
13329804803
13329810541
13329818170
13329822748
13329826593
13329835687
13329840387
13329848504
13329852411
13329860101
13329863641
13329870172
13329875848
13329882928
13329888726
13329894220
13329899408
13329905084
13329910821
13329916192
13329920709
13329928216
13329934198
13329939813
13329945123
13329950982
13329958062
13329964959
13329969659
13329975396
13329979669
13329985772
13329990777
13329994256
13330003655
13330009637
13330014398
13330018121
13330025567
13330029778
13330037835
13330041741
13330048760
13330052056
13330058221
13330063714
13330070550
13330076775
13330081414
13330088372
13330094353
13330099358
13330105279
13330112054
13330117119
13330123955
13330129143
13330136590
13330143181
13330150445
13330158623
13330163994
13330170342
13330175408
13330179863
13330186089
13330190789
13330197258
13330202080
13330208672
13330214714
13330219719
13330225396
13330230522
13330236565
13330240105
13330246819
13330253594
13330259514
13330264580
13330270989
13330275810
13330281731
13330287895
13330293511
13330301384
13330307549
13330312492
13330318901
13330324089
13330330437
13330334892
13330342094
13330347221
13330354118
13330362175
13330367485
13330372307
13330379692
13330384209
13330390678
13330398125
13330406792
13330411674
13330419609
13330427727
13330433281
13330438652
13330446464
13330453605
13330459099
13330464775
13330470695
13330476249
13330483268
13330487053
13330496696
13330499015
13330507743
13330511039
13330519950
13330524650
13330530082
13330534965
13330542411
13330547782
13330553886
13330560295
13330564994
13330571525
13330575431
13330581169
13330589103
13330593864
13330599845
13330605033
13330611747
13330618278
13330622672
13330628715
13330635246
13330640678
13330647880
13330654411
13330659476
13330663261
13330671989
13330676444
13330685905
13330690299
13330697623
13330703055
13330710807
13330717093
13330722648
13330728263
13330736075
13330742179
13330749869
13330755118
13330761466
13330766471
13330770865
13330778251
13330782401
13330789481
13330796256
13330801322
13330804679
13330812857
13330818473
13330823966
13330829276
13330835318
13330841056
13330849539
13330853812
13330862235
13330866141
13330872855
13330878409
13330886710
13330892325
13330898795
13330903250
13330911063
13330916922
13330921500
13330925040
13330935843
13330941336
13330947256
13330953299
13330958243
13330964041
13330970389
13330975760
13330981314
13330987967
13330992789
13330998587
13331003836
13331012198
13331017935
13331025992
13331032889
13331040762
13331046866
13331054617
13331059012
13331067373
13331071646
13331080557
13331084890
13331093435
13331099295
13331105398
13331108633
13331116445
13331121817
13331129507
13331135610
13331142141
13331148672
13331154898
13331160757
13331167044
13331172964
13331178152
13331182485
13331192129
13331195913
13331203115
13331208730
13331212881
13331217825
13331225027
13331230581
13331237112
13331241994
13331249014
13331254385
13331259084
13331265371
13331269826
13331278371
13331283864
13331288625
13331294729
13331300527
13331306447
13331313283
13331318227
13331324331
13331330251
13331336965
13331342824
13331347646
13331351247
13331358999
13331362539
13331370229
13331375051
13331383474
13331387624
13331395009
13331398610
13331405507
13331410634
13331416371
13331423085
13331429189
13331434072
13331440908
13331444203
13331451283
13331456594
13331460805
13331466359
13331473561
13331479360
13331485341
13331491994
13331496266
13331501576
13331507924
13331513783
13331519154
13331524709
13331529775
13331535207
13331541066
13331546376
13331553273
13331561391
13331568288
13331578053
13331584767
13331592946
13331600331
13331606312
13331613331
13331619069
13331624135
13331629262
13331634450
13331639638
13331644215
13331649891
13331655690
13331662281
13331668019
13331673695
13331678639
13331683888
13331688160
13331693959
13331699147
13331702504
13331707936
13331711903
13331716786
13331720570
13331726795
13331732228
13331737049
13331741261
13331746266
13331750538
13331755421
13331758839
13331765614
13331771595
13331777210
13331782398
13331788319
13331793263
13331798390
13331803639
13331808033
13331813709
13331819386
13331825001
13331830738
13331836048
13331840137
13331846790
13331851673
13331858875
13331863209
13331869373
13331873341
13331880054
13331886036
13331892139
13331897693
13331903675
13331908192
13331913990
13331919361
13331923878
13331929371
13331934742
13331941089
13331946827
13331953235
13331958728
13331964283
13331968982
13331974414
13331978931
13331985767
13331993274
13331997669
13332003833
13332008350
13332014637
13332020313
13332025257
13332031055
13332036304
13332043750
13332047351
13332055225
13332061695
13332066394
13332072070
13332078174
13332083728
13332089710
13332095386
13332101306
13332107105
13332113818
13332120166
13332126025
13332133228
13332139514
13332141528
13332150745
13332154102
13332162097
13332168140
13332174975
13332180102
13332187976
13332194690
13332200610
13332207202
13332214160
13332220630
13332226977
13332233508
13332239795
13332244433
13332249560
13332254321
13332259143
13332263903
13332270617
13332276965
13332281726
13332286975
13332292712
13332297412
13332301013
13332306811
13332313098
13332319384
13332323779
13332329394
13332345385
13332350512
13332356677
13332363207
13332368029
13332374987
13332380297
13332387499
13332392321
13332398180
13332403368
13332408617
13332413195
13332420214
13332425341
13332428881
13332437304
13332443774
13332450610
13332456469
13332461535
13332464892
13332472826
13332476305
13332482531
13332488146
13332494799
13332500963
13332506151
13332510973
13332517504
13332522875
13332528307
13332532885
13332540392
13332544726
13332551561
13332556566
13332562914
13332568712
13332574327
13332578844
13332585802
13332591722
13332595507
13332603197
13332607531
13332613695
13332619677
13332626512
13332631945
13332637621
13332643907
13332651110
13332656664
13332661730
13332667589
13332673082
13332677660
13332685289
13332691148
13332697984
13332702745
13332706529
13332713976
13332720445
13332725206
13332730394
13332737352
13332744310
13332751024
13332758104
13332764024
13332769884
13332776048
13332781908
13332789476
13332795213
13332803575
13332809862
13332814683
13332821275
13332827684
13332832933
13332836900
13332845567
13332851487
13332857957
13332861558
13332868272
13332873643
13332878465
13332884874
13332890367
13332895921
13332902269
13332907701
13332914415
13332919908
13332925523
13332930284
13332935716
13332940843
13332946275
13332951280
13332957017
13332962144
13332969712
13332974534
13332979905
13332984971
13332992539
13332999558
13333005296
13333009873
13333013657
13333020921
13333026963
13333032456
13333036301
13333043870
13333047593
13333054917
13333061448
13333066880
13333071458
13333076951
13333082810
13333090378
13333097092
13333103013
13333107651
13333113389
13333120652
13333124497
13333131394
13333137314
13333143052
13333148423
13333154099
13333159409
13333165818
13333171067
13333176804
13333184372
13333190598
13333196579
13333207688
13333212937
13333218552
13333224594
13333232224
13333238449
13333243759
13333249130
13333255417
13333260361
13333266098
13333272263
13333278305
13333285141
13333287644
13333295883
13333299728
13333306564
13333312424
13333318588
13333323898
13333329941
13333335922
13333341598
13333347458
13333353867
13333358261
13333364487
13333371261
13333379928
13333387253
13333393478
13333400925
13333409225
13333416916
13333423935
13333430771
13333435165
13333439743
13333444809
13333448410
13333453476
13333460128
13333465316
13333469650
13333476059
13333482101
13333487655
13333493454
13333499374
13333505722
13333511703
13333518661
13333525558
13333530746
13333535751
13333543563
13333546859
13333555343
13333559310
13333567611
13333574203
13333578536
13333584518
13333589767
13333595992
13333600814
13333607040
13333611922
13333617416
13333622421
13333630111
13333636459
13333642440
13333647506
13333652572
13333659347
13333665328
13333669967
13333673507
13333682418
13333686996
13333695479
13333700912
13333705123
13333708480
13333716475
13333720504
13333726180
13333731978
13333738753
13333742049
13333749007
13333752730
13333759505
13333764693
13333770858
13333777205
13333784346
13333789229
13333794234
13333798629
13333805037
13333809615
13333817488
13333822859
13333829756
13333834334
13333839583
13333845626
13333852156
13333856490
13333859969
13333868636
13333872786
13333881209
13333884932
13333891768
13333896712
13333902083
13333907149
13333913008
13333920332
13333925703
13333933028
13333939131
13333944258
13333951765
13333957075
13333962874
13333971663
13333977766
13333983931
13333989546
13333997420
13334003767
13334009199
13334017866
13334026777
13334032576
13334035872
13334042402
13334047712
13334052839
13334058088
13334064802
13334070784
13334077070
13334081587
13334087385
13334093061
13334099348
13334106184
13334111006
13334119856
13334124189
13334127973
13334135176
13334140913
13334148664
13334154402
13334161848
13334167829
13334174116
13334179670
13334185407
13334191450
13334196088
13334202497
13334207258
13334214460
13334219465
13334224592
13334230329
13334235578
13334241376
13334246442
13334253461
13334259016
13334263532
13334269819
13334274396
13334279706
13334285688
13334291120
13334296613
13334302472
13334307416
13334314435
13334319562
13334325361
13334332013
13334337812
13334344770
13334352216
13334357831
13334364118
13334369245
13334376081
13334381208
13334388105
13334394147
13334401288
13334406354
13334412152
13334417523
13334424237
13334429120
13334434979
13334441510
13334449018
13334454022
13334459760
13334464826
13334471295
13334476239
13334482709
13334487897
13334494977
13334500165
13334506268
13334512189
13334517438
13334523114
13334529095
13334536542
13334544049
13334549664
13334555768
13334561566
13334568219
13334573407
13334581280
13334589032
13334594281
13334599347
13334605206
13334610089
13334615277
13334620404
13334626385
13334633221
13334637677
13334643170
13334648541
13334654400
13334659710
13334664410
13334670575
13334677166
13334682049
13334688641
13334694378
13334699261
13334705487
13334711102
13334716351
13334723004
13334729412
13334734722
13334740643
13334745526
13334751385
13334756329
13334763043
13334770550
13334776959
13334782269
13334788189
13334792767
13334798565
13334804058
13334810223
13334816875
13334821880
13334825298
13334833965
13334839764
13334845562
13334849102
13334856243
13334862224
13334868633
13334872051
13334880047
13334883648
13334890667
13334895794
13334902569
13334908794
13334915325
13334918804
13334927166
13334932964
13334939129
13334942730
13334950725
13334957561
13334963543
13334968914
13334974956
13334979534
13334986126
13334989666
13334998027
13335003337
13335011455
13335015056
13335023052
13335026531
13335033061
13335037944
13335045391
13335051616
13335057842
13335061504
13335068523
13335074199
13335079631
13335084758
13335090373
13335096538
13335104228
13335110088
13335117900
13335121501
13335129863
13335135478
13335141154
13335147258
13335155925
13335160441
13335168132
13335173869
13335180217
13335186015
13335192851
13335198344
13335204936
13335209941
13335216289
13335221232
13335226481
13335233073
13335239116
13335244426
13335250895
13335255900
13335263469
13335268534
13335273845
13335280192
13335285624
13335291239
13335297709
13335304362
13335308940
13335315837
13335321269
13335327555
13335334025
13335340800
13335347636
13335352702
13335357951
13335364298
13335368937
13335375163
13335380167
13335386881
13335394694
13335398234
13335405436
13335409037
13335418192
13335423380
13335429362
13335436198
13335442911
13335448099
13335455302
13335460978
13335465922
13335470927
13335477213
13335482523
13335489176
13335494120
13335501505
13335506571
13335511454
13335517740
13335522562
13335529581
13335535563
13335540384
13335547098
13335552164
13335558268
13335563334
13335569376
13335574869
13335581705
13335586771
13335592325
13335596781
13335603800
13335611368
13335616983
13335623514
13335630472
13335635721
13335641336
13335646158
13335652262
13335658426
13335663553
13335672708
13335677713
13335684061
13335689127
13335693948
13335700906
13335706277
13335716043
13335721353
13335729349
13335734720
13335741067
13335747842
13335753946
13335760965
13335767801
13335773416
13335781961
13335787027
13335794107
13335798501
13335804971
13335809366
13335816324
13335821451
13335827432
13335833719
13335839212
13335845315
13335851968
13335856607
13335864053
13335869180
13335876687
13335881570
13335888406
13335894326
13335900186
13335904702
13335911416
13335916055
13335922586
13335928811
13335934426
13335938943
13335944863
13335951089
13335954507
13335962319
13335970864
13335975808
13335979653
13335987832
13335992104
13335998208
13336001626
13336012307
13336018044
13336024392
13336029824
13336035622
13336041177
13336046059
13336052651
13336057717
13336064614
13336071023
13336076760
13336082802
13336087502
13336093667
13336097817
13336107216
13336113686
13336119973
13336125588
13336130227
13336135903
13336141823
13336145241
13336154091
13336157753
13336166298
13336170510
13336177529
13336180947
13336189186
13336192604
13336201210
13336207436
13336213845
13336220680
13336226540
13336230812
13336236550
13336242531
13336247353
13336253578
13336260536
13336264015
13336272621
13336276161
13336283913
13336287392
13336294350
13336301369
13336308693
13336312599
13336321022
13336327187
13336333534
13336338844
13336345497
13336352516
13336360023
13336366554
13336371254
13336377296
13336384620
13336390541
13336398109
13336402138
13336410133
13336415260
13336421913
13336426918
13336433387
13336438881
13336444130
13336450721
13336456825
13336461952
13336468177
13336473243
13336479835
13336484779
13336491066
13336496315
13336504920
13336508399
13336516395
13336522621
13336528602
13336532142
13336538307
13336546241
13336552467
13336556129
13336562843
13336568153
13336575050
13336580726
13336586890
13336591346
13336599403
13336603248
13336610633
13336614295
13336621131
13336626319
13336633460
13336641029
13336645667
13336649268
13336657325
13336660987
13336668311
13336674415
13336679175
13336686011
13336691810
13336695655
13336702674
13336708594
13336716468
13336722144
13336727454
13336733924
13336739234
13336745826
13336751502
13336756873
13336763099
13336768103
13336774756
13336779578
13336785681
13336793006
13336799170
13336803992
13336810034
13336814734
13336820960
13336828833
13336834082
13336841773
13336848242
13336853491
13336860571
13336866309
13336870764
13336879492
13336887061
13336894690
13336901953
13336909399
13336917090
13336924841
13336933142
13336939795
13336954199
13336965430
13336972510
13336979284
13336989050
13336997717
13337007116
13337015600
13337025183
13337033300
13337042578
13337049109
13337053808
13337062902
13337069677
13337076086
13337082312
13337088659
13337092199
13337100927
13337107092
13337113134
13337116735
13337123205
13337128088
13337134191
13337140783
13337148535
13337154394
13337158849
13337163671
13337170446
13337176428
13337183080
13337186620
13337194616
13337197912
13337205907
13337211584
13337216894
13337222204
13337228185
13337236425
13337241247
13337246557
13337253881
13337257604
13337264562
13337269323
13337276037
13337282201
13337287755
13337292638
13337299779
13337303197
13337311010
13337316381
13337321935
13337327306
13337334264
13337339147
13337345189
13337350194
13337357152
13337362462
13337368627
13337375585
13337382970
13337386449
13337394200
13337400121
13337405126
13337410253
13337416478
13337422277
13337428624
13337433751
13337441075
13337446691
13337453893
13337460057
13337467809
13337475133
13337483434
13337490270
13337498936
13337505833
13337510960
13337520909
13337528477
13337535863
13337544285
13337552037
13337558568
13337568577
13337575596
13337583531
13337590306
13337596165
13337607090
13337616368
13337623143
13337630589
13337636204
13337648533
13337657322
13337665013
13337673130
13337679905
13337689915
13337699314
13337707737
13337715183
13337721836
13337731785
13337738438
13337743076
13337753086
13337763096
13337768467
13337773106
13337780186
13337784946
13337790928
13337796909
13337804417
13337810886
13337817112
13337822483
13337828709
13337833225
13337839329
13337846043
13337850864
13337857883
13337862766
13337869541
13337874058
13337880466
13337886509
13337892185
13337899082
13337906101
13337911045
13337917942
13337923923
13337929233
13337935093
13337939548
13337945652
13337952304
13337957248
13337963840
13337969577
13337974887
13337981418
13337986118
13337992038
13337998508
13338005344
13338010349
13338016147
13338019626
13338026889
13338030307
13338039157
13338046237
13338050998
13338057834
13338063876
13338069797
13338075900
13338080661
13338087192
13338094577
13338100986
13338105869
13338111667
13338117221
13338123080
13338129184
13338134616
13338141940
13338148776
13338154208
13338160922
13338164889
13338172153
13338177585
13338184665
13338193026
13338198092
13338204989
13338210360
13338215793
13338221896
13338227389
13338235080
13338241977
13338249057
13338254428
13338260226
13338265536
13338273349
13338278292
13338285861
13338291232
13338299166
13338304354
13338312533
13338317416
13338325106
13338330172
13338338595
13338345004
13338352389
13338357455
13338364230
13338370028
13338375826
13338381869
13338387484
13338394198
13338400423
13338405367
13338412081
13338416598
13338422701
13338429415
13338435152
13338440829
13338447665
13338454623
13338459383
13338466036
13338472384
13338477083
13338483309
13338491366
13338499117
13338504793
13338511019
13338515780
13338521212
13338528963
13338531343
13338540499
13338545198
13338553194
13338558992
13338565889
13338570101
13338577425
13338582674
13338589022
13338595247
13338601229
13338606417
13338613130
13338618807
13338622713
13338628694
13338634920
13338641939
13338646028
13338653169
13338658357
13338663179
13338668489
13338674959
13338679659
13338683687
13338692049
13338697908
13338702913
13338708589
13338714021
13338720674
13338725923
13338732088
13338738740
13338744966
13338750825
13338757722
13338763704
13338769319
13338775056
13338780794
13338788667
13338797334
13338801240
13338808076
13338813813
13338818635
13338824922
13338830293
13338834748
13338843293
13338848542
13338855073
13338861238
13338866792
13338870698
13338878694
13338885713
13338890473
13338894197
13338902925
13338909394
13338917329
13338921845
13338929292
13338935883
13338941377
13338947663
13338955659
13338961396
13338967683
13338973298
13338980439
13338987519
13338992341
13338998505
13339002961
13339009980
13339014191
13339020661
13339025788
13339031708
13339038544
13339046113
13339051301
13339056000
13339061249
13339069489
13339074250
13339080231
13339086823
13339091584
13339096833
13339104523
13339109772
13339113617
13339120270
13339126435
13339132843
13339140595
13339148590
13339153900
13339159027
13339164948
13339172150
13339177887
13339183014
13339187958
13339194123
13339200531
13339202667
13339212921
13339216828
13339224030
13339227936
13339235138
13339241058
13339246857
13339252045
13339258698
13339263947
13339270844
13339275665
13339281342
13339288239
13339293732
13339298492
13339302093
13339311066
13339315582
13339325043
13339329193
13339337189
13339343475
13339349335
13339356232
13339360992
13339366180
13339372040
13339379669
13339384369
13339391815
13339396515
13339401275
13339407623
13339414520
13339419952
13339425933
13339430511
13339437957
13339443023
13339448516
13339452850
13339461517
13339465484
13339471649
13339477569
13339484283
13339490631
13339496734
13339502105
13339508514
13339514495
13339520599
13339525909
13339533599
13339542449
13339548858
13339556121
13339562042
13339569610
13339576873
13339583221
13339590789
13339596221
13339603118
13339609466
13339617400
13339622405
13339628203
13339633208
13339640044
13339646148
13339649993
13339657500
13339661345
13339668365
13339674224
13339680938
13339686065
13339692351
13339697112
13339703215
13339708465
13339715239
13339721160
13339728423
13339735137
13339739470
13339748748
13339755034
13339759978
13339766997
13339772795
13339779265
13339784087
13339789702
13339795195
13339801787
13339808745
13339813933
13339820403
13339825591
13339830840
13339835967
13339843413
13339849394
13339856352
13339861052
13339866667
13339873564
13339879424
13339886565
13339891264
13339899077
13339903715
13339911772
13339918120
13339925627
13339930754
13339938078
13339945158
13339951201
13339959196
13339964201
13339973295
13339978911
13339985991
13339993010
13339999235
13340004118
13340007902
13340017973
13340021635
13340028898
13340032377
13340038847
13340044096
13340050383
13340058195
13340064238
13340070341
13340076567
13340081755
13340087736
13340093290
13340100004
13340105924
13340112089
13340117338
13340121000
13340130522
13340134794
13340140897
13340149320
13340154203
13340159635
13340166288
13340171171
13340178373
13340184415
13340191679
13340197782
13340204252
13340210538
13340216703
13340222867
13340229337
13340234464
13340242399
13340248563
13340255216
13340261991
13340267667
13340273527
13340278470
13340284147
13340290189
13340296537
13340300077
13340308378
13340312162
13340319913
13340326566
13340331449
13340336759
13340343717
13340351041
13340359159
13340364652
13340372037
13340376859
13340383695
13340388944
13340395780
13340402799
13340409696
13340415006
13340421109
13340427945
13340434720
13340440457
13340446195
13340451077
13340454862
13340465176
13340469266
13340477689
13340481168
13340488431
13340494473
13340501553
13340505582
13340513516
13340520413
13340527249
13340530606
13340537564
13340542752
13340549771
13340554593
13340559781
13340565945
13340574429
13340577786
13340584256
13340589383
13340596219
13340600857
13340607632
13340612576
13340618985
13340623684
13340630215
13340635647
13340642788
13340648281
13340653286
13340660305
13340665371
13340670132
13340677578
13340682522
13340688565
13340695095
13340699856
13340705960
13340710232
13340718228
13340722744
13340729702
13340733059
13340740261
13340745388
13340752285
13340760159
13340766689
13340771755
13340778713
13340784878
13340790310
13340795132
13340801968
13340808376
13340814724
13340821133
13340827541
13340833767
13340839687
13340845608
13340852260
13340858425
13340865261
13340871364
13340879543
13340884487
13340890773
13340896084
13340901088
13340907558
13340913051
13340917995
13340922878
13340928615
13340934414
13340939174
13340944484
13340950832
13340956691
13340961574
13340968471
13340975673
13340980495
13340985317
13340993129
13340998134
13341003627
13341009914
13341015224
13341021449
13341026943
13341032680
13341037319
13341043605
13341050746
13341055629
13341062282
13341068263
13341071864
13341078822
13341084621
13341089870
13341096767
13341102870
13341108058
13341114589
13341119960
13341125453
13341132228
13341137416
13341143214
13341150050
13341154933
13341160853
13341166713
13341172450
13341179042
13341184535
13341190944
13341197413
13341202174
13341205653
13341212977
13341217677
13341226405
13341231349
13341236476
13341242091
13341249476
13341254969
13341261195
13341266688
13341274195
13341278895
13341285304
13341289942
13341296778
13341301783
13341308253
13341314723
13341319605
13341325343
13341329798
13341338099
13341343470
13341349818
13341355128
13341360072
13341366236
13341372034
13341375513
13341382227
13341387720
13341395472
13341398951
13341407435
13341412134
13341419215
13341424830
13341434778
13341441859
13341446924
13341453333
13341458460
13341465174
13341471033
13341477137
13341484766
13341491358
13341496546
13341502039
13341508448
13341513392
13341519556
13341525049
13341530298
13341537134
13341542994
13341547571
13341554163
13341559412
13341566492
13341571375
13341577234
13341583277
13341589075
13341595300
13341597254
13341605737
13341609522
13341615991
13341620203
13341626978
13341632410
13341639551
13341643335
13341650659
13341655481
13341662317
13341667322
13341672754
13341679529
13341684656
13341689416
13341696191
13341700586
13341707056
13341713647
13341719079
13341725122
13341730310
13341736474
13341741052
13341746789
13341753442
13341758142
13341763757
13341770715
13341777734
13341782556
13341788537
13341795251
13341799218
13341805749
13341810632
13341817163
13341822595
13341828820
13341833886
13341840905
13341845849
13341852319
13341857446
13341863244
13341870019
13341876000
13341881127
13341888330
13341892968
13341900109
13341904870
13341910302
13341915307
13341922814
13341928063
13341935632
13341940148
13341944482
13341951928
13341958764
13341965722
13341971215
13341977624
13341983788
13341989342
13341996606
13342001672
13342008019
13342016015
13342024193
13342030785
13342037987
13342044396
13342052453
13342058861
13342068505
13342074425
13342080407
13342087059
13342092431
13342098107
13342104271
13342109459
13342116478
13342121910
13342125939
13342131493
13342136925
13342141808
13342147362
13342152977
13342157372
13342164574
13342169091
13342174706
13342180077
13342185265
13342189781
13342195336
13342201439
13342207176
13342211876
13342218102
13342222374
13342228294
13342234764
13342240135
13342246300
13342252525
13342257347
13342260765
13342269066
13342272545
13342279503
13342284508
13342292442
13342297264
13342303429
13342308922
13342316246
13342321800
13342326256
13342331749
13342337608
13342344322
13342351341
13342354881
13342362999
13342369163
13342374229
13342379234
13342387230
13342392357
13342399070
13342404869
13342409019
13342416038
13342420677
13342426658
13342431358
13342438316
13342444603
13342449607
13342454978
13342460227
13342464439
13342470298
13342476890
13342482261
13342487937
13342494712
13342499534
13342505088
13342510032
13342518028
13342525840
13342532981
13342540244
13342546531
13342551780
13342558250
13342564353
13342570274
13342574485
13342583396
13342589744
13342596580
13342601829
13342610007
13342615562
13342624167
13342633445
13342640159
13342644736
13342652060
13342658347
13342664023
13342670493
13342677634
13342683982
13342689902
13342696128
13342701621
13342706870
13342712973
13342717307
13342723655
13342728965
13342736899
13342743308
13342749167
13342755454
13342757346
13342765708
13342769126
13342777304
13342781699
13342789633
13342794089
13342801840
13342806723
13342812216
13342816733
13342823752
13342829062
13342836997
13342841269
13342846823
13342852683
13342857932
13342864035
13342868918
13342875021
13342882407
13342887167
13342890890
13342897971
13342904623
13342909811
13342915243
13342923117
13342926779
13342935080
13342940512
13342945334
13342950339
13342957602
13342962790
13342968283
13342974325
13342980490
13342984823
13342991964
13342998739
13343004049
13343008932
13343015402
13343020102
13343026205
13343032492
13343037313
13343043295
13343049887
13343054525
13343061666
13343066854
13343075399
13343080099
13343083517
13343091512
13343095175
13343103842
13343107198
13343114156
13343120382
13343126974
13343130941
13343136373
13343143148
13343149435
13343155050
13343161398
13343169515
13343175314
13343182088
13343188436
13343195333
13343201192
13343206319
13343213338
13343221639
13343227010
13343234517
13343239522
13343245992
13343252950
13343257955
13343265218
13343269002
13343278890
13343282918
13343291707
13343298299
13343303609
13343309224
13343315084
13343324239
13343329976
13343334676
13343341085
13343346578
13343352071
13343358480
13343363729
13343369039
13343375264
13343381490
13343385823
13343392293
13343398091
13343402425
13343409993
13343416097
13343422200
13343429280
13343433980
13343439839
13343445271
13343452290
13343456746
13343462910
13343469319
13343474324
13343480000
13343484456
13343489827
13343497090
13343501912
13343508076
13343513997
13343520161
13343525654
13343531880
13343536824
13343542134
13343548787
13343553670
13343560811
13343566121
13343572590
13343578145
13343582539
13343589253
13343593647
13343596943
13343606404
13343611409
13343617634
13343622151
13343627949
13343634236
13343641804
13343649006
13343655842
13343662190
13343668476
13343674458
13343679646
13343683003
13343690937
13343696797
13343701985
13343708820
13343716084
13343721577
13343727863
13343733906
13343740131
13343745564
13343753803
13343760761
13343767963
13343772785
13343777424
13343784016
13343789509
13343794697
13343799824
13343808613
13343812275
13343819965
13343826679
13343831196
13343838032
13343845051
13343851642
13343858051
13343862812
13343870624
13343877399
13343884052
13343890278
13343897907
13343904560
13343909748
13343915424
13343922077
13343927021
13343932819
13343939472
13343945148
13343949787
13343956195
13343963214
13343969867
13343975116
13343980121
13343986713
13343992633
13343997882
13344003192
13344009113
13344016071
13344020953
13344027057
13344033099
13344038715
13344042682
13344050067
13344054279
13344060748
13344066669
13344073688
13344079486
13344085345
13344090472
13344097674
13344103656
13344109271
13344113910
13344117694
13344126971
13344132525
13344137469
13344141376
13344150592
13344154437
13344162311
13344165973
13344174151
13344177752
13344185138
13344190997
13344197284
13344203143
13344210955
13344216204
13344222186
13344227252
13344233477
13344239642
13344244891
13344250262
13344254168
13344263323
13344267169
13344273760
13344279132
13344285723
13344291583
13344297381
13344303729
13344309710
13344314044
13344320086
13344326983
13344332354
13344337054
13344340838
13344352374
13344357500
13344362749
13344366412
13344375567
13344379351
13344386309
13344392901
13344399798
13344406206
13344411639
13344418108
13344423296
13344428240
13344435015
13344442156
13344447588
13344454302
13344459978
13344466814
13344473772
13344479570
13344485979
13344490923
13344495562
13344505510
13344510149
13344519121
13344523210
13344531267
13344536943
13344544451
13344548784
13344554644
13344559404
13344565203
13344570696
13344575762
13344582414
13344587847
13344594316
13344598772
13344606889
13344612077
13344616960
13344623674
13344629228
13344635515
13344640276
13344645830
13344651933
13344658647
13344668413
13344673784
13344684953
13344691911
13344703020
13344708024
13344722063
13344731645
13344740617
13344750749
13344760942
13344769304
13344777971
13344784806
13344792619
13344800492
13344807817
13344815629
13344825151
13344832719
13344839799
13344846574
13344855180
13344863481
13344871659
13344880448
13344887895
13344894792
13344905229
13344912614
13344921586
13344928971
13344938310
13344945878
13344952225
13344962601
13344970292
13344978287
13344987687
13344995927
13345004594
13345011063
13345021500
13345029923
13345037797
13345044449
13345052384
13345060868
13345066971
13345075638
13345084671
13345092850
13345099503
13345109024
13345116410
13345126419
13345134598
13345143387
13345148819
13345161820
13345170853
13345177933
13345189102
13345198502
13345206497
13345216324
13345223892
13345231888
13345242508
13345252518
13345261124
13345269607
13345278397
13345287125
13345293045
13345303116
13345310135
13345318741
13345325393
13345335464
13345344070
13345351883
13345359573
13345369217
13345377212
13345387283
13345396621
13345404373
13345413284
13345421585
13345428115
13345432632
13345444046
13345452285
13345459976
13345469009
13345476089
13345483657
13345493484
13345502212
13345508071
13345516189
13345525222
13345533218
13345541396
13345549880
13345557632
13345565505
13345573440
13345582229
13345589309
13345597732
13345605361
13345612990
13345620803
13345627395
13345636794
13345641433
13345652846
13345661330
13345669326
13345677749
13345685622
13345693129
13345701064
13345708632
13345716445
13345724318
13345730300
13345739760
13345745925
13345754470
13345763014
13345769789
13345778395
13345786574
13345792555
13345802870
13345809340
13345816908
13345825880
13345834120
13345840773
13345850356
13345856947
13345866713
13345874770
