13185580746
13185586300
13185591916
13185597897
13185603024
13185608090
13185613278
13185618832
13185624569
13185630246
13185634945
13185640805
13185646542
13185652462
13185658139
13185664425
13185671688
13185677792
13185682370
13185690365
13185696896
13185702267
13185708554
13185717648
13185725949
13185732174
13185738766
13185746273
13185752926
13185758785
13185766415
13185772823
13185778072
13185785702
13185791866
13185799740
13185806149
13185813045
13185821285
13185831051
13185838985
13185847164
13185855526
13185861202
13185868770
13185873958
13185880062
13185885189
13185891231
13185896724
13185901302
13185906673
13185911861
13185917049
13185923214
13185928280
13185934444
13185939571
13185945369
13185955684
13185962886
13185971920
13185979488
13185988277
13185994197
13185999568
13186004817
13186010677
13186013851
13186017818
13186022273
13186027767
13186031917
13186036006
13186040523
13186045406
13186049800
13186055415
13186059871
13186066341
13186070613
13186075801
13186079341
13186084590
13186088985
13186093929
13186098323
13186103023
13186107539
13186110591
13186115596
13186121150
13186127254
13186132869
13186137019
13186143611
13186148067
13186153987
13186158748
13186164119
13186168819
13186174861
13186178279
13186182246
13186186152
13186191707
13186195491
13186202632
13186209834
13186215999
13186225764
13186231013
13186240413
13186247065
13186253413
13186260005
13186267451
13186272578
13186280146
13186286006
13186292292
13186299372
13186304072
13186311091
13186315913
13186322627
13186330439
13186336299
13186343684
13186350337
13186354853
13186359614
13186364436
13186369196
13186373591
13186379572
13186384089
13186387324
13186396052
13186401362
13186408442
13186413325
13186419367
13186426203
13186432429
13186437495
13186443110
13186448420
13186451777
13186458613
13186463068
13186467707
13186472590
13186478571
13186483393
13186488825
13186493647
13186497675
13186502131
13186507319
13186512385
13186517267
13186523310
13186527399
13186531977
13186536371
13186540644
13186546381
13186551020
13186556208
13186561396
13186565668
13186571283
13186580866
13186588251
13186594110
13186603754
13186611444
13186619928
13186625727
13186633051
13186641107
13186647089
13186652826
13186661371
13186669122
13186674249
13186682733
13186691156
13186698480
13186705988
13186713800
13186721979
13186727899
13186736383
13186743646
13186752069
13186758905
13186767084
13186772760
13186777154
13186782953
13186789056
13186797418
13186803277
13186808893
13186814264
13186820550
13186825677
13186831842
13186837640
13186844537
13186849786
13186855096
13186859002
13186865777
13186870843
13186877679
13186883660
13186890008
13186897271
13186902459
13186907098
13186913507
13186919549
13186925591
13186930840
13186935601
13186941522
13186946771
13186951775
13186958611
13186965081
13186972161
13186975823
13186983514
13186990411
13187000054
13187004693
13187013116
13187017632
13187025445
13187031426
13187036675
13187040948
13187046136
13187051934
13187057793
13187063286
13187069085
13187077080
13187084832
13187092766
13187099297
13187106865
13187115471
13187120842
13187128777
13187135552
13187142205
13187151909
13187158989
13187166924
13187174614
13187182366
13187186516
13187199211
13187206963
13187214958
13187223808
13187231682
13187238335
13187249443
13187262077
13187269646
13187275078
13187281120
13187286980
13187292168
13187295769
13187300407
13187305656
13187311821
13187316948
13187322075
13187326652
13187330742
13187337089
13187340202
13187345390
13187350578
13187356132
13187361137
13187366203
13187373039
13187379204
13187385124
13187391594
13187397026
13187402214
13187406242
13187411247
13187417350
13187422111
13187427910
13187432975
13187438591
13187442985
13187447258
13187454460
13187458732
13187464225
13187468742
13187475151
13187480400
13187485527
13187490470
13187495780
13187501274
13187505851
13187511283
13187517631
13187521659
13187528190
13187532585
13187537467
13187546134
13187552909
13187561576
13187567558
13187576103
13187586906
13187593986
13187601249
13187613090
13187621268
13187630607
13187637992
13187647269
13187661429
13187668571
13187676017
13187682120
13187691459
13187697501
13187703666
13187712333
13187719535
13187725150
13187732352
13187738761
13187746634
13187750541
13187755667
13187764701
13187773368
13187779410
13187783622
13187791190
13187799063
13187802603
13187807303
13187814810
13187817557
13187824576
13187829398
13187834464
13187841055
13187846671
13187852042
13187856436
13187861075
13187865347
13187869376
13187873648
13187878470
13187884940
13187890921
13187896109
13187900626
13187905203
13187910818
13187916678
13187920584
13187926077
13187933462
13187940298
13187945608
13187950308
13187955557
13187961477
13187966116
13187971976
13187977652
13187983633
13187989859
13187995535
13187999930
13188005484
13188008474
13188019095
13188026785
13188031851
13188042105
13188050894
13188057608
13188066275
13188072439
13188080313
13188089651
13188098196
13188107778
13188113272
13188122671
13188129385
13188138052
13188144155
13188151235
13188158315
13188166006
13188172353
13188182912
13188184988
13188195669
13188204641
13188210744
13188219045
13188224416
13188230337
13188235647
13188241384
13188247732
13188253896
13188261526
13188268789
13188276174
13188280263
13188289296
13188293630
13188299978
13188304677
13188308217
13188313833
13188319082
13188324331
13188328969
13188336538
13188339894
13188345876
13188350637
13188356374
13188361318
13188368032
13188373952
13188379384
13188384511
13188389455
13188394826
13188399892
13188406179
13188411611
13188415273
13188421376
13188427602
13188433217
13188437734
13188442494
13188447011
13188452748
13188455434
13188461781
13188469960
13188476064
13188481374
13188491566
13188498647
13188505971
13188515065
13188522511
13188531117
13188537709
13188544484
13188553883
13188560109
13188568959
13188574452
13188583973
13188590199
13188599415
13188605946
13188615712
13188622426
13188631825
13188638356
13188647694
13188655201
13188661061
13188668019
13188677113
13188682972
13188687794
13188692311
13188698719
13188703724
13188710133
13188714039
13188720753
13188724415
13188729420
13188735829
13188741932
13188746327
13188750538
13188756641
13188761036
13188766590
13188771107
13188777149
13188783680
13188789967
13188796314
13188801441
13188807056
13188813465
13188819263
13188823841
13188833851
13188839893
13188846851
13188855030
13188859485
13188866688
13188873829
13188879932
13188888599
13188893665
13188899036
13188904712
13188909290
13188915332
13188920643
13188925159
13188930286
13188935047
13188941394
13188946765
13188951343
13188956531
13188964649
13188971179
13188978992
13188984790
13188994861
13189001026
13189009754
13189016467
13189024585
13189033008
13189039539
13189049854
13189055347
13189066089
13189071643
13189079761
13189086902
13189095264
13189104968
13189113086
13189117480
13189127429
13189136096
13189141223
13189150317
13189158374
13189165515
13189173205
13189178454
13189183703
13189189685
13189194446
13189200122
13189205920
13189211718
13189216296
13189221301
13189225940
13189231189
13189236926
13189242297
13189248462
13189254687
13189259875
13189265612
13189270556
13189274646
13189280566
13189285388
13189290881
13189296618
13189301806
13189306384
13189313586
13189317980
13189323046
13189328906
13189335070
13189342150
13189346606
13189355090
13189361254
13189367663
13189373827
13189380236
13189383410
13189392504
13189397692
13189403979
13189409838
13189415819
13189422411
13189428271
13189432482
13189438647
13189446276
13189450487
13189455981
13189463183
13189472033
13189482409
13189487780
13189499682
13189506945
13189517260
13189524401
13189533373
13189541857
13189550768
13189559923
13189566027
13189576403
13189583422
13189591783
13189599474
13189607469
13189614366
13189622606
13189629564
13189638170
13189644762
13189651903
13189661424
13189669908
13189677110
13189684190
13189691454
13189697374
13189702684
13189707811
13189713304
13189719224
13189724046
13189729417
13189735765
13189740159
13189745714
13189752366
13189757371
13189762437
13189768419
13189775438
13189779527
13189787523
13189791856
13189797105
13189803636
13189808946
13189812669
13189819627
13189826341
13189830796
13189836351
13189843003
13189850389
13189855760
13189860826
13189867967
13189872361
13189878709
13189884202
13189890977
13189897264
13189903062
13189909287
13189912827
13189918992
13189925767
13189932664
13189938340
13189944749
13189950120
13189955979
13189959153
13189966111
13189968980
13189978318
13189984971
13189992905
13189998338
13190010239
13190018296
13190027451
13190034653
13190043931
13190051072
13190058762
13190069138
13190076401
13190084458
13190092515
13190100632
13190107590
13190117905
13190125046
13190133347
13190139939
13190149765
13190156784
13190164292
13190173142
13190180527
13190186753
13190194992
13190202561
13190212265
13190218674
13190226975
13190237656
13190247543
13190254257
13190261948
13190267197
13190273972
13190278488
13190283493
13190289169
13190295761
13190300522
13190305588
13190312118
13190317612
13190320785
13190327438
13190331467
13190337082
13190342331
13190348800
13190353683
13190360214
13190366623
13190371689
13190375351
13190381271
13190387924
13190393051
13190397445
13190404037
13190409591
13190413742
13190420272
13190423629
13190431320
13190434860
13190440414
13190446884
13190451034
13190455917
13190462204
13190467636
13190473556
13190481124
13190487533
13190492782
13190499557
13190505172
13190514877
13190521285
13190529586
13190538497
13190546493
13190553024
13190560348
13190566940
13190574752
13190580611
13190587203
13190597701
13190606856
13190615584
13190623946
13190632186
13190640304
13190644637
13190654525
13190661361
13190670577
13190677047
13190684371
13190694381
13190701217
13190706771
13190711959
13190717513
13190724471
13190730941
13190736983
13190742232
13190747115
13190754256
13190757552
13190764449
13190769942
13190775252
13190783858
13190793318
13190800154
13190804732
13190810958
13190817488
13190823897
13190828169
13190835738
13190840804
13190847884
13190855574
13190861311
13190866866
13190874861
13190881514
13190888960
13190894820
13190900984
13190906599
13190911360
13190917280
13190925215
13190929854
13190935103
13190939009
13190944990
13190951521
13190955610
13190962446
13190965925
13190972151
13190978621
13190982161
13190986738
13190991377
13190998518
13191003950
13191008955
13191017622
13191023603
13191032759
13191039961
13191047163
13191054243
13191062300
13191070600
13191080488
13191086836
13191094160
13191102278
13191110578
13191114851
13191125593
13191133589
13191141035
13191147504
13191155012
13191161237
13191170271
13191176130
13191184431
13191190351
13191197736
13191207319
13191212751
13191220685
13191226667
13191232648
13191236555
13191243329
13191247114
13191254743
13191258649
13191264387
13191270368
13191276777
13191282270
13191287580
13191292218
13191296796
13191302778
13191310102
13191314740
13191321088
13191325544
13191331952
13191336469
13191342694
13191349836
13191354718
13191362897
13191367292
13191374494
13191378827
13191384076
13191388776
13191395673
13191401654
13191407269
13191413251
13191418256
13191424176
13191431134
13191436505
13191441083
13191450360
13191455548
13191463422
13191470624
13191476788
13191480939
13191487714
13191493146
13191500714
13191511273
13191516034
13191523053
13191530255
13191537945
13191545575
13191553692
13191562604
13191569989
13191577557
13191584637
13191591961
13191600628
13191607281
13191613690
13191621197
13191627301
13191634869
13191643414
13191648846
13191657147
13191662518
13191671734
13191681072
13191686566
13191693279
13191701702
13191709515
13191715313
13191721295
13191729473
13191734844
13191740948
13191745037
13191751934
13191758221
13191762554
13191767376
13191774700
13191778973
13191786663
13191791058
13191796184
13191802654
13191808330
13191814251
13191819805
13191825176
13191832744
13191838238
13191844036
13191848919
13191854961
13191861004
13191865886
13191872600
13191877422
13191882183
13191889263
13191894756
13191899822
13191907512
13191914348
13191921428
13191926616
13191931987
13191937542
13191942913
13191947368
13191954082
13191959697
13191965557
13191968791
13191975994
13191980815
13191989726
13191994548
13192000286
13192005473
13192011882
13192019328
13192024577
13192032024
13192040813
13192048137
13192055400
13192064250
13192072612
13192081706
13192089702
13192097758
13192105327
13192113628
13192121623
13192129680
13192136088
13192142863
13192153300
13192160808
13192168254
13192176860
13192184428
13192193034
13192201152
13192208232
13192217570
13192228068
13192236674
13192245768
13192251261
13192257365
13192264567
13192271525
13192275798
13192280497
13192287272
13192291667
13192297648
13192302348
13192309367
13192314127
13192320231
13192325175
13192331889
13192336527
13192340861
13192347697
13192352274
13192358134
13192364787
13192370524
13192374613
13192380534
13192387064
13192393046
13192397684
13192404032
13192409708
13192414713
13192423807
13192430643
13192437418
13192441813
13192446268
13192453776
13192459208
13192465738
13192475321
13192480509
13192486002
13192492655
13192499308
13192505350
13192512003
13192517496
13192523111
13192529520
13192535868
13192540689
13192546610
13192551920
13192559427
13192564005
13192574076
13192580484
13192589701
13192596475
13192603555
13192613077
13192619486
13192629190
13192636087
13192643778
13192652811
13192660257
13192667886
13192676248
13192683572
13192691690
13192698709
13192707010
13192717142
13192725442
13192729837
13192740335
13192746927
13192754129
13192763711
13192771402
13192776895
13192781472
13192789163
13192794168
13192799539
13192804361
13192810647
13192816201
13192821267
13192829507
13192835000
13192838174
13192845864
13192851724
13192858316
13192864541
13192868142
13192874673
13192880349
13192887612
13192895242
13192901833
13192908486
13192913125
13192919656
13192928323
13192933816
13192940469
13192946328
13192950723
13192956399
13192961343
13192967263
13192972634
13192978982
13192984231
13192988808
13192995034
13193001443
13193006875
13193011086
13193016946
13193022561
13193027871
13193034218
13193038735
13193043740
13193048989
13193055031
13193061318
13193066994
13193073769
13193082741
13193090310
13193096840
13193105263
13193113442
13193122109
13193126320
13193136879
13193143349
13193151833
13193161049
13193169289
13193175820
13193183876
13193192665
13193201515
13193208901
13193216896
13193224587
13193230995
13193239296
13193248207
13193256691
13193264076
13193272438
13193281898
13193287453
13193292274
13193299293
13193304054
13193308937
13193316749
13193321205
13193328773
13193334816
13193340309
13193346901
13193352760
13193356422
13193364418
13193368934
13193374855
13193381141
13193387001
13193390968
13193398170
13193402931
13193408729
13193414711
13193422523
13193427772
13193433265
13193439674
13193445411
13193450965
13193457679
13193463539
13193469825
13193475196
13193480934
13193486976
13193493202
13193498023
13193509803
13193517555
13193525489
13193533424
13193538612
13193543983
13193548927
13193556556
13193564613
13193569740
13193576942
13193581824
13193587012
13193594337
13193599219
13193606910
13193612342
13193619727
13193628882
13193637366
13193643226
13193652076
13193657935
13193665137
13193674231
13193679541
13193688880
13193695044
13193703589
13193711646
13193718543
13193724524
13193734168
13193743567
13193752967
13193759375
13193767737
13193774817
13193783362
13193790747
13193796240
13193802771
13193811072
13193817297
13193822485
13193828528
13193833289
13193839514
13193843543
13193850012
13193854224
13193859106
13193864233
13193871313
13193875525
13193880957
13193888403
13193892981
13193901160
13193907324
13193912146
13193917517
13193921972
13193928198
13193934729
13193940405
13193947180
13193952246
13193957556
13193962439
13193968420
13193973303
13193978308
13193985693
13193990454
13193997107
13194002600
13194006384
13194011206
13194016577
13194021215
13194027563
13194035192
13194040136
13194045019
13194050695
13194054541
13194058386
13194064672
13194073461
13194079626
13194085363
13194092199
13194099828
13194106970
13194114294
13194124242
13194131139
13194138525
13194149084
13194158910
13194166662
13194174779
13194184240
13194196691
13194212621
13194225011
13194233983
13194242956
13194252843
13194260595
13194268712
13194282811
13194291051
13194297887
13194302465
13194308446
13194312719
13194320531
13194326146
13194332433
13194338903
13194344640
13194350560
13194356420
13194362279
13194368199
13194372594
13194377416
13194382421
13194387486
13194393285
13194403600
13194411168
13194415868
13194421910
13194426183
13194431554
13194436070
13194442906
13194449071
13194454259
13194459019
13194463719
13194468114
13194473912
13194477940
13194486363
13194492100
13194498143
13194506322
13194511632
13194518834
13194522130
13194529881
13194535252
13194540806
13194545994
13194551732
13194557103
13194562962
13194571507
13194579625
13194586155
13194594029
13194598423
13194609593
13194614048
13194625950
13194630833
13194640599
13194647740
13194657200
13194665135
13194671848
13194679600
13194689427
13194695530
13194704441
13194714878
13194722202
13194727757
13194735081
13194743259
13194750889
13194755039
13194766148
13194773350
13194778782
13194782078
13194789646
13194793857
13194798496
13194805698
13194809666
13194816624
13194820591
13194826999
13194831455
13194838352
13194842869
13194849704
13194856235
13194863682
13194871494
13194879123
13194884311
13194891086
13194895908
13194901889
13194906528
13194913669
13194918613
13194923679
13194928684
13194933811
13194939060
13194944309
13194948642
13194955661
13194961093
13194965732
13194969760
13194976230
13194981662
13194988376
13194993137
13194999667
13195004062
13195010471
13195015415
13195021213
13195027866
13195033237
13195042331
13195047153
13195053073
13195060641
13195070346
13195076144
13195085483
13195094394
13195101596
13195110324
13195117099
13195123691
13195133334
13195142428
13195149081
13195158053
13195165133
13195175631
13195184787
13195191317
13195200778
13195209018
13195215670
13195224520
13195232577
13195241061
13195249911
13195257479
13195264193
13195269320
13195273776
13195280978
13195287692
13195291171
13195298434
13195303744
13195308932
13195314364
13195318881
13195324984
13195330965
13195336031
13195341525
13195346468
13195352145
13195357516
13195365084
13195371737
13195376864
13195382479
13195387423
13195393709
13195399447
13195406100
13195413668
13195419832
13195425692
13195430453
13195436983
13195446077
13195453951
13195459627
13195464937
13195472933
13195478853
13195485506
13195491976
13195498323
13195506136
13195514254
13195521639
13195529695
13195536043
13195542879
13195547762
13195552156
13195559908
13195565767
13195570650
13195575411
13195579500
13195585787
13195591097
13195594881
13195601473
13195605623
13195609651
13195615389
13195619295
13195624971
13195629488
13195635652
13195641328
13195648408
13195652559
13195659334
13195664156
13195669038
13195675264
13195679903
13195686128
13195692598
13195698762
13195703767
13195708406
13195713594
13195719819
13195723848
13195729097
13195735261
13195740693
13195747102
13195752961
13195759187
13195765168
13195770906
13195777681
13195783357
13195788240
13195793306
13195800080
13195806916
13195811799
13195816682
13195824922
13195829743
13195835054
13195840119
13195845429
13195849275
13195856904
13195860993
13195867402
13195871919
13195877717
13195883027
13195887544
13195894319
13195898469
13195904145
13195907807
13195914460
13195920869
13195928193
13195935029
13195941499
13195948090
13195952485
13195959199
13195965302
13195972016
13195976960
13195982026
13195987458
13195993195
13195998994
13196004548
13196011872
13196016755
13196022431
13196027375
13196032746
13196038788
13196044465
13196053132
13196061493
13196068757
13196075287
13196080597
13196085663
13196089936
13196095368
13196101654
13196106781
13196112213
13196116730
13196121613
13196128205
13196134186
13196137970
13196143830
13196150238
13196154938
13196161530
13196167328
13196169892
13196176850
13196181061
13196187287
13196193817
13196201141
13196206940
13196211090
13196215302
13196221222
13196226105
13196231110
13196238312
13196242889
13196248138
13196253387
13196259857
13196264740
13196270111
13196274811
13196279144
13196287140
13196294220
13196298858
13196303985
13196310821
13196314850
13196319366
13196326080
13196331939
13196337372
13196342865
13196348114
13196353302
13196357269
13196363739
13196368744
13196376495
13196381439
13196388641
13196396148
13196401397
13196411224
13196417938
13196423309
13196428985
13196435699
13196440643
13196447296
13196451812
13196456573
13196462127
13196468292
13196472686
13196478668
13196483245
13196488006
13196492034
13196497649
13196503631
13196509918
13196515411
13196521636
13196527557
13196532745
13196536956
13196543060
13196546050
13196552459
13196558623
13196565032
13196569793
13196574676
13196581695
13196586028
13196591338
13196597320
13196602874
13196608550
13196614287
13196621001
13196628875
13196635955
13196641875
13196647002
13196651397
13196657012
13196663909
13196668853
13196674834
13196679412
13196685820
13196690215
13196695037
13196700164
13196704924
13196709197
13196714080
13196718169
13196723174
13196727874
13196733611
13196739348
13196745330
13196749785
13196755767
13196761687
13196766814
13196772124
13196776763
13196782744
13196790617
13196793913
13196800810
13196806242
13196812285
13196818022
13196823882
13196829741
13196835234
13196840544
13196845061
13196850432
13196854460
13196861479
13196865568
13196871733
13196878935
13196884917
13196890349
13196896574
13196901762
13196905485
13196910551
13196916289
13196921721
13196927519
13196933256
13196938078
13196944304
13196949370
13196954619
13196958769
13196964933
13196970732
13196976408
13196981474
13196986174
13196991484
13196997648
13197002287
13197008085
13197013517
13197020292
13197025114
13197029325
13197035429
13197041044
13197046110
13197050993
13197055998
13197062162
13197067594
13197073393
13197079496
13197084501
13197089323
13197093473
13197101652
13197107633
13197112760
13197117582
13197123563
13197126310
13197133329
13197138700
13197142728
13197148771
13197154630
13197159757
13197166349
13197171049
13197175138
13197182523
13197188993
13197197721
13197202543
13197210599
13197216459
13197222257
13197227994
13197232267
13197237272
13197243314
13197248929
13197255277
13197259732
13197264066
13197268583
13197273404
13197277921
13197285611
13197291471
13197296476
13197300260
13197307218
13197311612
13197316007
13197321012
13197327054
13197333097
13197338712
13197343778
13197349332
13197355863
13197360257
13197364530
13197371488
13197375150
13197383206
13197388150
13197395108
13197399625
13197404324
13197411343
13197415860
13197422696
13197428372
13197433865
13197439481
13197445157
13197446561
13197456082
13197458951
13197466946
13197471951
13197477933
13197482571
13197488736
13197493130
13197500638
13197505276
13197510464
13197518887
13197524624
13197530911
13197535061
13197541714
13197545254
13197551663
13197556973
13197562832
13197569851
13197576199
13197580593
13197586758
13197591153
13197597195
13197601467
13197607205
13197615200
13197620510
13197626797
13197631069
13197636135
13197640957
13197646694
13197650784
13197656765
13197662625
13197669277
13197676174
13197680813
13197685757
13197693142
13197699368
13197705349
13197713467
13197719753
13197728909
13197733608
13197746059
13197753567
13197761501
13197767666
13197772182
13197784817
13197790127
13197797756
13197808620
13197815517
13197826137
13197831508
13197840114
13197851162
13197856960
13197865566
13197874172
13197883205
13197890895
13197898159
13197907497
13197911708
13197919704
13197925136
13197931179
13197938259
13197943141
13197949184
13197953945
13197958339
13197963588
13197969081
13197976405
13197986781
13198005946
13198015651
13198020839
13198028773
13198033351
13198040370
13198045985
13198052882
13198056728
13198063136
13198068751
13198075343
13198084559
13198089381
13198097316
13198103114
13198108302
13198114222
13198119594
13198124537
13198131923
13198137782
13198144496
13198169886
13198181117
13198188807
13198196131
13198201564
13198209437
13198217860
13198224391
13198234522
13198240870
13198248133
13198251978
13198261561
13198268092
13198273646
13198283473
13198296656
13198306239
13198315333
13198322718
13198328028
13198336756
13198342615
13198351038
13198359461
13198367518
13198372340
13198379236
13198389673
13198396815
13198404139
13198410303
13198419092
13198426905
13198434412
13198439661
13198447168
13198450647
13198459314
13198463465
13198472437
13198476099
13198482141
13198489527
13198496302
13198503870
13198511682
13198518274
13198525476
13198531458
13198538843
13198545557
13198548364
13198556665
13198559656
13198567774
13198573938
13198580469
13198590173
13198596216
13198601160
13198606531
13198610986
13198617395
13198621912
13198629663
13198634851
13198642419
13198647119
13198652307
13198660608
13198665735
13198672388
13198677637
13198683008
13198689783
13198695520
13198699975
13198705530
13198710718
13198716272
13198720849
13198728540
13198738244
13198743432
13198749170
13198757409
13198765161
13198769372
13198777795
13198783593
13198793420
13198800561
13198807092
13198813073
13198821191
13198828454
13198834985
13198843652
13198852624
13198859826
13198865746
13198871850
13198879846
13198885583
13198893456
13198899560
13198907128
13198914269
13198920739
13198927087
13198934777
13198942223
13198948205
13198956139
13198962914
13198972619
13198977563
13198985009
13198991967
13198999413
13199004662
13199011132
13199014306
13199021874
13199027794
13199033104
13199037987
13199043297
13199048790
13199055077
13199061486
13199067284
13199073754
13199079857
13199084984
13199090782
13199095360
13199101036
13199107140
13199111473
13199115807
13199125450
13199135948
13199143517
13199165733
13199171227
13199178490
13199185143
13199192772
13199197289
13199203758
13199211082
13199218102
13199223228
13199231773
13199237389
13199245811
13199250877
13199255516
13199262718
13199270286
13199275291
13199279381
13199285362
13199292137
13199297874
13199302940
13199308433
13199316063
13199320762
13199328941
13199335960
13199344139
13199351036
13199357628
13199365867
13199371788
13199378501
13199386924
13199393394
13199400352
13199408409
13199414512
13199420555
13199427452
13199433555
13199442649
13199449180
13199456077
13199461692
13199468589
13199475974
13199483543
13199490379
13199497825
13199505210
13199512046
13199521690
13199526511
13199532310
13199541709
13199547202
13199553916
13199561912
13199567588
13199576072
13199581260
13199588828
13199594626
13199599692
13199604453
13199609885
13199615745
13199621909
13199628318
13199631980
13199637778
13199644492
13199652427
13199659446
13199666098
13199670371
13199677573
13199685324
13199690085
13199696616
13199703208
13199707907
13199714682
13199719138
13199727744
13199733847
13199739829
13199744834
13199751364
13199756613
13199765097
13199769309
13199777792
13199783225
13199789999
13199796591
13199801474
13199810080
13199814352
13199822348
13199828207
13199834433
13199841513
13199847128
13199853659
13199859335
13199865805
13199876547
13199882834
13199891989
13199899557
13199911398
13199918478
13199926718
13199935385
13199943380
13199950644
13199958883
13199966391
13199974936
13199981039
13199988180
13199991598
13200001058
13200008200
13200015036
13200023519
13200029074
13200039694
13200046896
13200054220
13200060995
13200068136
13200075094
13200079488
13200088583
13200097738
13200103292
13200109274
13200118063
13200123434
13200130941
13200138998
13200147054
13200154073
13200164632
13200171102
13200182088
13200189901
13200204122
13200214071
13200228292
13200237691
13200244405
13200250509
13200259298
13200263692
13200270284
13200276998
13200282125
13200287862
13200292562
13200297078
13200302449
13200306722
13200311482
13200316548
13200322713
13200325948
13200332234
13200337605
13200342732
13200347920
13200352315
13200357137
13200362569
13200366475
13200371907
13200376119
13200380635
13200386128
13200391560
13200397664
13200402425
13200406270
13200412617
13200417683
13200422871
13200428120
13200432393
13200440083
13200445637
13200450703
13200456502
13200462605
13200466511
13200473225
13200477925
13200485188
13200489033
13200496174
13200499714
13200506733
13200512105
13200517537
13200520466
13200527485
13200534687
13200538289
13200545186
13200550068
13200557942
13200562825
13200571125
13200574787
13200582417
13200588581
13200593525
13200600178
13200605488
13200611103
13200616657
13200621845
13200627705
13200637776
13200642964
13200649189
13200654194
13200658161
13200663532
13200669453
13200675922
13200682026
13200688435
13200694294
13200700336
13200706013
13200712360
13200717548
13200723469
13200727985
13200737751
13200742145
13200749775
13200755817
13200761494
13200765888
13200772785
13200779133
13200784687
13200789326
13200794636
13200800190
13200806476
13200811542
13200816913
13200821979
13200825641
13200831012
13200839130
13200843952
13200848652
13200854694
13200860675
13200866291
13200872333
13200877704
13200884906
13200891254
13200896015
13200900592
13200909259
13200914142
13200920001
13200926654
13200932636
13200937763
13200943073
13200948932
13200954547
13200961261
13200967792
13200972675
13200979572
13200984454
13200991473
13200997455
13201003986
13201010272
13201015948
13201022113
13201029010
13201035358
13201040240
13201046283
13201051410
13201056537
13201063556
13201069232
13201074847
13201082294
13201088092
13201093951
13201100421
13201105609
13201111529
13201118304
13201123431
13201130145
13201135821
13201140155
13201146136
13201152667
13201157306
13201162677
13201171771
13201181231
13201187396
13201193682
13201198870
13201205462
13201210284
13201216998
13201223101
13201229266
13201234027
13201238970
13201243243
13201249163
13201254595
13201260150
13201265704
13201271624
13201276995
13201282305
13201286700
13201293047
13201297991
13201303728
13201308184
13201313128
13201319048
13201323199
13201330645
13201335467
13201341204
13201345171
13201352312
13201356341
13201361590
13201366534
13201372881
13201378496
13201384173
13201387530
13201394732
13201402849
13201408159
13201413103
13201418657
13201425066
13201429461
13201435930
13201439714
13201448748
13201452532
13201459063
13201464800
13201470842
13201474810
13201481157
13201487871
13201494341
13201499712
13201504717
13201511736
13201517656
13201520952
13201526506
13201534929
13201538774
13201546282
13201551775
13201557146
13201563799
13201570329
13201575700
13201587175
13201592302
13201600542
13201606462
13201612382
13201619035
13201626298
13201630937
13201638322
13201643816
13201650896
13201657731
13201662736
13201668230
13201675615
13201681596
13201688798
13201694230
13201700578
13201708268
13201713701
13201719865
13201725358
13201730912
13201735978
13201740556
13201748552
13201754472
13201760026
13201765947
13201772538
13201778031
13201786393
13201791032
13201797441
13201805131
13201810807
13201816911
13201821610
13201827348
13201833817
13201839128
13201845170
13201851945
13201857072
13201861894
13201867692
13201873002
13201877763
13201882951
13201888200
13201895341
13201901933
13201907059
13201912858
13201917802
13201924332
13201928727
13201936173
13201940751
13201948319
13201953690
13201958817
13201964310
13201969864
13201974625
13201980607
13201986466
13201993973
13201998246
13202003983
13202010636
13202016190
13202020890
13202026810
13202033219
13202039078
13202044205
13202049881
13202055619
13202061112
13202067093
13202073014
13202078873
13202085587
13202091202
13202097000
13202101395
13202107865
13202113785
13202119339
13202124832
13202131607
13202136185
13202143021
13202148514
13202154862
13202160599
13202166214
13202172379
13202178970
13202183426
13202189346
13202196243
13202200516
13202206985
13202211929
13202217300
13202223648
13202230240
13202234573
13202241226
13202246109
13202251358
13202256790
13202265762
13202273208
13202279556
13202284927
13202292068
13202296097
13202305923
13202312637
13202318924
13202329666
13202336685
13202345352
13202353042
13202360855
13202368362
13202374160
13202383438
13202390579
13202400650
13202411758
13202419876
13202428359
13202434402
13202445876
13202455215
13202461685
13202470290
13202481399
13202487746
13202494582
13202498977
13202506240
13202510879
13202517715
13202524306
13202530044
13202536819
13202541640
13202546950
13202553481
13202558913
13202565444
13202569777
13202578628
13202583205
13202590224
13202595595
13202600539
13202607314
13202612502
13202618422
13202623793
13202629470
13202636489
13202641799
13202646926
13202652541
13202657668
13202663344
13202669265
13202674880
13202680922
13202683852
13202692214
13202697524
13202703261
13202709059
13202715102
13202722792
13202729018
13202734999
13202743849
13202748122
13202757094
13202763869
13202769667
13202774184
13202781081
13202786757
13202792738
13202798476
13202804152
13202809462
13202815993
13202821547
13202826796
13202834730
13202840285
13202845656
13202850477
13202857313
13202862623
13202868483
13202874464
13202880568
13202884169
13202892531
13202897230
13202902907
13202911268
13202915663
13202923597
13202927870
13202934401
13202938490
13202945204
13202950453
13202956678
13202963453
13202968580
13202974623
13202980360
13202985975
13202989820
13202998243
13203002943
13203008863
13203016065
13203021436
13203027784
13203035536
13203040601
13203047865
13203055616
13203063307
13203069776
13203078504
13203082471
13203089124
13203094495
13203102003
13203108900
13203114881
13203121900
13203127454
13203132947
13203138563
13203142774
13203149061
13203154371
13203160779
13203166028
13203172193
13203176465
13203181959
13203186902
13203193189
13203198194
13203203931
13203209729
13203215467
13203221082
13203227979
13203233106
13203238904
13203245313
13203252210
13203256787
13203265515
13203270642
13203275403
13203282361
13203287671
13203293836
13203301099
13203305921
13203313550
13203318128
13203325330
13203329541
13203335950
13203342053
13203348767
13203356091
13203361218
13203368909
13203375317
13203380383
13203386426
13203392407
13203397778
13203405347
13203409741
13203416333
13203423291
13203428235
13203432996
13203439709
13203444409
13203449963
13203455395
13203461316
13203468579
13203474866
13203477612
13203484753
13203489148
13203494763
13203501294
13203505932
13203511242
13203517468
13203523938
13203529370
13203533825
13203540722
13203545117
13203551281
13203556958
13203562268
13203568371
13203574292
13203579724
13203586743
13203591442
13203597912
13203606640
13203613049
13203621105
13203628491
13203636120
13203642223
13203648266
13203656078
13203665722
13203673046
13203681896
13203695873
13203703136
13203712109
13203718578
13203728954
13203739452
13203749645
13203758251
13203767101
13203774792
13203782299
13203789379
13203797680
13203800609
13203811413
13203816051
13203825328
13203832531
13203839916
13203848400
13203854381
13203863903
13203868419
13203875133
13203887218
13203893871
13203902782
13203909923
13203916820
13203924693
13203932323
13203941295
13203947460
13203956737
13203962108
13203971019
13203979564
13203988109
13203993907
13203998668
13204010753
13204018443
13204026378
13204033092
13204040965
13204050731
13204058604
13204067576
13204076915
13204079539
13204093272
13204098582
13204106700
13204117198
13204120005
13204133067
13204138133
13204146373
13204154856
13204162486
13204171397
13204176707
13204186228
13204195079
13204201853
13204210581
13204217906
13204224497
13204231944
13204238352
13204247386
13204254038
13204262827
13204270396
13204276804
13204283030
13204289988
13204297434
13204303538
13204312388
13204316965
13204324839
13204342173
13204352915
13204358957
13204372812
13204382822
13204392222
13204403330
13204411020
13204419199
13204426584
13204432932
13204440073
13204446604
13204453257
13204458811
13204464060
13204469614
13204474558
13204479868
13204485056
13204490732
13204496286
13204502024
13204506967
13204513010
13204519541
13204525156
13204530344
13204535898
13204541513
13204547128
13204552683
13204557138
13204562875
13204569650
13204574472
13204585336
13204589609
13204600961
13204607187
13204614938
13204623544
13204631052
13204638193
13204645578
13204655160
13204662912
13204670236
13204677072
13204684091
13204691842
13204699594
13204707711
13204715646
13204725717
13204733163
13204741769
13204749276
13204756356
13204764047
13204771920
13204780831
13204788705
13204796578
13204804147
13204813119
13204820870
13204829110
13204837228
13204845284
13204854440
13204862557
13204871285
13204879281
13204887460
13204894784
13204905038
13204911935
13204920968
13204926400
13204935433
13204941903
13204951302
13204961251
13204967721
13204976265
13204985238
13204993538
13205001839
13205009469
13205016793
13205026741
13205033944
13205058297
13205066292
13205073433
13205080452
13205089607
13205099373
13205108528
13205116585
13205123848
13205133858
13205141365
13205150704
13205159432
13205167610
13205175667
13205184517
13205192574
13205199593
13205211372
13205217232
13205226204
13205234627
13205243172
13205250862
13205259407
13205266975
13205275764
13205282600
13205290779
13205297493
13205305671
13205314277
13205322700
13205330085
13205341316
13205351081
13205358528
13205364936
13205372871
13205380134
13205389228
13205398078
13205404365
13205413215
13205421089
13205429145
13205437080
13205445197
13205453071
13205460151
13205468452
13205476936
13205484016
13205491645
13205500617
13205509284
13205518256
13205525519
13205535102
13205542182
13205549567
13205558784
13205565497
13205575568
13205582343
13205593940
13205602729
13205608344
13205617621
13205626349
13205634528
13205642340
13205647956
13205658515
13205666144
13205673529
13205682135
13205691229
13205697699
13205706244
13205712958
13205722052
13205729743
13205738593
13205747931
13205755621
13205762824
13205771979
13205778387
13205786932
13205795477
13205802862
13205811041
13205817999
13205827276
13205834234
13205842169
13205850775
13205857672
13205867865
13205875616
13205881476
13205885992
13205891424
13205897833
13205901861
13205907232
13205911505
13205915045
13205922613
13205927984
13205934820
13205939398
13205943426
13205949713
13205955633
13205961126
13205966741
13205973394
13205978277
13205983282
13205988775
13205995062
13205999334
13206006231
13206011541
13206016241
13206021673
13206026861
13206031866
13206037115
13206041143
13206046453
13206051946
13206058050
13206063055
13206065984
13206071233
13206075262
13206079168
13206083257
13206088506
13206092290
13206097417
13206101568
13206106634
13206110967
13206116765
13206122076
13206126653
13206131414
13206135808
13206142339
13206146734
13206153692
13206158880
13206165777
13206170659
13206176641
13206180913
13206185003
13206191900
13206198308
13206204107
13206209661
13206215032
13206221379
13206227239
13206231939
13206237371
13206241826
13206247625
13206254399
13206259343
13206265264
13206270513
13206277043
13206283269
13206287114
13206293401
13206298528
13206304509
13206310246
13206315495
13206321782
13206327214
13206333989
13206339177
13206344731
13206351201
13206358464
13206363591
13206368840
13206375432
13206379765
13206385381
13206391057
13206396977
13206403752
13206408940
13206413457
13206421147
13206426030
13206434147
13206443913
13206452702
13206463872
13206473454
13206480839
13206488224
13206492070
13206498784
13206503361
13206511784
13206519474
13206524968
13206534611
13206539616
13206548222
13206553654
13206562565
13206568730
13206574528
13206579716
13206585636
13206589543
13206595646
13206601505
13206607609
13206612980
13206617314
13206622990
13206627140
13206634342
13206641300
13206647099
13206650333
13206657230
13206663029
13206668522
13206673893
13206678349
13206686283
13206690800
13206695805
13206701786
13206709537
13206714970
13206719547
13206726322
13206731144
13206740665
13206746464
13206754581
13206758793
13206765751
13206771366
13206777286
13206783207
13206789066
13206793522
13206800357
13206806461
13206812259
13206815677
13206822574
13206826603
13206830814
13206837345
13206843143
13206848880
13206854190
13206861881
13206867618
13206873966
13206880008
13206886417
13206890079
13206898380
13206903385
13206911319
13206916568
13206923343
13206928348
13206935794
13206942996
13206949283
13206955020
13206961124
13206967593
13206973575
13206978580
13206984378
13206990787
13206996341
13207001407
13207007266
13207012393
13207018313
13207023562
13207029178
13207035098
13207040774
13207046756
13207051211
13207059756
13207065310
13207070987
13207076541
13207082461
13207090030
13207097354
13207102481
13207112002
13207119082
13207124209
13207131106
13207136111
13207143435
13207148928
13207154116
13207161868
13207166079
13207172610
13207177493
13207184023
13207188784
13207194216
13207204775
13207212283
13207217227
13207223025
13207228762
13207235110
13207239260
13207245608
13207250124
13207255984
13207262515
13207269778
13207274966
13207280276
13207288576
13207295046
13207300844
13207307497
13207314760
13207320559
13207325258
13207332278
13207336855
13207342348
13207348147
13207352358
13207358034
13207365725
13207370424
13207376284
13207383425
13207388369
13207395327
13207400881
13207408632
13207412966
13207418886
13207423952
13207427919
13207433718
13207439638
13207445192
13207451967
13207457216
13207461183
13207466982
13207472658
13207476747
13207483278
13207488161
13207493471
13207499819
13207506777
13207511659
13207518129
13207524782
13207530580
13207536562
13207541994
13207548341
13207553896
13207558839
13207564882
13207570619
13207576662
13207581911
13207587587
13207594301
13207600038
13207603029
13207609987
13207614931
13207619997
13207627992
13207633546
13207641359
13207647096
13207651368
13207657167
13207662050
13207666993
13207673768
13207678773
13207684205
13207692201
13207700868
13207706056
13207710511
13207718019
13207722291
13207729066
13207738893
13207746705
13207751527
13207758485
13207764283
13207768495
13207773744
13207779359
13207784547
13207788880
13207793458
13207799378
13207805360
13207809754
13207814942
13207820313
13207825379
13207831666
13207835877
13207842225
13207846803
13207853455
13207858643
13207863831
13207869630
13207875062
13207881226
13207885804
13207890443
13207896790
13207901185
13207906617
13207913575
13207918458
13207923401
13207929017
13207933900
13207939271
13207945374
13207951356
13207956666
13207964173
13207965821
13207975037
13207978943
13207985474
13207989747
13207995057
13207997803
13208005799
13208008606
13208016724
13208021729
13208027649
13208034668
13208040406
13208047242
13208053223
13208059326
13208065491
13208068299
13208075806
13208080261
13208088013
13208093567
13208100830
13208105591
13208110169
13208117249
13208122131
13208128540
13208133911
13208139771
13208146484
13208152283
13208156921
13208163940
13208168030
13208173462
13208179871
13208186035
13208191040
13208197143
13208203247
13208207703
13208214050
13208220215
13208224853
13208230957
13208236145
13208243103
13208249267
13208254944
13208259338
13208265503
13208273498
13208278503
13208286987
13208293945
13208300354
13208306030
13208311645
13208316711
13208322937
13208329284
13208337341
13208343383
13208348938
13208353942
13208359436
13208365661
13208371093
13208376831
13208382507
13208388671
13208394470
13208398864
13208405517
13208410156
13208415649
13208422241
13208426879
13208433532
13208439147
13208445983
13208450500
13208457824
13208463195
13208469054
13208474425
13208480346
13208485534
13208492980
13208496947
13208504333
13208509948
13208515380
13208518493
13208525268
13208532958
13208537719
13208542235
13208549376
13208555236
13208561156
13208565490
13208569823
13208577330
13208583373
13208588866
13208595702
13208600829
13208605040
13208611815
13208616820
13208622802
13208628539
13208634886
13208639525
13208645079
13208650389
13208656371
13208660643
13208667052
13208673400
13208680541
13208684996
13208691893
13208696410
13208702452
13208707701
13208713072
13208721007
13208727599
13208732481
13208738524
13208745543
13208749998
13208761412
13208767210
13208774290
13208780272
13208785643
13208789854
13208796019
13208802122
13208806517
13208813292
13208821654
13208825926
13208832884
13208838011
13208843016
13208848936
13208854735
13208859495
13208866819
13208872252
13208880858
13208890318
13208895567
13208904234
13208909300
13208915464
13208922911
13208931272
13208938291
13208943540
13208950010
13208954405
13208960081
13208966978
13208971311
13208977293
13208982481
13208986631
13208992491
13208998167
13209001646
13209009397
13209016111
13209020506
13209026182
13209032835
13209036863
13209042844
13209047239
13209055723
13209060423
13209067258
13209072019
13209077695
13209082517
13209089536
13209094419
13209100828
13209106382
13209113218
13209119443
13209125303
13209130430
13209136045
13209141782
13209147397
13209154661
13209161557
13209166684
13209172239
13209176938
13209183896
13209188901
13209194883
13209199765
13209207212
13209211423
13209218015
13209222409
13209227597
13209234922
13209240537
13209246579
13209252622
13209258481
13209264218
13209269284
13209273984
13209281247
13209286191
13209291806
13209297788
13209303708
13209306760
13209314206
13209318906
13209325314
13209329648
13209336728
13209343625
13209350400
13209355099
13209360959
13209367795
13209372922
13209379269
13209385617
13209392392
13209397824
13209404721
13209409421
13209414792
13209420712
13209426083
13209430966
13209436642
13209442746
13209448910
13209455319
13209460873
13209465695
13209472165
13209479855
13209484066
13209495053
13209503353
13209509274
13209514584
13209520138
13209525814
13209533749
13209539608
13209545101
13209551022
13209556637
13209562191
13209567867
13209573849
13209578182
13209582699
13209589962
13209595089
13209601376
13209605892
13209613400
13209617733
13209624752
13209630306
13209635616
13209641171
13209646664
13209651180
13209658688
13209663815
13209669430
13209672420
13209679989
13209686581
13209692928
13209697140
13209703915
13209708248
13209713741
13209720455
13209725094
13209733455
13209743892
13209751034
13209758297
13209768184
13209776485
13209786251
13209795650
13209803646
13209812252
13209820247
13209827022
13209835140
13209839168
13209845211
13209849300
13209854427
13209860164
13209866085
13209871334
13209875545
13209881221
13209887020
13209892085
13209896968
13209902522
13209907771
13209912776
13209917293
13209924190
13209929927
13209933955
13209940547
13209946590
13209953120
13209957942
13209962032
13209968684
13209972591
13209979365
13209984553
13209989802
13209995906
13210000117
13210005977
13210011714
13210016841
13210022639
13210030635
13210036128
13210041743
13210047175
13210052730
13210058162
13210063533
13210069270
13210076411
13210082698
13210087886
13210095515
13210100276
13210107905
13210111750
13210118647
13210126826
13210132258
13210139155
13210145198
13210150996
13210155818
13210161921
13210166316
13210172114
13210178034
13210183772
13210188593
13210193903
13210198969
13210205195
13210211054
13210218501
13210224421
13210229426
13210234492
13210239314
13210245417
13210251887
13210256037
13210263117
13210269343
13210274409
13210279047
13210283625
13210290949
13210295771
13210301020
13210308222
13210314753
13210319208
13210324396
13210330134
13210336054
13210341059
13210346918
13210353266
13210358088
13210366388
13210371149
13210376764
13210382257
13210387507
13210392694
13210400019
13210407953
13210413752
13210419550
13210425287
13210429804
13210435297
13210440424
13210446527
13210454523
13210459284
13210466059
13210470697
13210476007
13210482782
13210487726
13210492548
13210498651
13210503778
13210511408
13210515802
13210521600
13210526788
13210532343
13210536737
13210543268
13210548883
13210555963
13210560541
13210568292
13210572748
13210577692
13210584589
13210590570
13210595819
13210601556
13210606866
13210613458
13210618646
13210623895
13210629571
13210634942
13210641168
13210647394
13210653436
13210659112
13210664666
13210669793
13210676751
13210680230
13210689874
13210695489
13210702813
13210708062
13210715448
13210720636
13210727288
13210734429
13210739678
13210745050
13210751275
13210756646
13210762994
13210768365
13210773492
13210778985
13210784783
13210790948
13210798028
13210803826
13210809869
13210815484
13210818475
13210825616
13210830438
13210837518
13210842461
13210847649
13210854607
13210859002
13210865411
13210870965
13210876519
13210881524
13210887932
13210893487
13210900872
13210905327
13210910882
13210916436
13210922051
13210927849
13210933465
13210939568
13210945427
13210950554
13210956719
13210961358
13210966851
13210972588
13210978753
13210983696
13210990532
13210995171
13211002312
13211007378
13211012932
13211017876
13211023003
13211028984
13211036064
13211041863
13211047600
13211051811
13211058586
13211064141
13211067253
13211074516
13211079827
13211087639
13211093926
13211099358
13211105705
13211111748
13211116570
13211122429
13211129082
13211135002
13211140129
13211145622
13211150261
13211157463
13211161735
13211166313
13211172844
13211179680
13211184563
13211190361
13211195976
13211201469
13211208488
13211213127
13211220024
13211224968
13211231987
13211236992
13211243583
13211247490
13211254020
13211259575
13211265129
13211271293
13211278129
13211284477
13211290336
13211296867
13211304863
13211311271
13211317436
13211324638
13211330253
13211337821
13211343193
13211349052
13211354240
13211360649
13211367240
13211372733
13211378410
13211384391
13211389457
13211394767
13211400443
13211406303
13211412345
13211418754
13211424918
13211431388
13211436698
13211441398
13211448539
13211453727
13211459769
13211465873
13211472098
13211477103
13211482780
13211489249
13211495170
13211501456
13211505668
13211513175
13211520621
13211525870
13211531547
13211537772
13211545096
13211550712
13211556815
13211563285
13211569327
13211580191
13211586844
13211592704
13211599601
13211604605
13211608939
13211616019
13211622977
13211628043
13211632315
13211638968
13211643729
13211650870
13211658499
13211665091
13211672598
13211679068
13211684500
13211690482
13211695303
13211701773
13211707694
13211714041
13211717703
13211724600
13211729605
13211737418
13211742422
13211747610
13211753409
13211759512
13211767874
13211773123
13211778677
13211783743
13211789908
13211794546
13211800894
13211806143
13211812308
13211817557
13211824087
13211831228
13211835989
13211840689
13211848318
13211853811
13211859366
13211864676
13211870047
13211876089
13211881277
13211887136
13211892935
13211899771
13211907705
13211915090
13211920706
13211927664
13211934439
13211939993
13211944143
13211950003
13211957083
13211963918
13211969167
13211975698
13211981863
13211987234
13211992056
13211997366
13212002981
13212008718
13212015676
13212022024
13212027029
13212031484
13212036184
13212042898
13212048696
13212052541
13212058950
13212064077
13212068532
13212074697
13212081777
13212088125
13212091543
13212099843
13212103689
13212112478
13212117177
13212123769
13212129201
13212134572
13212140859
13212147695
13212154409
13212158132
13212164724
13212169973
13212176259
13212181752
13212188771
13212195424
13212201284
13212207387
13212213063
13212216542
13212224660
13212229360
13212234731
13212241017
13212246572
13212252126
13212257619
13212263539
13212266713
13212274770
13212281606
13212286061
13212290822
13212298512
13212303761
13212308034
13212314809
13212320729
13212327077
13212332143
13212338429
13212345082
13212351674
13212357655
13212363576
13212366505
13212373830
13212377675
13212384999
13212389149
13212393788
13212399953
13212407399
13212412770
13212417225
13212423390
13212427784
13212433705
13212437916
13212443532
13212450856
13212457142
13212463124
13212467701
13212472401
13212477406
13212483998
13212488453
13212497609
13212504017
13212513172
13212522450
13212528736
13212537831
13212545643
13212550953
13212556202
13212564381
13212570423
13212575550
13212583058
13212588551
13212594166
13212598377
13212604298
13212609852
13212614857
13212621998
13212626637
13212631214
13212638782
13212644764
13212650745
13212655384
13212660694
13212667164
13212673206
13212678516
13212682606
13212689503
13212697376
13212701832
13212708057
13212714954
13212718311
13212726551
13212733448
13212738453
13212745166
13212751819
13212757557
13212762867
13212769153
13212774219
13212781238
13212785511
13212790882
13212796070
13212802051
13212807666
13212813831
13212818836
13212824573
13212828968
13212835498
13212841785
13212847400
13212852771
13212858081
13212863757
13212868884
13212873340
13212879199
13212883899
13212890430
13212893726
13212900195
13212907581
13212911487
13212916614
13212923084
13212929309
13212934192
13212939807
13212945117
13212950793
13212956836
13212961719
13212966479
13212973987
13212978992
13212983203
13212989795
13212996142
13213002612
13213006579
13213012378
13213017932
13213024585
13213030932
13213037036
13213040210
13213048694
13213055041
13213058764
13213064868
13213070727
13213076281
13213082690
13213089038
13213093371
13213099231
13213106127
13213112292
13213117724
13213124377
13213132983
13213138354
13213144091
13213151904
13213158434
13213165576
13213171130
13213175768
13213183520
13213190112
13213196215
13213201281
13213207324
13213211108
13213218798
13213223315
13213229296
13213235583
13213241137
13213249255
13213255297
13213261156
13213265917
13213272448
13213278063
13213283434
13213290880
13213295458
13213300341
13213306872
13213311510
13213316393
13213324206
13213329271
13213334643
13213340563
13213347033
13213352648
13213357897
13213362352
13213369310
13213375292
13213379686
13213384935
13213392260
13213396959
13213402086
13213408068
13213414049
13213419664
13213425768
13213431444
13213436205
13213441820
13213448412
13213455370
13213460558
13213464891
13213470445
13213477464
13213486192
13213490831
13213495470
13213501878
13213508165
13213513719
13213519029
13213524217
13213530931
13213535875
13213542772
13213548143
13213554735
13213561571
13213566881
13213571458
13213578783
13213584337
13213591844
13213596971
13213602525
13213608262
13213612962
13213619432
13213624803
13213629930
13213638048
13213642503
13213648240
13213653367
13213658067
13213665574
13213670335
13213675401
13213681321
13213686570
13213692796
13213697740
13213704087
13213710679
13213716600
13213721543
13213728074
13213732957
13213738877
13213744798
13213753465
13213758653
13213764573
13213770371
13213776963
13213783250
13213788987
13213794358
13213801255
13213807847
13213812791
13213818040
13213823228
13213830308
13213837083
13213842881
13213848496
13213853928
13213858994
13213865586
13213871262
13213877183
13213882981
13213889084
13213895310
13213899460
13213906418
13213909714
13213917038
13213920395
13213928940
13213938218
13213944077
13213948838
13213955368
13213961167
13213967148
13213971909
13213978073
13213984726
13213989731
13213995591
13214000962
13214006760
13214009812
13214018173
13214025070
13214029892
13214034897
13214041245
13214047226
13214052536
13214057724
13214064072
13214070480
13214076096
13214081650
13214087998
13214093185
13214097031
13214103928
13214109909
13214115646
13214121933
13214128281
13214133224
13214140427
13214145859
13214152573
13214157883
13214163437
13214170151
13214176437
13214182968
13214187668
13214194809
13214199081
13214205063
13214210800
13214217209
13214222641
13214229599
13214235946
13214240463
13214245041
13214252609
13214257187
13214263107
13214270187
13214274643
13214281967
13214288559
13214295150
13214300827
13214308334
13214313888
13214319381
13214324569
13214330368
13214338485
13214343978
13214350997
13214357223
13214363143
13214370406
13214375411
13214379196
13214389571
13214398055
13214404159
13214410018
13214416793
13214421676
13214428939
13214435043
13214443038
13214447921
13214454146
13214457625
13214465987
13214470504
13214476119
13214482223
13214488326
13214494430
13214500533
13214506576
13214512496
13214517989
13214522872
13214529159
13214534346
13214540328
13214547713
13214552352
13214557113
13214563277
13214569503
13214575179
13214580611
13214585189
13214591964
13214597640
13214603499
13214609786
13214614669
13214619612
13214626448
13214631209
13214636763
13214643965
13214651106
13214656783
13214662215
13214669478
13214674178
13214680464
13214685774
13214691878
13214696272
13214702193
13214709090
13214713545
13214718855
13214725264
13214730147
13214735945
13214741804
13214747420
13214752852
13214758894
13214764632
13214768721
13214775069
13214781111
13214785567
13214792158
13214797224
13214802473
13214808272
13214813765
13214820418
13214826094
13214832197
13214836836
13214845076
13214851667
13214858381
13214863569
13214870039
13214876142
13214881453
13214886763
13214896223
13214903059
13214909040
13214914350
13214921430
13214926802
13214931806
13214937239
13214945295
13214951948
13214958662
13214963911
13214969526
13214975324
13214983076
13214989423
13214994978
13215000410
13215012617
13215019086
13215033918
13215043745
13215053815
13215060468
13215077131
13215083845
13215093915
13215104291
13215112226
13215117353
13215126020
13215131635
13215137677
13215147870
13215154584
13215160444
13215165387
13215172528
13215181806
13215186750
13215190595
13215198651
13215207379
13215216474
13215223065
13215228742
13215235517
13215242536
13215248090
13215254621
13215262555
13215271100
13215277387
13215284589
13215289655
13215298871
13215303265
13215308759
13215316937
13215324872
13215332379
13215337750
13215348309
13215356732
13215363690
13215369610
13215375714
13215381512
13215388775
13215395367
13215405011
13215411480
13215418988
13215425702
13215432232
13215440167
13215445294
13215452252
13215459332
13215471295
13215476971
13215485028
13215492413
13215501080
13215505535
13215515789
13215522320
13215531292
13215537884
13215543072
13215556011
13215563946
13215570294
13215578533
13215585491
13215594341
13215599224
13215609295
13215615337
13215625713
13215633221
13215640118
13215647686
13215656048
13215662884
13215672527
13215677593
13215687359
13215695232
13215703350
13215712200
13215717754
13215726543
13215733257
13215738567
13215746013
13215754802
13215761211
13215769451
13215778362
13215786846
13215791851
13215799785
13215807415
13215813762
13215821025
13215830425
13215839702
13215847881
13215855571
13215862834
13215871501
13215876750
13215889812
13215896892
13215909709
13215923747
13215931255
13215937663
13215945842
13215952739
13215960246
13215968059
13215974162
13215982036
13215987346
13215992778
13215998698
13216005107
13216011027
13216014323
13216023295
13216030436
13216037883
13216041972
13216049113
13216053813
13216061076
13216065654
13216072184
13216075358
13216084941
13216089457
13216095378
13216100077
13216105693
13216112040
13216118022
13216124247
13216129252
13216135111
13216139750
13216144755
13216150187
13216155802
13216162272
13216169108
13216172709
13216177958
13216183695
13216190043
13216199137
13216206400
13216212565
13216217570
13216222391
13216227396
13216232401
13216237955
13216243143
13216249369
13216257181
13216263224
13216267069
13216273112
13216277933
13216282572
13216286661
13216293558
13216298990
13216303690
13216309794
13216313944
13216318644
13216322855
13216329142
13216335489
13216341166
13216346659
13216351908
13216357035
13216362528
13216367533
13216372782
13216376627
13216383768
13216387735
13216393778
13216397928
13216402994
13216406961
13216412760
13216418985
13216424173
13216429666
13216435648
13216439798
13216445474
13216450845
13216457498
13216464517
13216471964
13216481607
13216489542
13216497354
13216503091
13216510660
13216517862
13216523904
13216531045
13216537454
13216543680
13216548990
13216553689
13216560342
13216565286
13216570413
13216575418
13216579446
13216584634
13216589273
13216595498
13216600808
13216606180
13216611123
13216616433
13216621988
13216626016
13216632547
13216637918
13216645242
13216651284
13216656961
13216661599
13216666909
13216672891
13216678384
13216684426
13216691018
13216697793
13216703408
13216707376
13216713357
13216717935
13216723916
13216730935
13216735696
13216743203
13216748879
13216754861
13216759072
13216765298
13216771096
13216777383
13216783547
13216789468
13216794778
13216801064
13216806618
13216812661
13216817849
13216823220
13216830544
13216836098
13216842080
13216847512
13216854287
13216859902
13216866250
13216872109
13216879433
13216885293
13216893105
13216898476
13216904824
13216910622
13216917397
13216920693
13216930581
13216936318
13216944008
13216949257
13216955483
