13021905262
13021910877
13021917103
13021922108
13021927174
13021932850
13021938709
13021944202
13021949818
13021956165
13021961963
13021967579
13021972278
13021979297
13021985767
13021994739
13022000843
13022006397
13022013904
13022020923
13022024646
13022031482
13022039539
13022048511
13022055591
13022061573
13022069019
13022075611
13022081104
13022087329
13022093921
13022100269
13022107593
13022114795
13022120410
13022128040
13022133716
13022140003
13022147693
13022153003
13022158984
13022165271
13022172534
13022179309
13022186206
13022192920
13022198596
13022204944
13022213733
13022221973
13022229724
13022237842
13022244495
13022251147
13022258594
13022264453
13022272326
13022278003
13022283679
13022288867
13022294116
13022300586
13022307116
13022313952
13022319140
13022326281
13022332080
13022338061
13022341601
13022346789
13022351367
13022358203
13022362536
13022366992
13022371630
13022375903
13022379687
13022383105
13022387805
13022390917
13022395556
13022399951
13022403186
13022408129
13022412646
13022416857
13022421801
13022426013
13022431140
13022435717
13022440417
13022445239
13022448840
13022454089
13022458849
13022462634
13022467333
13022472033
13022476672
13022480578
13022485156
13022490771
13022494799
13022499926
13022505114
13022509203
13022513415
13022520678
13022525927
13022530016
13022534289
13022538683
13022542773
13022546252
13022552111
13022556200
13022564379
13022569750
13022576525
13022581713
13022589769
13022594713
13022604113
13022612352
13022618456
13022625414
13022632067
13022638720
13022643541
13022649889
13022657946
13022664171
13022667528
13022676073
13022682115
13022688402
13022695482
13022703356
13022711107
13022720506
13022725267
13022731310
13022735643
13022741930
13022748216
13022753099
13022757921
13022762987
13022766954
13022770677
13022775682
13022780565
13022784837
13022789171
13022794054
13022798875
13022803697
13022809007
13022812730
13022817857
13022822496
13022826463
13022832078
13022835863
13022840684
13022845811
13022851671
13022856859
13022860826
13022866868
13022871873
13022876268
13022879625
13022884874
13022891099
13022896043
13022900010
13022906053
13022911607
13022917161
13022921800
13022928758
13022933519
13022937913
13022943284
13022946885
13022952623
13022956651
13022964646
13022973191
13022980027
13022988084
13022993333
13023000230
13023007005
13023013841
13023020432
13023028184
13023035752
13023043199
13023049668
13023056992
13023063645
13023070664
13023077256
13023085679
13023093247
13023101792
13023110032
13023117905
13023124314
13023131638
13023138840
13023144578
13023149338
13023157029
13023160142
13023167527
13023170640
13023176987
13023181992
13023187607
13023192368
13023199997
13023205246
13023209397
13023213669
13023219834
13023224656
13023230149
13023235337
13023241623
13023246567
13023253830
13023259873
13023268845
13023275925
13023283249
13023289658
13023296921
13023301865
13023307541
13023312546
13023317002
13023322067
13023324936
13023330856
13023333664
13023338730
13023342758
13023346909
13023352402
13023356674
13023362534
13023367111
13023372665
13023377487
13023382980
13023386887
13023393661
13023400131
13023406723
13023412643
13023421310
13023426987
13023434067
13023442245
13023449570
13023455978
13023462875
13023468551
13023477890
13023484543
13023492538
13023499435
13023507736
13023514267
13023522262
13023528915
13023537216
13023544601
13023553451
13023561264
13023569320
13023576400
13023583358
13023589645
13023596481
13023602279
13023607589
13023613510
13023620223
13023624984
13023629684
13023634139
13023640243
13023645919
13023651107
13023657821
13023662460
13023668441
13023674056
13023680038
13023685470
13023689803
13023693099
13023701583
13023707320
13023712997
13023716476
13023723373
13023729781
13023733993
13023739425
13023745589
13023751510
13023756087
13023762130
13023767379
13023771712
13023778670
13023783004
13023789473
13023794234
13023797713
13023805159
13023808883
13023816695
13023822066
13023827376
13023832381
13023838057
13023843978
13023850325
13023857711
13023865035
13023869857
13023877425
13023883589
13023892928
13023902205
13023909834
13023917769
13023925154
13023927779
13023938521
13023942976
13023954634
13023963973
13023970198
13023979231
13023985152
13023989668
13024000288
13024007918
13024015059
13024022078
13024031355
13024035994
13024045088
13024051619
13024060469
13024067793
13024076033
13024083174
13024089888
13024096846
13024101851
13024106550
13024113447
13024119185
13024124800
13024129255
13024135786
13024141645
13024147200
13024152815
13024156294
13024165327
13024168989
13024176069
13024181135
13024187849
13024191755
13024199018
13024202864
13024210310
13024214216
13024220991
13024225691
13024231611
13024236677
13024242170
13024246565
13024253767
13024258222
13024264021
13024269697
13024276350
13024282087
13024287885
13024292219
13024295637
13024302900
13024306440
13024313764
13024318830
13024327253
13024330793
13024337690
13024341413
13024347516
13024353071
13024357709
13024365522
13024370893
13024377546
13024383039
13024389142
13024398908
13024405744
13024415387
13024422162
13024431501
13024437726
13024446454
13024452069
13024459821
13024467633
13024475019
13024481671
13024491498
13024499921
13024512555
13024521283
13024528790
13024537579
13024545148
13024556867
13024564862
13024573956
13024582745
13024590924
13024596600
13024602216
13024609174
13024614850
13024620221
13024625531
13024630231
13024638165
13024642682
13024646893
13024650921
13024658002
13024661725
13024671185
13024676739
13024683148
13024691021
13024696148
13024702313
13024708172
13024710614
13024720745
13024725384
13024729779
13024734295
13024742535
13024749249
13024756085
13024763043
13024767803
13024771405
13024777752
13024784039
13024792340
13024797528
13024801983
13024806378
13024812115
13024816509
13024823406
13024829388
13024837261
13024842022
13024846905
13024853375
13024857525
13024864544
13024871014
13024876263
13024883526
13024893780
13024898846
13024907818
13024914898
13024923931
13024931133
13024938152
13024948040
13024954571
13024963177
13024970806
13024979229
13024986797
13024993694
13025002117
13025010723
13025016582
13025025859
13025030803
13025041057
13025049724
13025057048
13025064739
13025073101
13025083599
13025091533
13025096477
13025100994
13025108684
13025114299
13025119060
13025125347
13025130840
13025138103
13025143840
13025147563
13025153789
13025157329
13025167155
13025171123
13025177592
13025184978
13025192546
13025199016
13025204143
13025209270
13025217204
13025222270
13025228923
13025235271
13025242595
13025249309
13025254374
13025260051
13025264323
13025271037
13025276896
13025282267
13025288432
13025295329
13025300639
13025304973
13025310893
13025314921
13025320475
13025326457
13025330729
13025336222
13025341594
13025347148
13025354472
13025359111
13025362590
13025370097
13025376261
13025380412
13025385600
13025392314
13025399699
13025406474
13025413004
13025423380
13025430033
13025440043
13025446513
13025453593
13025461283
13025463847
13025475871
13025483256
13025489176
13025499613
13025505717
13025514200
13025520060
13025524576
13025535624
13025540018
13025549174
13025555033
13025565287
13025571695
13025578837
13025585550
13025595499
13025599649
13025608866
13025615458
13025621500
13025628092
13025633158
13025640360
13025644998
13025652750
13025658121
13025664347
13025668924
13025672464
13025680521
13025687235
13025691873
13025696146
13025703653
13025712137
13025716532
13025721781
13025728189
13025733438
13025739725
13025744669
13025749857
13025755228
13025763406
13025768167
13025774026
13025778909
13025784769
13025791360
13025796732
13025801370
13025806497
13025814432
13025818338
13025826578
13025831277
13025838540
13025843728
13025850809
13025856668
13025864358
13025872781
13025878579
13025883584
13025890909
13025895425
13025901284
13025906411
13025916421
13025922219
13025931436
13025937417
13025944986
13025952554
13025958718
13025966836
13025975930
13025982095
13025989785
13025997476
13026000161
13026011025
13026015664
13026026711
13026031594
13026043313
13026049294
13026058328
13026063332
13026072915
13026079812
13026087991
13026098366
13026106301
13026112221
13026117165
13026121621
13026128274
13026133584
13026140786
13026145547
13026151162
13026156228
13026159768
13026168191
13026171914
13026179543
13026183388
13026190651
13026196938
13026204018
13026209450
13026214638
13026219338
13026225380
13026232521
13026237404
13026243691
13026248757
13026253823
13026260536
13026267250
13026272438
13026277199
13026281044
13026289894
13026294289
13026300881
13026306618
13026311562
13026316506
13026322731
13026328163
13026334938
13026339760
13026345009
13026351906
13026353981
13026363441
13026368629
13026373756
13026377174
13026387855
13026393776
13026400856
13026404396
13026411476
13026417274
13026428810
13026437904
13026444557
13026454628
13026463783
13026470924
13026480446
13026487709
13026495765
13026502967
13026510902
13026518348
13026531593
13026539222
13026548805
13026556190
13026566810
13026574989
13026582862
13026590431
13026603736
13026608741
13026618873
13026626380
13026634803
13026641822
13026647437
13026652686
13026660133
13026665443
13026671119
13026677039
13026682349
13026689307
13026694251
13026699012
13026705543
13026710364
13026714088
13026721778
13026726295
13026732947
13026738135
13026743873
13026751258
13026756934
13026762916
13026769446
13026774268
13026779395
13026785499
13026791541
13026796363
13026803260
13026807776
13026814124
13026818702
13026824012
13026831580
13026835425
13026841773
13026846839
13026853247
13026858191
13026864173
13026870459
13026876746
13026881934
13026886511
13026891760
13026899024
13026905432
13026910803
13026915686
13026922583
13026926978
13026933814
13026939734
13026946936
13026956580
13026964819
13026973486
13026980627
13026987646
13026994177
13027004614
13027014746
13027023474
13027029822
13027037939
13027046423
13027054114
13027060827
13027066443
13027078039
13027083349
13027092810
13027099829
13027108740
13027116125
13027123816
13027130835
13027139196
13027146337
13027155615
13027162145
13027168371
13027171850
13027177954
13027182531
13027187109
13027192724
13027198950
13027203954
13027212072
13027216650
13027223303
13027229528
13027236059
13027243871
13027249670
13027255346
13027262060
13027269689
13027276159
13027281103
13027285863
13027292028
13027298742
13027303564
13027310400
13027314794
13027320226
13027325048
13027330846
13027335180
13027339513
13027346410
13027351598
13027356908
13027364110
13027369176
13027372960
13027380101
13027384252
13027392125
13027396886
13027405431
13027410741
13027415929
13027421544
13027428075
13027432225
13027440526
13027445287
13027450963
13027455846
13027463903
13027472203
13027477391
13027486669
13027494603
13027503514
13027508519
13027519994
13027524876
13027534337
13027541417
13027550023
13027557469
13027565892
13027572179
13027582005
13027588353
13027597264
13027603795
13027613255
13027619542
13027628270
13027634556
13027642735
13027650731
13027657933
13027665867
13027673192
13027680272
13027685399
13027693089
13027698094
13027702794
13027709141
13027713780
13027718418
13027725193
13027731175
13027738865
13027743504
13027749424
13027754124
13027757908
13027765660
13027771092
13027777012
13027783726
13027790440
13027794590
13027803135
13027808262
13027812901
13027817844
13027823277
13027828343
13027835728
13027843418
13027845799
13027854649
13027860142
13027865513
13027872288
13027877842
13027882358
13027890293
13027894749
13027904331
13027910618
13027916294
13027922153
13027928623
13027935337
13027942905
13027947361
13027954624
13027958042
13027965122
13027969150
13027976902
13027982578
13027992038
13027996494
13028005649
13028012180
13028019748
13028026218
13028033969
13028043308
13028049900
13028058078
13028064487
13028070651
13028078647
13028086643
13028094211
13028100009
13028110629
13028116855
13028124973
13028133518
13028141086
13028149753
13028156955
13028165378
13028172458
13028181430
13028189975
13028195834
13028199740
13028207065
13028210666
13028216891
13028222812
13028228976
13028234836
13028241488
13028246737
13028252047
13028257724
13028263705
13028270663
13028275729
13028280917
13028287997
13028294467
13028299716
13028305331
13028312716
13028317965
13028323825
13028330966
13028335421
13028343112
13028347262
13028354830
13028359286
13028365328
13028369906
13028377413
13028383456
13028390048
13028394686
13028399935
13028406405
13028412264
13028418795
13028424654
13028431796
13028436556
13028443575
13028448580
13028454867
13028458773
13028466158
13028470919
13028476595
13028481600
13028487765
13028494051
13028500643
13028509798
13028516207
13028525667
13028534701
13028539522
13028550081
13028555575
13028572786
13028580904
13028589144
13028600435
13028608492
13028616671
13028624056
13028634737
13028642671
13028649935
13028659151
13028666048
13028672579
13028681490
13028687898
13028694734
13028701570
13028711153
13028716646
13028722810
13028726350
13028733186
13028738252
13028743745
13028748384
13028755159
13028759798
13028766511
13028774385
13028780122
13028785860
13028793001
13028796846
13028803621
13028809419
13028815401
13028819734
13028826265
13028832063
13028838655
13028843355
13028849519
13028855439
13028861726
13028868379
13028873018
13028878816
13028882966
13028890596
13028896455
13028900788
13028907075
13028913911
13028919709
13028925996
13028931245
13028937837
13028943513
13028948396
13028953279
13028960603
13028966218
13028971101
13028977265
13028982636
13028990266
13028996064
13029002839
13029008637
13029015107
13029017976
13029030122
13029035554
13029046418
13029051362
13029061555
13029070039
13029079133
13029086823
13029095063
13029101411
13029110566
13029117341
13029125397
13029134125
13029141388
13029149750
13029159699
13029169404
13029172211
13029185456
13029196869
13029208893
13029219208
13029230866
13029242646
13029253815
13029259369
13029264313
13029271576
13029277435
13029291596
13029298126
13029305878
13029312348
13029319305
13029326996
13029333893
13029340240
13029346710
13029351227
13029358246
13029363983
13029370148
13029375580
13029381927
13029386444
13029392670
13029398285
13029402679
13029408844
13029414581
13029419098
13029425079
13029431671
13029437774
13029443084
13029449127
13029454620
13029460846
13029465606
13029471039
13029477081
13029482391
13029488128
13029493133
13029499054
13029504730
13029510772
13029516265
13029521026
13029528533
13029533172
13029538665
13029544708
13029550262
13029559173
13029565582
13029573699
13029580535
13029591094
13029597991
13029605071
13029614288
13029620879
13029627898
13029636504
13029643890
13029653594
13029660857
13029669646
13029675201
13029683318
13029690520
13029700530
13029709319
13029716033
13029725921
13029732573
13029737639
13029748992
13029753203
13029759002
13029764983
13029772307
13029778350
13029783477
13029790679
13029797698
13029802886
13029807891
13029813994
13029820220
13029825713
13029830596
13029836760
13029844084
13029849150
13029852812
13029859465
13029864775
13029870329
13029875701
13029881072
13029886260
13029894927
13029901274
13029907744
13029915678
13029921904
13029927519
13029934721
13029942046
13029946074
13029955534
13029960051
13029967802
13029973234
13029978483
13029985441
13029991423
13029995756
13030000761
13030007475
13030011198
13030017668
13030021025
13030028105
13030035734
13030043303
13030049833
13030058134
13030066313
13030073637
13030081511
13030088896
13030097074
13030104277
13030114408
13030119230
13030129789
13030137236
13030145170
13030150358
13030162809
13030170561
13030176908
13030186064
13030194853
13030203520
13030210661
13030219633
13030224455
13030230314
13030234220
13030241239
13030247282
13030254850
13030258573
13030267484
13030272733
13030279020
13030283781
13030291715
13030297391
13030302274
13030308378
13030312894
13030319120
13030324918
13030331876
13030336881
13030343412
13030349149
13030356900
13030367521
13030387784
13030416837
13030444120
13030462735
13030471707
13030489713
13030511197
13030534390
13030557339
13030575284
13030598294
13030612454
13030621487
13030632290
13030641995
13030658658
13030674893
13030691006
13030706204
13030724270
13030735623
13030747097
13030758450
13030770657
13030780117
13030791592
13030802090
13030811611
13030822048
13030832180
13030842373
13030851223
13030862209
13030871487
13030880703
13030891201
13030900600
13030911098
13030919460
13030929958
13030937710
13030949489
13030958828
13030964626
13030973781
13030979824
13030988796
13030995876
13031003810
13031011135
13031021999
13031028896
13031039333
13031047084
13031053798
13031063320
13031072109
13031081020
13031089198
13031095180
13031103542
13031110500
13031120326
13031130092
13031137721
13031146388
13031153896
13031162135
13031169276
13031178310
13031186732
13031194728
13031203334
13031211574
13031220057
13031228480
13031236232
13031242946
13031253505
13031258571
13031268824
13031277980
13031284694
13031290492
13031297511
13031305445
13031314112
13031322718
13031330836
13031343226
13031352931
13031361292
13031370570
13031380152
13031389246
13031399806
13031409388
13031419215
13031428858
13031438258
13031448634
13031460230
13031469813
13031479395
13031489039
13031498438
13031508936
13031520106
13031529688
13031536219
13031548243
13031558069
13031565516
13031574427
13031581995
13031590052
13031597986
13031606653
13031615137
13031622522
13031630884
13031637659
13031645593
13031653528
13031660608
13031665979
13031676355
13031683252
13031690088
13031698084
13031705530
13031714380
13031720544
13031728479
13031737207
13031744104
13031751611
13031759363
13031769006
13031776880
13031783105
13031790796
13031798791
13031804468
13031814050
13031822046
13031828821
13031835901
13031844995
13031851953
13031859338
13031867517
13031878747
13031885278
13031894677
13031900842
13031907678
13031917199
13031924340
13031931115
13031936669
13031943505
13031947656
13031956811
13031964196
13031970971
13031977929
13031984948
13031990807
13031997521
13032003625
13032008752
13032018823
13032025414
13032031518
13032037743
13032043725
13032051903
13032057519
13032064599
13032068871
13032077782
13032082665
13032086510
13032091027
13032094079
13032100121
13032105309
13032110558
13032115014
13032121422
13032126061
13032131432
13032135338
13032141198
13032147057
13032153222
13032159447
13032165856
13032170250
13032178856
13032187096
13032192955
13032198082
13032201744
13032205834
13032209923
13032214318
13032219384
13032223107
13032227013
13032231652
13032235558
13032239159
13032243492
13032248131
13032254173
13032258812
13032261986
13032266319
13032270470
13032273033
13032279198
13032285668
13032290123
13032294762
13032300865
13032305626
13032309532
13032313927
13032319664
13032324974
13032329185
13032334862
13032338646
13032343773
13032348350
13032353294
13032359215
13032367760
13032373558
13032379051
13032382957
13032387901
13032394127
13032398826
13032403526
13032409019
13032414390
13032418846
13032422752
13032428001
13032432640
13032438560
13032445213
13032452720
13032457115
13032463707
13032468162
13032473045
13032478538
13032484214
13032488243
13032494712
13032499290
13032502647
13032510765
13032514366
13032521018
13032524436
13032530906
13032537254
13032543540
13032547691
13032554832
13032557701
13032567527
13032572837
13032579002
13032584495
13032589073
13032594383
13032600181
13032605857
13032611045
13032617515
13032622092
13032629478
13032635642
13032640098
13032647117
13032652854
13032658652
13032664085
13032671104
13032679099
13032686179
13032689780
13032695945
13032702292
13032709128
13032714499
13032720298
13032725303
13032729819
13032747397
13032753013
13032760032
13032765097
13032769126
13032773642
13032780051
13032784323
13032790183
13032795188
13032801291
13032805930
13032813254
13032819052
13032825644
13032829062
13032835776
13032839011
13032845114
13032851340
13032857443
13032862753
13032870444
13032875571
13032880576
13032885336
13032890646
13032895346
13032901450
13032906760
13032913596
13032919272
13032926169
13032931174
13032935934
13032941183
13032948630
13032954001
13032958456
13032964011
13032970419
13032974631
13032980185
13032986838
13032992453
13032999228
13033003561
13033009909
13033014792
13033019003
13033024252
13033030478
13033037436
13033042746
13033048300
13033055746
13033059897
13033067831
13033070211
13033077902
13033081991
13033088888
13033095907
13033101217
13033106649
13033113302
13033118673
13033124349
13033129293
13033134847
13033140646
13033146200
13033151876
13033158712
13033166403
13033172933
13033178426
13033184164
13033188863
13033194906
13033199911
13033205648
13033211263
13033213888
13033222494
13033231771
13033235555
13033245016
13033249044
13033256979
13033263143
13033268941
13033278646
13033283834
13033289754
13033295919
13033301839
13033307088
13033313375
13033315084
13033323079
13033328389
13033334188
13033338643
13033344136
13033348897
13033353292
13033360067
13033364766
13033370443
13033376668
13033380025
13033386251
13033391500
13033396993
13033402974
13033407247
13033410421
13033417195
13033422505
13033426717
13033430135
13033437703
13033441976
13033449605
13033453267
13033460591
13033465352
13033471883
13033477071
13033483540
13033490682
13033496480
13033501485
13033505940
13033512593
13033517964
13033524861
13033526936
13033536519
13033541768
13033546345
13033552510
13033558125
13033564412
13033569478
13033574666
13033580281
13033587971
13033593464
13033598469
13033603352
13033608906
13033616169
13033622639
13033624775
13033634480
13033642048
13033647786
13033652729
13033660054
13033666035
13033671650
13033676960
13033683186
13033687458
13033694477
13033700764
13033706990
13033712117
13033717488
13033723835
13033729145
13033736103
13033741169
13033745747
13033751728
13033757710
13033762409
13033768940
13033770954
13033779682
13033786335
13033791218
13033795124
13033803120
13033808613
13033815815
13033822346
13033828754
13033835346
13033844562
13033848164
13033856892
13033860737
13033869099
13033873554
13033880451
13033886066
13033892475
13033895893
13033904011
13033907734
13033915363
13033918659
13033925129
13033929584
13033936969
13033940326
13033948810
13033951984
13033958576
13033962970
13033968952
13033973041
13033980793
13033984882
13033992145
13033998004
13034003986
13034007465
13034013324
13034020282
13034026996
13034031818
13034035907
13034041278
13034047016
13034051654
13034056171
13034061725
13034067340
13034073322
13034079425
13034085468
13034092426
13034098895
13034104449
13034110858
13034117206
13034123309
13034129047
13034134662
13034138934
13034142352
13034148639
13034154803
13034160480
13034165851
13034171893
13034174212
13034182941
13034186603
13034192889
13034199054
13034203937
13034207416
13034215960
13034219562
13034225055
13034230914
13034235553
13034242755
13034248065
13034255511
13034260333
13034264727
13034270770
13034275347
13034280719
13034286456
13034293780
13034299639
13034304095
13034314959
13034319476
13034326007
13034332781
13034340899
13034347857
13034357073
13034364520
13034372820
13034381121
13034385882
13034390826
13034400774
13034408343
13034416033
13034421648
13034434893
13034443072
13034450152
13034459063
13034469073
13034475725
13034483965
13034487200
13034503985
13034509051
13034519060
13034526812
13034530291
13034544329
13034548235
13034559649
13034565142
13034573870
13034578936
13034588274
13034595964
13034602495
13034608660
13034614397
13034623125
13034631121
13034633989
13034645464
13034652910
13034661699
13034666277
13034673723
13034680437
13034684038
13034695268
13034699236
13034707536
13034715105
13034722124
13034728105
13034735063
13034740312
13034745073
13034753862
13034761491
13034767900
13034776872
13034785051
13034792131
13034799333
13034806230
13034811174
13034818864
13034825273
13034834306
13034838823
13034849138
13034856218
13034863908
13034869523
13034876542
13034883256
13034890397
13034896134
13034904557
13034909684
13034917802
13034925126
13034930253
13034939286
13034943864
13034952775
13034956986
13034966691
13034973954
13034983415
13034990311
13034998063
13035004777
13035011308
13035017838
13035023881
13035032120
13035038773
13035046342
13035056657
13035062333
13035069901
13035078019
13035087418
13035094987
13035100541
13035107865
13035116471
13035127396
13035135392
13035142899
13035150772
13035155533
13035164322
13035171830
13035177872
13035186966
13035196305
13035207718
13035212418
13035221451
13035228043
13035232926
13035242386
13035250137
13035258804
13035265762
13035274613
13035282242
13035287613
13035295853
13035303482
13035313126
13035320633
13035323929
13035336807
13035344498
13035352615
13035359939
13035366287
13035372757
13035381180
13035387222
13035394119
13035399978
13035408401
13035413223
13035418899
13035424392
13035430557
13035434707
13035440872
13035445999
13035453689
13035458084
13035463211
13035468460
13035473404
13035479019
13035483474
13035489151
13035495376
13035501113
13035503128
13035510635
13035515029
13035520645
13035523818
13035531692
13035539016
13035543289
13035546340
13035554641
13035560378
13035564224
13035569595
13035576370
13035581313
13035585464
13035588393
13035594985
13035599868
13035606216
13035610366
13035616225
13035620254
13035627029
13035630386
13035636306
13035641494
13035647658
13035652175
13035656936
13035661696
13035668838
13035673598
13035681045
13035686721
13035694045
13035698317
13035700149
13035710891
13035715773
13035721694
13035726821
13035733291
13035738295
13035744643
13035750380
13035756545
13035762587
13035768813
13035773696
13035780043
13035786513
13035791518
13035796645
13035802382
13035807936
13035813918
13035821120
13035828749
13035835280
13035843825
13035849562
13035856825
13035864394
13035870070
13035873366
13035880019
13035883131
13035889784
13035893019
13035900099
13035905836
13035913649
13035917921
13035925795
13035932265
13035937331
13035940993
13035949599
13035953810
13035966139
13035974989
13035978346
13035986281
13035993483
13035999647
13036001539
13036010573
13036016310
13036021681
13036026991
13036031263
13036038038
13036044142
13036048719
13036053480
13036059950
13036064650
13036070082
13036073133
13036079603
13036083021
13036090101
13036096205
13036101454
13036106764
13036112928
13036118849
13036123854
13036130811
13036135816
13036142042
13036148634
13036152845
13036160413
13036166822
13036173353
13036180311
13036187208
13036193555
13036198866
13036202283
13036210462
13036214796
13036222913
13036227979
13036236280
13036240247
13036248243
13036252088
13036260145
13036263929
13036271009
13036280103
13036285230
13036292249
13036297010
13036300794
13036309400
13036316846
13036323743
13036329725
13036334668
13036338636
13036347364
13036353284
13036360303
13036365979
13036372510
13036378186
13036385083
13036390760
13036395642
13036402234
13036408643
13036412671
13036419690
13036426160
13036432813
13036438550
13036444959
13036450208
13036456433
13036461316
13036469006
13036473950
13036479810
13036486035
13036492810
13036500256
13036507336
13036513196
13036517346
13036527295
13036532666
13036540478
13036546643
13036553418
13036559399
13036566479
13036572400
13036579358
13036584851
13036592053
13036598767
13036603650
13036610486
13036616284
13036621228
13036627819
13036634716
13036638073
13036647351
13036653454
13036658215
13036663891
13036669995
13036677014
13036682324
13036687756
13036695507
13036700390
13036705822
13036712353
13036718029
13036722851
13036728832
13036734753
13036740002
13036745739
13036751965
13036756970
13036763683
13036767956
13036774059
13036780346
13036785534
13036792431
13036798534
13036803356
13036809032
13036816601
13036821789
13036827282
13036832348
13036839916
13036845898
13036851513
13036856274
13036862377
13036868603
13036874401
13036879711
13036886669
13036891308
13036894787
13036902721
13036906322
13036912853
13036919079
13036926037
13036929821
13036936473
13036942516
13036948803
13036953624
13036958751
13036964550
13036970958
13036977184
13036984264
13036990978
13036996654
13037002147
13037005687
13037013805
13037018382
13037025401
13037029857
13037036754
13037041637
13037049815
13037056468
13037062267
13037067821
13037073558
13037078990
13037083873
13037090465
13037096629
13037102245
13037108653
13037113231
13037118907
13037125865
13037131175
13037138805
13037147410
13037155650
13037162486
13037168590
13037176707
13037182994
13037188243
13037195079
13037201487
13037206187
13037212779
13037217173
13037223826
13037228770
13037234813
13037239756
13037245311
13037250621
13037257090
13037262217
13037268016
13037272166
13037277049
13037283030
13037288462
13037294932
13037300364
13037305125
13037310557
13037316599
13037318980
13037327159
13037330821
13037336314
13037341136
13037348032
13037354685
13037360301
13037365550
13037372202
13037377696
13037383250
13037387949
13037394053
13037401133
13037406077
13037410593
13037417734
13037422678
13037429636
13037434275
13037440501
13037445200
13037450327
13037458079
13037462534
13037470652
13037474680
13037480295
13037486033
13037493418
13037499949
13037505198
13037509897
13037516489
13037521494
13037528330
13037533335
13037540293
13037546335
13037551889
13037560190
13037563974
13037570566
13037574716
13037582529
13037588510
13037593759
13037598825
13037606821
13037611215
13037618967
13037624094
13037629343
13037635324
13037641855
13037649423
13037653635
13037658518
13037664682
13037670664
13037672739
13037682321
13037687692
13037692209
13037696359
13037704477
13037708017
13037714853
13037720407
13037727731
13037734811
13037741037
13037749277
13037757150
13037760629
13037767770
13037773752
13037780588
13037786813
13037793283
13037799875
13037804635
13037812143
13037818063
13037822274
13037828378
13037833017
13037840646
13037846261
13037853402
13037858346
13037864328
13037870065
13037875558
13037881234
13037887094
13037892160
13037900033
13037904489
13037911080
13037916696
13037924020
13037928658
13037932443
13037940926
13037945077
13037953866
13037957589
13037964303
13037969308
13037976327
13037983224
13037989144
13037993966
13038000558
13038006905
13038009164
13038018380
13038021981
13038028878
13038034310
13038042184
13038045968
13038052804
13038059579
13038065133
13038072091
13038077035
13038081856
13038089486
13038094735
13038103158
13038108040
13038114205
13038120247
13038124825
13038131539
13038135445
13038143807
13038148079
13038155953
13038161324
13038167488
13038173470
13038179329
13038184151
13038190254
13038197579
13038204903
13038210213
13038217781
13038222725
13038229134
13038236397
13038242989
13038250984
13038253670
13038264168
13038270210
13038274971
13038278633
13038288338
13038292000
13038300301
13038304695
13038312813
13038316536
13038323799
13038329231
13038335823
13038340828
13038348091
13038353157
13038359199
13038367439
13038374702
13038379097
13038387825
13038393928
13038400459
13038408088
13038413765
13038422004
13038428169
13038433418
13038439643
13038446662
13038448738
13038458747
13038464302
13038470039
13038474433
13038481636
13038487617
13038492561
13038499336
13038504768
13038510749
13038518379
13038522102
13038528755
13038534370
13038541999
13038547248
13038553169
13038558418
13038563361
13038570380
13038576606
13038581428
13038588142
13038594733
13038600715
13038605537
13038609687
13038618171
13038621955
13038630622
13038634589
13038642097
13038647529
13038654120
13038660285
13038666511
13038672065
13038678718
13038683600
13038689582
13038696540
13038702094
13038707465
13038712043
13038720160
13038726142
13038731757
13038737799
13038744452
13038749884
13038754889
13038762397
13038768256
13038772895
13038779914
13038784857
13038790961
13038797980
13038801825
13038809943
13038816229
13038822577
13038826422
13038834723
13038838568
13038846015
13038851386
13038858160
13038863715
13038870184
13038874762
13038880194
13038886481
13038893317
13038898321
13038902106
13038910956
13038917486
13038923956
13038929632
13038935797
13038941839
13038946234
13038949957
13038958014
13038963446
13038970038
13038975836
13038983221
13038988592
13038997198
13039001898
13039011541
13039016851
13039027105
13039033697
13039038519
13039045294
13039053106
13039059393
13039066351
13039072882
13039079107
13039084356
13039090887
13039096197
13039102667
13039108953
13039114752
13039121588
13039123907
13039133184
13039137090
13039145330
13039149236
13039156683
13039162115
13039168768
13039174749
13039181219
13039186590
13039193426
13039198919
13039205144
13039211309
13039213506
13039223211
13039228643
13039234258
13039239995
13039244878
13039251836
13039257085
13039262334
13039269109
13039274480
13039281011
13039286016
13039291753
13039297063
13039303167
13039309575
13039315374
13039322393
13039324468
13039334111
13039339727
13039344731
13039348394
13039357305
13039361150
13039368779
13039375371
13039382512
13039388555
13039394841
13039399968
13039405278
13039409856
13039416570
13039422490
13039428472
13039435246
13039441716
13039446538
13039450200
13039457829
13039462041
13039470586
13039477177
13039483708
13039489018
13039495915
13039499272
13039507939
13039513066
13039520512
13039526555
13039535161
13039538945
13039546147
13039551396
13039557927
13039563176
13039569340
13039576481
13039581547
13039586735
13039594609
13039599247
13039606144
13039610905
13039618962
13039624516
13039630253
13039638127
13039644841
13039652653
13039659977
13039666020
13039670292
13039679325
13039684574
13039692753
13039698673
13039705692
13039712040
13039717838
13039725590
13039729984
13039737980
13039743839
13039748539
13039753666
13039759403
13039765324
13039770023
13039776249
13039782475
13039788517
13039794743
13039800663
13039804996
13039808353
13039816166
13039819645
13039827030
13039832706
13039840885
13039844486
13039853397
13039857120
13039866215
13039868900
13039878910
13039881473
13039891910
13039897464
13039902225
13039906253
13039915409
13039919620
13039925724
13039932499
13039939579
13039945194
13039950870
13039955814
13039961917
13039966861
13039972354
13039978031
13039986942
13039994449
13039999393
13040006168
13040011844
13040019290
13040023502
13040030582
13040037051
13040044620
13040048526
13040057132
13040061160
13040070193
13040074283
13040082950
13040087222
13040094730
13040100284
13040107303
13040112918
13040118960
13040124087
13040129275
13040136722
13040142703
13040147830
13040154605
13040159121
13040165103
13040171206
13040177432
13040183047
13040189456
13040198733
13040206057
13040213504
13040220645
13040229983
13040236941
13040239871
13040252139
13040258853
13040269046
13040276431
13040286563
13040293948
13040300234
13040310732
13040320681
13040330325
13040339480
13040344241
13040357790
13040363772
13040376711
13040381838
13040391543
13040399355
13040405642
13040416140
13040428469
13040436587
13040444155
13040453737
13040459658
13040464724
13040473086
13040480776
13040487734
13040494875
13040503359
13040510683
13040513491
13040526674
13040531923
13040539492
13040545839
13040553957
13040560366
13040567324
13040577822
13040585634
13040592775
13040599306
13040606142
13040612489
13040620729
13040628298
13040636842
13040643739
13040650453
13040654909
13040665285
13040670045
13040678224
13040684328
13040692018
13040698061
13040704835
13040714845
13040722719
13040728761
13040735719
13040742433
13040748781
13040756410
13040762575
13040768007
13040776429
13040783815
13040790834
13040797609
13040804445
13040811219
13040818605
13040825807
13040834535
13040840394
13040847169
13040854982
13040863587
13040870057
13040876039
13040883485
13040891175
13040898744
13040910340
13040918580
13040924500
13040933656
13040940797
13040943971
13040956971
13040962769
13040969605
13040978150
13040988343
13040996461
13041001893
13041013734
13041021851
13041028199
13041035706
13041042115
13041051758
13041062256
13041071045
13041077637
13041085999
13041093445
13041098999
13041109742
13041117737
13041124146
13041134522
13041143860
13041151551
13041156922
13041165589
13041173035
13041180908
13041187561
13041190552
13041200806
13041211914
13041221253
13041229675
13041237793
13041245789
13041254944
13041262085
13041267517
13041275757
13041286255
13041293945
13041301208
13041310120
13041317261
13041322571
13041332031
13041340698
13041345215
13041352661
13041359558
13041365051
13041370422
13041376587
13041381408
13041385681
13041392822
13041397766
13041404602
13041409423
13041415588
13041420105
13041423645
13041431884
13041435485
13041441772
13041448364
13041454284
13041459472
13041466247
13041471618
13041476928
13041483764
13041489013
13041495483
13041502197
13041507446
13041512206
13041516845
13041524597
13041530334
13041535888
13041540405
13041548339
13041553344
13041559386
13041563659
13041570251
13041574584
13041580749
13041586181
13041593444
13041598144
13041603271
13041609557
13041614440
13041619872
13041624206
13041631286
13041636107
13041642821
13041649535
13041655333
13041659728
13041666381
13041671203
13041675536
13041682860
13041687804
13041694579
13041698729
13041705748
13041709960
13041715697
13041721068
13041727538
13041734191
13041741149
13041744506
13041752562
13041758055
13041763243
13041768492
13041776061
13041782408
13041792845
13041799437
13041807677
13041813658
13041818968
13041829344
13041833739
13041842467
13041849547
13041856383
13041867003
13041875548
13041883787
13041890990
13041894041
13041906798
13041914061
13041923521
13041933775
13041938170
13041953184
13041956297
13041970335
13041976927
13041986326
13041995359
13042003050
13042014280
13042021482
13042030149
13042036009
13042041624
13042048216
13042053038
13042059446
13042066282
13042070921
13042077513
13042082823
13042089231
13042095579
13042100034
13042106870
13042113706
13042119077
13042123594
13042130735
13042137388
13042143980
13042148618
13042155698
13042160825
13042168150
13042172727
13042179380
13042184202
13042191343
13042196531
13042204465
13042210752
13042216550
13042221372
13042227720
13042234006
13042239927
13042246702
13042252805
13042257871
13042261594
13042270200
13042274167
13042282163
13042286008
13042292905
13042298642
13042304929
13042314206
13042320005
13042324948
13042331174
13042337522
13042344358
13042351621
13042356748
13042364743
13042370725
13042377378
13042381528
13042389218
13042394650
13042401486
13042407529
13042414304
13042419858
13042425839
13042430783
13042437985
13042442807
13042449399
13042455869
13042461911
13042469235
13042474362
13042481442
13042488522
13042495419
13042501340
13042507626
13042511471
13042519711
13042524045
13042531003
13042536496
13042544003
13042549985
13042556088
13042560666
13042567502
13042572506
13042578610
13042586850
13042594540
13042601498
13042609066
13042614743
13042620480
13042628659
13042635006
13042640438
13042648007
13042653439
13042661068
13042665890
13042672421
13042678341
13042684262
13042690121
13042692013
13042700741
13042706783
13042711666
13042715511
13042724972
13042729794
13042736141
13042741390
13042747616
13042753109
13042759335
13042766048
13042771114
13042778377
13042783138
13042790096
13042796627
13042801632
13042807369
13042813778
13042820247
13042825313
13042831173
13042836361
13042843807
13042848812
13042852657
13042861080
13042865535
13042874508
13042880916
13042887447
13042893245
13042898494
13042903804
13042910946
13042916561
13042921566
13042928218
13042934261
13042941219
13042947322
13042952693
13042956295
13042965633
13042969966
13042977107
13042981258
13042989742
13042995418
13043002071
13043008235
13043014156
13043019100
13043025264
13043030574
13043038936
13043043880
13043050655
13043056270
13043060054
13043068477
13043072444
13043079707
13043085078
13043091609
13043097529
13043103633
13043108638
13043115108
13043122859
13043127681
13043134150
13043141353
13043147761
13043153682
13043160518
13043162654
13043171260
13043174922
13043183528
13043188411
13043195430
13043201106
13043209101
13043214534
13043220332
13043225581
13043233332
13043240473
13043247492
13043253413
13043261470
13043267085
13043270808
13043279780
13043283686
13043291438
13043297358
13043304438
13043310664
13043315547
13043319331
13043327387
13043332819
13043338068
13043343073
13043348627
13043356196
13043362238
13043366816
13043372614
13043378046
13043385187
13043389887
13043397211
13043403498
13043405878
13043414362
13043418146
13043426691
13043433039
13043438227
13043443598
13043450251
13043455744
13043462763
13043468927
13043475336
13043480646
13043485895
13043493952
13043500116
13043506586
13043511591
13043518244
13043523432
13043529718
13043533686
13043542047
13043549738
13043554621
13043560053
13043566950
13043572382
13043578485
13043585138
13043590387
13043595514
13043603082
13043607782
13043614069
13043620294
13043627008
13043631525
13043639032
13043644159
13043649957
13043657220
13043661188
13043668451
13043673639
13043680109
13043685236
13043693048
13043698724
13043706415
13043711786
13043719781
13043725946
13043731866
13043737481
13043744500
13043750665
13043759149
13043764947
13043770501
13043775750
13043783258
13043788018
13043795037
13043799920
13043806268
13043813104
13043819329
13043825494
13043831109
13043836053
13043843011
13043847833
13043854241
13043860650
13043866021
13043874444
13043880853
13043887261
13043893121
13043899407
13043906060
13043912225
13043920098
13043925103
13043931878
13043938531
13043944878
13043950188
13043956719
13043960748
13043969781
13043974908
13043980706
13043984368
13043991997
13043998284
13044004388
13044011101
13044016533
13044022454
13044029717
13044035088
13044040276
13044047051
13044053277
13044058098
13044066033
13044070916
13044077263
13044084160
13044090325
13044095025
13044099114
13044109063
13044115715
13044120842
13044127556
13044132439
13044138176
13044144524
13044149712
13044156792
13044162285
13044168938
13044174187
13044180657
13044185539
13044191887
13044198784
13044204277
13044210869
13044217400
13044224419
13044228325
13044236321
13044240593
13044247978
13044253349
13044259026
13044264580
13044271599
13044276543
13044283379
13044288811
13044294914
13044301323
13044306572
13044313835
13044320244
13044327263
13044330925
13044339897
13044343864
13044351738
13044355583
13044362602
13044370903
13044376152
13044381889
13044388847
13044394218
13044399040
13044405937
13044412834
13044417656
13044424491
13044431266
13044437553
13044442558
13044446159
13044455741
13044459831
13044467155
13044473503
13044480583
13044486015
13044491996
13044498893
13044504630
13044509574
13044518119
13044523978
13044531303
13044536979
13044544730
13044551017
13044554862
13044563712
13044567985
13044575553
13044582511
13044590812
13044595145
13044604240
13044611014
13044616019
13044620902
13044626456
13044632621
13044637504
13044644217
13044649772
13044653983
13044660087
13044664603
13044670707
13044677848
13044685172
13044690055
13044696708
13044702506
13044706107
13044714713
13044718558
13044726493
13044733695
13044738455
13044743888
13044750785
13044756827
13044762137
13044766898
13044774222
13044779471
13044787222
13044791861
13044798026
13044804495
13044806876
13044815482
13044819510
13044827628
13044832694
13044839774
13044843558
13044850638
13044856863
13044862112
13044866812
13044872794
13044877554
13044884390
13044891897
13044896719
13044901358
13044907583
13044911856
13044918081
13044924002
13044929861
13044936392
13044941580
13044947378
13044952688
13044959829
13044964895
13044970266
13044975515
13044980825
13044985769
13044992056
13044997305
13045003286
13045009329
13045014883
13045019522
13045025869
13045031668
13045037039
13045042837
13045046926
13045054067
13045059683
13045066397
13045071157
13045077993
13045081777
13045087209
13045092275
13045099722
13045104604
13045111501
13045116811
13045123891
13045130178
13045137136
13045142446
13045148672
13045155141
13045161123
13045166250
13045174001
13045180837
13045187246
13045193288
13045197500
13045206350
13045211843
13045219350
13045224599
13045233754
13045237905
13045244985
13045251394
13045256460
13045262502
13045266835
13045272451
13045278066
13045282949
13045288808
13045295095
13045300771
13045306447
13045313039
13045320546
13045325795
13045330800
13045338918
13045343556
13045348989
13045355886
13045360768
13045366017
13045371327
13045380483
13045384389
13045390431
13045395741
13045402638
13045408681
13045415151
13045420338
13045425771
13045431874
13045437550
13045442250
13045448415
13045454030
13045459279
13045465932
13045471303
13045478322
13045483754
13045488393
13045494496
13045499684
13045505482
13045513783
13045518239
13045526600
13045530812
13045536915
13045542286
13045547963
13045553273
13045559498
13045565602
13045572621
13045577992
13045585499
13045590199
13045595204
13045599842
13045604725
13045610646
13045616932
13045620655
13045627186
13045633045
13045638417
13045642262
13045649647
13045655018
13045662159
13045669789
13045677662
13045682301
13045692494
13045700001
13045703663
13045713856
13045723743
13045732594
13045741016
13045749683
13045757191
13045760548
13045772449
13045780872
13045788257
13045797352
13045808216
13045819141
13045827137
13045837085
13045840564
13045853443
13045859058
13045870655
13045878955
13045889454
13045896961
13045905567
13045913990
13045919666
13045926624
13045933582
13045941516
13045950855
13045958850
13045966052
13045971485
13045980029
13045986987
13045996204
13046003589
13046008838
13046021777
13046027087
13046040210
13046047961
13046056201
13046064380
13046073108
13046082446
13046090259
13046093555
13046105334
13046114062
13046123340
13046131030
13046141650
13046149096
13046155017
13046164599
13046173205
13046182177
13046190234
13046199389
13046207751
13046216296
13046226184
13046234057
13046237658
13046248217
13046256579
13046264514
13046272814
13046280932
13046290026
13046295275
13046304492
13046311816
13046319384
13046326281
13046331530
13046342394
13046348070
13046357470
13046365343
13046372607
13046379442
13046385485
13046393175
13046401293
13046409044
13046416186
13046424853
13046431811
13046437121
13046446764
13046453966
13046461535
13046468065
13046475695
13046485277
13046491137
13046499315
13046506823
13046515978
13046524279
13046530199
13046540575
13046548876
13046555528
13046563524
13046573900
13046581285
13046588243
13046596117
13046603563
13046614366
13046624803
13046630540
13046643419
13046649828
13046658983
13046667589
13046675584
13046683031
13046690721
13046699449
13046705614
13046716539
13046725206
13046739671
13046747361
13046750169
13046763353
13046769395
13046777452
13046784471
13046793382
13046801866
13046812608
13046821580
13046829209
13046838487
13046845506
13046851304
13046858750
13046864060
13046874253
13046879502
13046885972
13046890305
13046896592
13046901109
13046905991
13046912339
13046920213
13046926377
13046930100
13046937974
13046943101
13046948350
13046952805
13046959336
13046964585
13046972214
13046977280
13046984238
13046990342
13046995041
13047000779
13047005356
13047011582
13047018418
13047023179
13047029282
13047035935
13047041367
13047045884
13047051316
13047058091
13047065232
13047070115
13047073533
13047082261
13047087021
13047092575
13047097397
13047104355
13047110520
13047117478
13047122727
13047128159
13047132797
13047139450
13047143845
13047150376
13047155686
13047162888
13047168015
13047173386
13047179611
13047184250
13047190659
13047194016
13047201096
13047208420
13047214462
13047217819
13047224838
13047230270
13047235214
13047240707
13047246994
13047253464
13047259811
13047264938
13047270309
13047276413
13047281784
13047286789
13047292831
13047297531
13047304916
13047309555
13047316269
13047320663
13047327316
13047332138
13047339706
13047345321
13047351181
13047359176
13047364914
13047372848
13047378158
13047383773
13047388656
13047396041
13047403183
13047410507
13047419784
13047424484
13047430953
13047437911
13047442123
13047449813
13047457321
13047463424
13047469467
13047475631
13047481674
13047485702
13047491195
13047496627
13047501571
13047507186
13047512496
13047517867
13047521896
13047527511
13047533553
13047539413
13047546737
13047552169
13047557296
13047561813
13047566939
13047572433
13047578475
13047583053
13047589095
13047595931
13047601851
13047606612
13047611983
13047617782
13047623336
13047628707
13047635543
13047642440
13047647078
13047653304
13047657882
13047663802
13047670028
13047674910
13047679976
13047688582
13047693709
13047699080
13047704879
13047709822
13047716292
13047720442
13047728072
13047732955
13047739485
13047742781
13047750289
13047753829
13047761763
13047765425
13047773238
13047779341
13047784651
13047789778
13047796126
13047801070
13047807539
13047812178
13047818098
13047824812
13047830672
13047835371
13047842390
13047847212
13047853987
13047859053
13047865217
13047871809
13047880354
13047886275
13047893782
13047900007
13047910078
13047916426
13047922835
13047932051
13047937483
13047947737
13047955122
13047962751
13047969893
13047976545
13047986616
13047989668
13047999556
13048007429
13048021467
13048025007
13048036909
13048043257
13048053205
13048060835
13048069990
13048078108
13048085920
13048099531
13048107160
13048113813
13048122236
13048129072
13048137434
13048143659
13048152021
13048161176
13048166913
13048172773
13048178693
13048184186
13048190595
13048196577
13048206281
13048213849
13048224531
13048229841
13048237287
13048244428
13048250654
13048255109
13048260968
13048266034
13048271222
13048275861
13048280439
13048284833
13048289106
13048295514
13048300214
13048304669
13048309125
13048313642
13048317975
13048322064
13048327008
13048332074
13048337079
13048341168
13048346539
13048351789
13048356610
13048361371
13048365338
13048372235
13048377911
13048382855
13048387006
13048392438
13048397260
13048402509
13048406537
13048412640
13048417889
13048424664
13048429608
13048435223
13048439984
13048446210
13048450665
13048459515
13048464825
13048469708
13048473859
13048478924
13048484784
13048490399
13048497479
13048503827
13048509015
13048513470
13048519391
13048523785
13048529461
13048535321
13048543744
13048549481
13048555951
13048561383
13048566571
13048569989
13048577801
13048585064
13048590191
13048596173
13048600750
13048606243
13048611431
13048614788
13048622418
13048631024
13048634930
13048642254
13048647686
13048654034
13048660565
13048667828
13048673016
13048678997
13048684673
13048689861
13048696026
13048701580
13048705425
13048711468
13048716412
13048723370
13048729290
13048734661
13048740520
13048745892
13048751202
13048755413
13048760967
13048767986
13048772686
13048778545
13048784527
13048789654
13048793743
13048798931
13048804790
13048812114
13048818401
13048823528
13048830364
13048837078
13048842144
13048848308
13048852825
13048859905
13048864605
13048869365
13048875835
13048881328
13048885784
13048891216
13048897502
13048903850
13048909770
13048914653
13048920879
13048927104
13048931987
13048936504
13048942424
13048948345
13048955058
13048960613
13048965556
13048970073
13048977580
13048983318
13048989421
13048996562
13049002849
13049009868
13049015178
13049019633
13049025676
13049031474
13049036662
13049043254
13049048442
13049054484
13049059917
13049065288
13049070659
13049075114
13049081035
13049087626
13049093852
13049100261
13049105693
13049113872
13049119059
13049126079
13049131450
13049138591
13049145854
13049150981
13049157939
13049162516
13049168559
13049174296
13049178691
13049185282
13049194316
13049199198
13049202372
13049211161
13049216593
13049223918
13049230937
13049236491
13049243876
13049251750
13049258097
13049262858
13049269633
13049274760
13049278605
13049288859
13049293986
13049299845
13049305338
13049310709
13049314494
13049321085
13049324320
13049331339
13049338236
13049343668
13049346781
13049353373
13049356669
13049363077
13049368693
13049374735
13049380472
13049387186
13049392008
13049397257
13049402140
13049410135
13049415506
13049420633
13049425882
13049433085
13049438395
13049444559
13049449625
13049455484
13049459757
13049464945
13049471231
13049477579
13049482584
13049489603
13049494181
13049500772
13049505167
13049511087
13049517496
13049525858
13049531778
13049535868
13049543375
13049548013
13049554239
13049557840
13049565347
13049570108
13049578470
13049582071
13049590067
13049595132
13049598917
13049604593
13049608499
13049617654
13049624307
13049628702
13049634866
13049641336
13049646158
13049652933
13049658792
13049665506
13049672098
13049677713
13049681985
13049687112
13049691629
13049696756
13049701700
13049709878
13049713357
13049720437
13049726114
13049730203
13049736856
13049742105
13049751382
13049757241
13049765054
13049770974
13049780008
13049786660
13049792764
13049799722
13049807168
13049823220
13049826028
13049840249
13049846841
13049856790
13049864968
13049869058
13049881692
13049889932
13049901955
13049906289
13049915810
13049922341
13049929421
13049935403
13049943032
13049951638
13049959206
13049965737
13049971963
13049978737
13049985085
13049992592
13049998330
13050004189
13050009438
13050017922
13050024941
13050030190
13050035256
13050041481
13050047707
13050052651
13050057045
13050064919
13050071144
13050075844
13050083351
13050086647
13050093605
13050097023
13050105202
13050109474
13050118263
13050124184
13050129494
13050134499
13050139382
13050145607
13050150063
13050157753
13050163979
13050169289
13050175270
13050179848
13050187111
13050191689
13050197365
13050203407
13050208961
13050215309
13050221046
13050225441
13050232033
13050236427
13050239601
13050248756
13050255409
13050261635
13050265602
13050273475
13050276832
13050283546
13050288368
13050294349
13050300270
13050309120
13050313087
13050320961
13050324867
13050332496
13050337623
13050342994
13050348182
13050356178
13050361488
13050367958
13050372963
13050379249
13050384681
13050391517
13050399818
13050409034
13050414039
13050422096
13050429542
13050438148
13050442542
13050452064
13050459571
13050471168
13050479041
13050488868
13050493873
13050503089
13050510413
13050518958
13050530860
13050539771
13050550208
13050560706
13050570045
13050577613
13050583533
13050593787
13050601172
13050607764
13050616004
13050624854
13050630774
13050637061
13050644202
13050650672
13050656226
13050659888
13050667212
13050674353
13050680335
13050683936
13050691321
13050695227
13050702674
13050707373
13050712927
13050718299
13050725318
13050730628
13050736792
13050741553
13050747229
13050751868
13050758093
13050763831
13050769202
13050775610
13050781165
13050788489
13050794104
13050798499
13050804541
13050810278
13050817664
13050824133
13050827612
13050834936
13050838476
13050845557
13050850989
13050857092
13050864111
13050870703
13050876074
13050882178
13050887671
13050893408
13050897802
13050903540
13050908850
13050916662
13050923254
13050929174
13050933691
13050939611
13050944006
13050947241
13050956579
13050962561
13050969274
13050973242
13050980383
13050984350
13050991857
13050995764
13051002844
13051010595
13051019872
13051023779
13051031286
13051036779
13051044897
13051048681
13051056493
13051061804
13051068334
13051074499
13051079382
13051084875
13051091650
13051096410
13051102880
13051108434
13051115148
13051120946
13051123144
13051132421
13051138280
13051142919
13051146520
13051154394
13051159337
13051168188
13051173376
13051179784
13051185705
13051193212
13051198400
13051204809
13051211095
13051217565
13051223363
13051232396
13051238317
13051244786
13051250035
13051253759
13051261388
13051267430
13051274266
13051277928
13051286107
13051289830
13051296971
13051302831
13051308812
13051314061
13051319005
13051323766
13051330480
13051335912
13051342442
13051348058
13051353551
13051360082
13051366063
13051371251
13051375218
13051383214
13051386937
13051394444
13051398656
13051404942
13051410313
13051416722
13051422337
13051428685
13051434361
13051440404
13051445653
13051450658
13051456883
13051462498
13051467747
13051474278
13051480321
13051484044
13051491124
13051495030
13051502415
13051507542
13051513157
13051518834
13051525425
13051530674
13051536351
13051541233
13051546360
13051552830
13051558262
13051565098
13051570225
13051576145
13051580113
13051587864
13051591893
13051598728
13051603245
13051611424
13051614598
13051622593
13051628636
13051633763
13051639378
13051645176
13051650974
13051657078
13051664829
13051669590
13051675694
13051680027
13051686741
13051692051
13051696690
13051705235
13051710361
13051717075
13051722691
13051727512
13051733372
13051738987
13051743259
13051750767
13051755344
13051758762
13051766636
13051770054
13051778660
13051784214
13051793857
13051799961
13051805393
13051813144
13051817905
13051823642
13051830539
13051836643
13051842624
13051848789
13051855259
13051860935
13051866611
13051871128
13051876865
13051880222
13051888462
13051894626
13051899814
13051903049
13051909763
13051913303
13051921298
13051926059
13051932224
13051938144
13051943515
13051948520
13051954379
13051959689
13051966525
13051971225
13051976047
13051983981
13051989902
13051994540
13052000888
13052005771
13052013278
13052018222
13052025058
13052029269
13052034213
13052042697
13052047519
13052055148
13052058871
13052065280
13052071078
13052078525
13052085177
13052090915
13052096286
13052102267
13052107333
13052112948
13052117282
13052124423
13052130221
13052138217
13052143161
13052149081
13052154391
13052157992
13052166354
13052170199
13052177462
13052183932
13052191256
13052196566
13052202731
13052210116
13052215060
13052219943
13052226046
13052232699
13052239413
13052246676
13052251559
13052257174
13052260653
13052268160
13052271761
13052278780
13052284090
13052290499
13052295626
13052301974
13052307589
13052313814
13052319002
13052327364
13052331881
13052339937
13052345370
13052351351
13052356966
13052363070
13052368441
13052376497
13052382418
13052385164
13052397616
13052404329
13052409395
13052413607
13052422274
13052428621
13052435823
13052443697
13052450533
13052456636
13052462801
13052467928
13052473787
13052478487
13052485567
13052491365
13052499727
13052503450
13052510286
13052514437
13052522066
13052527376
13052532808
13052537325
13052544344
13052549715
13052555330
13052561433
13052567537
13052572176
13052578096
13052585176
13052592195
13052599031
13052604097
13052608797
13052614107
13052620271
13052626192
13052633455
13052638521
13052644197
13052649812
13052656587
13052662080
13052666902
13052671602
13052677461
13052683687
13052686189
13052695344
13052699434
13052705842
13052711213
13052718477
13052723848
13052729646
13052734590
13052740571
13052746125
13052752473
13052757905
13052763642
13052768464
13052775544
13052781282
13052789582
13052795381
13052802827
13052808137
13052814057
13052820771
13052826142
13052832490
13052838960
13052845979
13052851533
13052856721
13052862702
13052868440
13052873444
13052879182
13052886140
13052892731
13052898835
13052905000
13052910126
13052915864
13052922028
13052924226
13052933442
13052937958
13052946442
13052950349
13052958466
13052962617
13052969575
13052974335
13052981110
13052989228
13052995087
13053000458
13053006867
13053011811
13053017304
13053024140
13053030182
13053037079
13053044342
13053050141
13053057465
13053061066
13053069306
13053074372
13053080170
13053085297
13053091828
13053097260
13053104401
13053109833
13053115998
13053120819
13053125641
13053130219
13053137970
13053142670
13053148773
13053153290
13053160370
13053165009
13053171173
13053175568
13053182831
13053187653
13053190948
13053199005
13053202301
13053210175
13053213654
13053220611
13053227753
13053233429
13053238800
13053244842
13053251434
13053255829
13053261932
13053267242
13053273407
13053279754
13053286834
13053291656
13053297394
13053303253
13053310028
13053312164
13053320526
13053328216
13053333465
13053339080
13053345855
13053351715
13053357330
13053362701
13053369049
13053374786
13053382781
13053387725
13053393829
13053399810
13053407195
13053413604
13053422027
13053426116
13053434905
13053441314
13053447418
13053453338
13053459441
13053464813
13053470428
13053475982
13053482696
13053487884
13053491973
13053501495
13053505523
13053513579
13053517730
13053524261
13053530425
13053538970
13053542571
13053550933
13053556060
13053562957
13053568206
13053572173
13053580352
13053587615
13053593718
13053598540
13053606231
13053613250
13053619902
13053627410
13053632537
13053642913
13053656035
13053665007
13053668914
13053682769
13053689421
13053699553
13053708403
13053717803
13053724211
13053734892
13053747588
13053753264
13053763701
13053769865
13053779326
13053786711
13053792693
13053802885
13053810576
13053820891
13053828703
13053834685
13053841826
13053848723
13053855559
13053860869
13053868559
13053875700
13053883391
13053889738
