13282458306
13282463860
13282468804
13282474602
13282479729
13282484978
13282490471
13282496026
13282501824
13282506829
13282511895
13282516350
13282522026
13282528069
13282532891
13282539849
13282545037
13282551384
13282558281
13282563774
13282570305
13282576531
13282583733
13282590691
13282596916
13282603996
13282610344
13282617363
13282624626
13282631157
13282637016
13282642937
13282648796
13282656609
13282664787
13282674065
13282682671
13282691582
13282695427
13282705803
13282716606
13282723137
13282735710
13282742729
13282750786
13282757194
13282765495
13282771538
13282778190
13282785270
13282791069
13282795341
13282804435
13282809501
13282814811
13282820854
13282828056
13282832389
13282840141
13282845634
13282851982
13282858940
13282865348
13282871147
13282875663
13282882194
13282887687
13282893241
13282900504
13282905815
13282908134
13282914298
13282918754
13282923332
13282926933
13282932792
13282937309
13282942130
13282945792
13282950980
13282956290
13282960441
13282965751
13282970756
13282975700
13282981010
13282985709
13282990775
13282995353
13282999625
13283004874
13283010673
13283016166
13283021232
13283025809
13283030021
13283034476
13283039603
13283044059
13283049186
13283053946
13283058646
13283063163
13283068107
13283072806
13283078299
13283084525
13283089225
13283095145
13283099051
13283104911
13283109305
13283113944
13283119559
13283124198
13283127433
13283136466
13283156119
13283167899
13283179068
13283188834
13283197501
13283206839
13283215811
13283226004
13283234122
13283240714
13283247000
13283253531
13283260855
13283268423
13283276114
13283285696
13283292471
13283301016
13283308401
13283315115
13283322378
13283329153
13283335013
13283343252
13283350088
13283355215
13283360647
13283364432
13283370291
13283376211
13283381521
13283387014
13283392263
13283397024
13283402151
13283406851
13283411673
13283418142
13283422110
13283427786
13283431631
13283438162
13283440542
13283447317
13283451345
13283457205
13283461111
13283466848
13283470816
13283476919
13283482473
13283487173
13283492300
13283499380
13283504202
13283509451
13283513845
13283518240
13283521352
13283526296
13283530508
13283536245
13283541555
13283545950
13283550100
13283554739
13283559011
13283564138
13283569082
13283575063
13283580679
13283585439
13283592214
13283597585
13283605581
13283613576
13283620717
13283629873
13283637380
13283643545
13283651418
13283659780
13283666738
13283670461
13283681508
13283686391
13283696035
13283703237
13283710317
13283717153
13283723012
13283729238
13283738271
13283747914
13283754628
13283760305
13283769094
13283774770
13283780629
13283788808
13283793080
13283798085
13283803700
13283810841
13283817128
13283821950
13283827138
13283833669
13283837697
13283845876
13283852528
13283857228
13283865895
13283872853
13283879750
13283885426
13283891286
13283900380
13283905080
13283910695
13283916310
13283920582
13283927235
13283931386
13283936696
13283941090
13283945363
13283952992
13283956593
13283962452
13283967701
13283973134
13283977223
13283986927
13283991139
13283994801
13284003712
13284008290
13284014454
13284018483
13284023671
13284029042
13284032704
13284041127
13284047047
13284054432
13284060780
13284068592
13284077137
13284084034
13284091358
13284098927
13284107716
13284113148
13284121388
13284128529
13284136768
13284143848
13284150257
13284158253
13284163807
13284170704
13284179066
13284184498
13284193775
13284199329
13284207386
13284214893
13284223011
13284227405
13284234669
13284240406
13284245777
13284253162
13284256946
13284264209
13284270618
13284276966
13284283191
13284288623
13284294727
13284300892
13284307666
13284313526
13284319690
13284325977
13284330005
13284337146
13284342273
13284348804
13284354175
13284360645
13284366443
13284373157
13284378284
13284383411
13284390064
13284396839
13284401538
13284409839
13284416370
13284422839
13284429553
13284435901
13284445361
13284449878
13284457507
13284462329
13284469470
13284476245
13284482104
13284487598
13284493518
13284497974
13284503345
13284508899
13284515368
13284522754
13284530749
13284540332
13284548572
13284555896
13284564135
13284569446
13284577868
13284585376
13284591479
13284601428
13284607287
13284615649
13284621936
13284627612
13284633532
13284642688
13284650439
13284657519
13284663745
13284672595
13284679919
13284687304
13284694689
13284700549
13284707995
13284713427
13284718798
13284723010
13284728808
13284734545
13284740282
13284747301
13284752245
13284759264
13284763598
13284771410
13284777331
13284783007
13284788317
13284794421
13284802111
13284807726
13284814562
13284819872
13284825182
13284830065
13284836779
13284842760
13284847704
13284854052
13284858263
13284864794
13284870287
13284874682
13284881517
13284886950
13284892870
13284898058
13284903734
13284906847
13284915514
13284921312
13284925646
13284930529
13284938585
13284943956
13284949816
13284954393
13284960436
13284967882
13284972643
13284978319
13284985155
13284990709
13284996996
13285002611
13285007982
13285016588
13285022264
13285032274
13285036607
13285046983
13285051988
13285066209
13285070604
13285081468
13285088365
13285099840
13285108812
13285115098
13285122117
13285133226
13285140611
13285151170
13285157274
13285167955
13285175828
13285183275
13285191453
13285198594
13285205186
13285212388
13285220384
13285227586
13285235337
13285241990
13285248033
13285254075
13285259629
13285266099
13285271043
13285277818
13285284471
13285290757
13285296433
13285303880
13285309739
13285316697
13285322312
13285328355
13285333299
13285341050
13285346543
13285352525
13285359055
13285365403
13285371018
13285375718
13285383042
13285387498
13285393845
13285398972
13285404832
13285410813
13285417527
13285423325
13285427659
13285434617
13285440232
13285445969
13285450730
13285457871
13285462815
13285468430
13285474595
13285480576
13285486191
13285492539
13285499436
13285504929
13285512619
13285517685
13285522995
13285531296
13285536728
13285542710
13285549668
13285558274
13285565720
13285572678
13285582688
13285590317
13285597580
13285604660
13285612656
13285620895
13285629135
13285637009
13285644821
13285653061
13285661056
13285669174
13285677963
13285685776
13285693588
13285701156
13285709457
13285717636
13285726181
13285733566
13285741867
13285749557
13285757553
13285763900
13285770614
13285778000
13285785873
13285793197
13285800399
13285808761
13285814865
13285823288
13285829269
13285837753
13285844345
13285851425
13285856613
13285861007
13285866744
13285871871
13285877975
13285882858
13285887557
13285893112
13285898483
13285904525
13285911361
13285916000
13285921310
13285926986
13285932052
13285938583
13285942794
13285947921
13285953902
13285958236
13285963607
13285969405
13285975204
13285981063
13285986312
13285993514
13285998275
13286004195
13286010116
13286017379
13286020919
13286027694
13286032210
13286039107
13286043319
13286052413
13286058700
13286067672
13286075606
13286083419
13286090499
13286096541
13286106734
13286114730
13286122603
13286132430
13286140120
13286144454
13286155623
13286161177
13286170760
13286176131
13286186934
13286191512
13286199263
13286208357
13286216353
13286223677
13286229781
13286238326
13286243819
13286248335
13286255843
13286261214
13286266096
13286272505
13286277937
13286284407
13286289656
13286293989
13286299971
13286305708
13286309797
13286313521
13286319929
13286327681
13286333052
13286337690
13286343123
13286348982
13286354841
13286360029
13286368818
13286375898
13286383955
13286390181
13286395674
13286401655
13286409407
13286416182
13286421308
13286429121
13286434248
13286440351
13286444319
13286450178
13286453962
13286458479
13286465010
13286470503
13286475385
13286480879
13286487898
13286494367
13286498945
13286504316
13286508711
13286513715
13286520307
13286529218
13286535444
13286542646
13286546186
13286554792
13286562482
13286571638
13286577131
13286583051
13286588727
13286595991
13286600751
13286610334
13286616743
13286625654
13286631635
13286637983
13286645063
13286651166
13286658002
13286666730
13286675580
13286683637
13286689374
13286696759
13286703412
13286709394
13286714765
13286720441
13286726117
13286731122
13286735883
13286741498
13286747907
13286753583
13286760968
13286766706
13286772565
13286777631
13286784955
13286792401
13286798077
13286805097
13286809918
13286814801
13286821637
13286826154
13286833966
13286839215
13286843549
13286849835
13286855817
13286860577
13286866315
13286873395
13286878339
13286884686
13286893048
13286898541
13286903729
13286916669
13286922345
13286927777
13286933636
13286939312
13286943768
13286949749
13286955182
13286960553
13286963604
13286971966
13286976910
13286986309
13286996380
13287005719
13287014874
13287021527
13287030438
13287039898
13287045941
13287056561
13287066509
13287072369
13287079083
13287085308
13287094097
13287097942
13287108440
13287116619
13287123089
13287129070
13287138775
13287144512
13287152813
13287160137
13287168804
13287176494
13287182415
13287189861
13287195598
13287202068
13287206585
13287212566
13287218242
13287224956
13287229107
13287236248
13287240398
13287248150
13287253277
13287259441
13287266094
13287272930
13287277446
13287283855
13287288860
13287293804
13287299480
13287305034
13287310955
13287317729
13287322612
13287327129
13287332683
13287338298
13287344097
13287352092
13287358928
13287367900
13287380046
13287391216
13287400310
13287406657
13287411296
13287417888
13287422160
13287427898
13287432658
13287438029
13287444133
13287450175
13287452983
13287460979
13287468242
13287474223
13287480022
13287485515
13287489848
13287497294
13287504802
13287511943
13287521220
13287529277
13287535197
13287543071
13287551433
13287558452
13287563395
13287571269
13287580180
13287587321
13287594462
13287601298
13287609050
13287616008
13287623454
13287630717
13287641581
13287649211
13287656779
13287665568
13287674235
13287681010
13287687968
13287696330
13287701273
13287708048
13287712382
13287718363
13287724162
13287728556
13287733378
13287739909
13287745036
13287749430
13287755411
13287760477
13287764506
13287770487
13287775431
13287781534
13287785990
13287791727
13287795634
13287799967
13287806559
13287812418
13287821329
13287827311
13287832743
13287838663
13287843546
13287849161
13287854899
13287861002
13287866678
13287873575
13287878519
13287884012
13287889017
13287894815
13287900248
13287905313
13287911112
13287918314
13287927591
13287931925
13287939066
13287944437
13287949442
13287955728
13287962137
13287968546
13287974222
13287982218
13287988992
13287995462
13288004739
13288009561
13288018839
13288027933
13288034891
13288043314
13288050088
13288057169
13288065835
13288073587
13288081277
13288088724
13288097574
13288103494
13288111307
13288117349
13288125345
13288132303
13288141580
13288150186
13288158853
13288165078
13288172952
13288178628
13288183206
13288190713
13288196450
13288203164
13288207498
13288213723
13288218362
13288223062
13288228860
13288234719
13288240640
13288246194
13288251992
13288258218
13288263223
13288269692
13288274880
13288280251
13288289956
13288296487
13288303933
13288309365
13288315835
13288321877
13288327248
13288332803
13288339822
13288345376
13288349709
13288356118
13288360268
13288365700
13288371438
13288376931
13288382790
13288388711
13288394448
13288399514
13288404702
13288409951
13288415749
13288420937
13288429848
13288435036
13288439187
13288446267
13288451760
13288457009
13288461892
13288468911
13288478005
13288484597
13288491005
13288498146
13288506996
13288513405
13288520912
13288528176
13288537636
13288546669
13288552162
13288560646
13288566872
13288575539
13288583290
13288592690
13288597817
13288605751
13288613930
13288621376
13288629311
13288636391
13288643471
13288655556
13288665626
13288669777
13288682472
13288690285
13288696693
13288702431
13288708534
13288715004
13288720985
13288725502
13288732887
13288737770
13288744178
13288749611
13288758033
13288765358
13288771583
13288777626
13288782875
13288787635
13288795021
13288800941
13288806556
13288811500
13288817970
13288823097
13288829383
13288835731
13288841224
13288846351
13288852088
13288858497
13288865699
13288870460
13288877357
13288882362
13288889320
13288894080
13288901099
13288907752
13288914222
13288922584
13288927467
13288932655
13288940955
13288947608
13288954200
13288960548
13288973487
13288980628
13288988196
13288993812
13289001502
13289008460
13289013648
13289021338
13289028174
13289033912
13289040503
13289046790
13289054480
13289061622
13289067481
13289074744
13289079871
13289088050
13289095191
13289103186
13289109778
13289115332
13289123389
13289129370
13289136878
13289142859
13289150611
13289156653
13289161170
13289166663
13289172522
13289176917
13289181006
13289185828
13289190527
13289196875
13289202551
13289208106
13289212500
13289219214
13289222449
13289229590
13289234656
13289240454
13289246619
13289252051
13289256018
13289264075
13289269018
13289275183
13289280737
13289287451
13289293371
13289297888
13289303686
13289310705
13289317663
13289323462
13289332617
13289338476
13289345129
13289350561
13289357763
13289364050
13289370520
13289378271
13289382421
13289388525
13289393530
13289399267
13289405371
13289411413
13289417272
13289424536
13289430334
13289439062
13289447241
13289454931
13289462499
13289472265
13289479589
13289486608
13289495641
13289500951
13289510900
13289517370
13289527380
13289535619
13289543310
13289550756
13289562841
13289572179
13289576757
13289590063
13289600683
13289607946
13289614904
13289624242
13289631749
13289637792
13289641454
13289648717
13289653234
13289659948
13289664647
13289668493
13289674474
13289679296
13289686315
13289693639
13289699132
13289704747
13289709996
13289714818
13289719396
13289724706
13289729711
13289734777
13289741063
13289745580
13289750951
13289754979
13289763158
13289769383
13289777379
13289785680
13289794652
13289801244
13289806798
13289813206
13289818394
13289823094
13289828282
13289832555
13289836583
13289842320
13289846715
13289851109
13289856053
13289862096
13289866246
13289871800
13289876683
13289882115
13289887547
13289891881
13289897313
13289905797
13289912877
13289918248
13289926793
13289934727
13289941685
13289949742
13289957127
13289964756
13289973851
13289979771
13289987461
13289993138
13290000828
13290006871
13290016392
13290024754
13290030552
13290039829
13290045750
13290055638
13290061192
13290070408
13290080601
13290089939
13290094883
13290101353
13290106113
13290110874
13290117527
13290122105
13290130588
13290137608
13290144077
13290149387
13290157078
13290163669
13290170261
13290176365
13290182407
13290191501
13290201267
13290208164
13290217075
13290222751
13290231296
13290236606
13290246067
13290252658
13290259983
13290268772
13290280368
13290286960
13290293552
13290299839
13290306552
13290313999
13290320774
13290327915
13290336704
13290344760
13290352146
13290359287
13290368259
13290391818
13290399204
13290407504
13290415195
13290422824
13290432468
13290442172
13290453403
13290464084
13290475070
13290484836
13290496371
13290505099
13290514926
13290524936
13290533847
13290543551
13290554660
13290563388
13290573886
13290583224
13290594332
13290603060
13290614657
13290626864
13290636996
13290643649
13290655184
13290665255
13290673617
13290681551
13290689364
13290698763
13290706454
13290713717
13290723299
13290731539
13290740877
13290746798
13290756136
13290765291
13290772066
13290779696
13290788546
13290798617
13290804964
13290814852
13290821993
13290830172
13290836702
13290846712
13290853914
13290864046
13290869600
13290879915
13290888155
13290897310
13290907564
13290916963
13290924715
13290933260
13290943025
13290948396
13290957491
13290964266
13290975801
13290983431
13290991609
13291000459
13291009798
13291018465
13291025606
13291033784
13291041353
13291048677
13291054903
13291065523
13291074373
13291082673
13291091463
13291102022
13291110139
13291120942
13291129182
13291138643
13291148469
13291155854
13291168733
13291175569
13291185517
13291196015
13291206758
13291217561
13291225617
13291236909
13291244599
13291255341
13291267365
13291274262
13291287080
13291294770
13291306245
13291316376
13291323334
13291330964
13291339753
13291345368
13291354890
13291361787
13291370759
13291378693
13291385895
13291393708
13291402741
13291408661
13291417817
13291425995
13291434784
13291441071
13291449921
13291456574
13291465363
13291473053
13291481171
13291488861
13291497834
13291505646
13291511627
13291521759
13291527924
13291536957
13291544403
13291553497
13291558807
13291564911
13291570038
13291574371
13291579681
13291584137
13291589142
13291593170
13291597443
13291602570
13291606598
13291611603
13291616547
13291620087
13291625397
13291630524
13291637543
13291645477
13291651459
13291654693
13291666534
13291673675
13291681366
13291688751
13291694122
13291702484
13291709625
13291716400
13291722992
13291728546
13291735809
13291741485
13291747955
13291752349
13291759307
13291765960
13291771453
13291777984
13291784820
13291791046
13291797393
13291802215
13291810394
13291817169
13291822112
13291827789
13291832488
13291837005
13291841033
13291845489
13291850128
13291855010
13291861785
13291866485
13291870696
13291875945
13291879913
13291884918
13291889190
13291895660
13291903716
13291909270
13291914031
13291918548
13291923431
13291927337
13291933746
13291937774
13291945159
13291950896
13291955962
13291958404
13291965240
13291969146
13291973723
13291980865
13291985076
13291990325
13291995452
13291999053
13292004546
13292008452
13292014312
13292019988
13292026214
13292032683
13292037505
13292042144
13292046355
13292052459
13292057158
13292062773
13292068023
13292074187
13292083464
13292090972
13292097319
13292104582
13292111418
13292118682
13292126006
13292133879
13292141997
13292149931
13292153899
13292163542
13292168303
13292175749
13292182219
13292190947
13292196196
13292204741
13292212187
13292217619
13292226530
13292235869
13292243376
13292253386
13292264311
13292270292
13292279875
13292287443
13292295805
13292300139
13292306730
13292312346
13292314665
13292321989
13292327482
13292330900
13292336699
13292342314
13292346586
13292351591
13292356169
13292361418
13292367521
13292372160
13292378508
13292383024
13292385466
13292392485
13292397612
13292403166
13292405607
13292415556
13292421171
13292426054
13292431364
13292437284
13292441190
13292446440
13292452421
13292459074
13292466520
13292470976
13292475248
13292480802
13292486173
13292492704
13292497282
13292503446
13292509489
13292514982
13292522428
13292526029
13292532194
13292536527
13292542753
13292548551
13292554777
13292562284
13292567289
13292573453
13292579313
13292585233
13292590482
13292595853
13292603422
13292608060
13292614286
13292619596
13292625882
13292631559
13292637113
13292643522
13292652799
13292656949
13292666593
13292669767
13292677762
13292683377
13292688626
13292693814
13292701627
13292707974
13292713468
13292718656
13292724332
13292730679
13292737149
13292742948
13292748380
13292753812
13292759671
13292765225
13292771146
13292776273
13292780911
13292787747
13292793668
13292798184
13292806973
13292811368
13292817044
13292825223
13292831387
13292836880
13292843106
13292850491
13292858243
13292862637
13292870267
13292872159
13292881436
13292889248
13292894620
13292899319
13292904812
13292910550
13292915738
13292921963
13292926602
13292931668
13292939236
13292944302
13292949734
13292953701
13292959805
13292965176
13292970974
13292978176
13292981594
13292987759
13292993191
13292999233
13293005276
13293010647
13293015774
13293020718
13293025356
13293032131
13293038357
13293045498
13293051724
13293058682
13293062039
13293068447
13293073879
13293081448
13293086330
13293093411
13293099697
13293105801
13293111416
13293116726
13293122646
13293127529
13293134426
13293137722
13293145168
13293151089
13293157436
13293160427
13293168484
13293174221
13293179958
13293184841
13293191311
13293198269
13293205349
13293210842
13293216274
13293222011
13293227016
13293233486
13293236660
13293245144
13293251491
13293258510
13293262172
13293269619
13293272914
13293280605
13293285366
13293290920
13293299343
13293304408
13293309902
13293315456
13293321620
13293327114
13293332240
13293339321
13293345546
13293351222
13293355495
13293360500
13293367458
13293372585
13293383632
13293389369
13293395656
13293400356
13293405971
13293413295
13293419032
13293423915
13293430629
13293436305
13293442409
13293446925
13293455043
13293462916
13293467799
13293474330
13293478175
13293487880
13293491542
13293498378
13293504420
13293511500
13293515712
13293524134
13293528346
13293534022
13293538356
13293544398
13293549098
13293554469
13293561549
13293566188
13293572779
13293576564
13293583399
13293587977
13293594020
13293601100
13293606532
13293611842
13293617457
13293622401
13293627284
13293632289
13293638026
13293643824
13293649073
13293653834
13293660182
13293666224
13293673060
13293677943
13293683619
13293689539
13293693934
13293701868
13293706141
13293712855
13293718104
13293724512
13293730006
13293735560
13293740320
13293746912
13293751795
13293758997
13293766260
13293770838
13293777125
13293782190
13293788843
13293795801
13293801172
13293806910
13293812220
13293819117
13293823999
13293829737
13293836084
13293842859
13293848230
13293855005
13293861414
13293867029
13293872461
13293877344
13293883081
13293889856
13293895777
13293899866
13293907190
13293912378
13293918909
13293925073
13293931055
13293938440
13293945581
13293950342
13293957239
13293962427
13293970361
13293975061
13293982446
13293987878
13293993250
13294000635
13294005945
13294012170
13294016748
13294022729
13294028833
13294035852
13294039209
13294046716
13294052514
13294059656
13294065515
13294072595
13294077661
13294083703
13294090417
13294099267
13294104028
13294110376
13294116479
13294122705
13294126062
13294134118
13294139367
13294145105
13294149560
13294157128
13294161340
13294167016
13294171533
13294177575
13294183923
13294188562
13294195092
13294200158
13294205468
13294211205
13294216577
13294221032
13294229394
13294234582
13294240746
13294245995
13294251367
13294256249
13294261865
13294266991
13294273156
13294280175
13294284753
13294289819
13294297387
13294302453
13294307275
13294314477
13294319909
13294324303
13294329186
13294335229
13294339867
13294346093
13294350304
13294357018
13294361107
13294368432
13294372216
13294377648
13294382958
13294389000
13294395287
13294402855
13294407250
13294414635
13294419701
13294424828
13294430504
13294435570
13294440331
13294446495
13294451805
13294457909
13294463158
13294469384
13294476036
13294482140
13294485436
13294493859
13294498680
13294505760
13294513390
13294517357
13294524986
13294529259
13294536400
13294542137
13294548607
13294555626
13294561729
13294567406
13294573326
13294576866
13294584923
13294589561
13294596031
13294600426
13294607628
13294613792
13294619102
13294625694
13294630150
13294635826
13294641929
13294646995
13294651695
13294660728
13294666832
13294673240
13294678062
13294688377
13294696251
13294702293
13294710167
13294715660
13294722801
13294726890
13294732383
13294738304
13294744285
13294747520
13294755455
13294760032
13294766563
13294771019
13294777854
13294782371
13294788108
13294792320
13294799644
13294805686
13294811180
13294815391
13294821372
13294826438
13294831809
13294839134
13294844138
13294850242
13294855552
13294860374
13294865928
13294870933
13294877036
13294883079
13294886863
13294893699
13294897605
13294903159
13294909629
13294913596
13294919150
13294926597
13294930259
13294937278
13294942649
13294947898
13294955649
13294959861
13294967368
13294971702
13294977622
13294982566
13294990317
13294996482
13295001914
13295003501
13295012839
13295019675
13295024192
13295028830
13295035300
13295040000
13295045676
13295053122
13295058554
13295063376
13295069052
13295074729
13295080100
13295086630
13295091880
13295098471
13295101828
13295109885
13295113059
13295122336
13295127158
13295133078
13295139182
13295143454
13295151389
13295157553
13295163290
13295168662
13295174277
13295180258
13295184897
13295192160
13295197104
13295202536
13295210165
13295215292
13295219199
13295227560
13295231467
13295239096
13295243490
13295250326
13295253988
13295264059
13295269430
13295276632
13295283468
13295288656
13295297140
13295301901
13295307638
13295314657
13295319845
13295325460
13295332541
13295336996
13295343161
13295349752
13295355368
13295361227
13295366110
13295371237
13295377035
13295381369
13295387411
13295392111
13295397543
13295403585
13295409750
13295412863
13295419454
13295424703
13295431722
13295437887
13295442892
13295447408
13295454855
13295459371
13295465780
13295470419
13295475546
13295483358
13295490682
13295495260
13295501119
13295506124
13295513387
13295518453
13295525655
13295531881
13295539083
13295543844
13295550558
13295555379
13295560872
13295568380
13295572957
13295578756
13295585347
13295591634
13295597249
13295602742
13295607869
13295614400
13295617696
13295625264
13295629781
13295638448
13295643270
13295648030
13295653402
13295660359
13295665914
13295671651
13295677938
13295682332
13295691731
13295697469
13295702779
13295711446
13295717305
13295722676
13295727986
13295732442
13295740071
13295744283
13295750203
13295756612
13295762776
13295766072
13295773457
13295779073
13295785908
13295790608
13295796101
13295802327
13295807576
13295815999
13295820637
13295826314
13295832478
13295839253
13295845418
13295851521
13295857747
13295862202
13295868733
13295875630
13295881856
13295888997
13295894368
13295899434
13295908528
13295914021
13295919941
13295926594
13295934040
13295943379
13295949299
13295955342
13295962849
13295968281
13295975422
13295980854
13295987080
13295993672
13295999836
13296005024
13296011799
13296018208
13296023823
13296030598
13296036762
13296043537
13296050739
13296055317
13296061176
13296067158
13296073322
13296078205
13296083576
13296088215
13296093891
13296099140
13296104755
13296110432
13296114094
13296118427
13296124592
13296130939
13296136066
13296138691
13296145832
13296150532
13296154133
13296157917
13296165363
13296171406
13296177143
13296182575
13296188251
13296190876
13296197223
13296202839
13296207843
13296212360
13296218586
13296223041
13296227863
13296234333
13296238239
13296244037
13296248615
13296255024
13296261554
13296268451
13296274005
13296278949
13296283588
13296288104
13296293415
13296299457
13296304096
13296311298
13296315753
13296320758
13296325458
13296330951
13296335529
13296341876
13296347492
13296354572
13296357745
13296366229
13296372211
13296376910
13296381366
13296386493
13296392963
13296398151
13296403461
13296409259
13296414874
13296420917
13296426959
13296432757
13296438495
13296444293
13296453570
13296460589
13296466266
13296473346
13296480365
13296482684
13296494342
13296498797
13296503985
13296511981
13296514849
13296522723
13296526812
13296534320
13296538958
13296545489
13296549945
13296555987
13296561480
13296567828
13296574481
13296582110
13296588763
13296594012
13296600176
13296606524
13296612933
13296619341
13296621172
13296630938
13296635760
13296641192
13296645831
13296652483
13296658099
13296663592
13296669817
13296675494
13296679644
13296686785
13296690447
13296697100
13296702593
13296709917
13296714983
13296720293
13296725725
13296730669
13296737444
13296742937
13296749163
13296754229
13296760393
13296763384
13296772478
13296779741
13296787066
13296792681
13296799944
13296806597
13296811968
13296817217
13296822161
13296827898
13296833147
13296836992
13296843462
13296848833
13296854143
13296860735
13296866167
13296870867
13296877825
13296881121
13296888079
13296895891
13296901628
13296908464
13296912859
13296917375
13296925066
13296930376
13296935198
13296940508
13296946001
13296952226
13296958818
13296964189
13296970720
13296976030
13296979936
13296988542
13296994218
13297001176
13297007585
13297012102
13297018632
13297024065
13297029008
13297037065
13297042131
13297047624
13297054948
13297062394
13297068620
13297074785
13297080461
13297087114
13297093400
13297098222
13297105424
13297110978
13297117570
13297122758
13297128068
13297131059
13297137956
13297146379
13297151139
13297155900
13297161943
13297166947
13297172868
13297179277
13297185319
13297190019
13297196671
13297202287
13297207108
13297212663
13297217545
13297221330
13297226334
13297232804
13297237931
13297242326
13297249589
13297254960
13297259599
13297263261
13297268266
13297274552
13297280656
13297284440
13297288895
13297291337
13297300248
13297304032
13297309769
13297314957
13297319901
13297325638
13297331498
13297336503
13297341385
13297345841
13297351639
13297357987
13297362076
13297366837
13297373063
13297377579
13297383011
13297390091
13297393570
13297401627
13297406449
13297412613
13297418412
13297423172
13297427994
13297433426
13297439835
13297446305
13297451432
13297458267
13297462723
13297467484
13297473099
13297479019
13297484207
13297490189
13297495560
13297502213
13297508866
13297513870
13297518753
13297523819
13297526383
13297533463
13297542435
13297548416
13297553726
13297559830
13297564896
13297570328
13297574783
13297580093
13297586258
13297594864
13297599808
13297608047
13297614273
13297622513
13297629104
13297636856
13297645035
13297653518
13297659378
13297665786
13297671890
13297678055
13297683365
13297689529
13297695572
13297701675
13297706009
13297712478
13297718032
13297723159
13297727249
13297732559
13297740066
13297745254
13297751113
13297756546
13297762222
13297766860
13297773147
13297777725
13297783340
13297790908
13297795730
13297801284
13297808120
13297812393
13297819473
13297824416
13297829421
13297834060
13297840774
13297845351
13297851089
13297856399
13297862075
13297867629
13297874099
13297880141
13297886611
13297892837
13297898635
13297901809
13297908034
13297915481
13297920058
13297925796
13297931533
13297937514
13297944716
13297949965
13297954360
13297960952
13297967055
13297971572
13297978164
13297984450
13297989333
13297993667
13298001296
13298006850
13298011611
13298018019
13298024245
13298029677
13298034926
13298041030
13298047072
13298051284
13298057570
13298063430
13298069777
13298074599
13298082900
13298087355
13298091933
13298099562
13298103774
13298109877
13298116591
13298123976
13298128981
13298134902
13298140028
13298146254
13298151686
13298158156
13298163893
13298168898
13298174513
13298181532
13298186720
13298191847
13298199171
13298202589
13298210463
13298214735
13298222853
13298229567
13298236098
13298241652
13298248305
13298256178
13298261244
13298266859
13298274672
13298284681
13298291273
13298296522
13298301100
13298305800
13298312208
13298316786
13298323805
13298328871
13298334364
13298339430
13298345655
13298351393
13298358534
13298361585
13298368299
13298372816
13298380567
13298383924
13298391920
13298396253
13298401991
13298406446
13298413526
13298419264
13298424879
13298431410
13298436292
13298441236
13298448072
13298453626
13298459303
13298465467
13298470289
13298477125
13298481580
13298487318
13298494276
13298499525
13298506116
13298512281
13298517469
13298522901
13298530164
13298534864
13298542371
13298548414
13298554029
13298558423
13298565381
13298572095
13298578260
13298581617
13298589795
13298595044
13298602002
13298606824
13298612561
13298618665
13298625135
13298631299
13298638806
13298644361
13298648877
13298655713
13298661817
13298670301
13298673780
13298682080
13298688855
13298694104
13298699048
13298707654
13298712964
13298719006
13298726697
13298732312
13298740125
13298745068
13298751477
13298756421
13298761426
13298767590
13298773450
13298780591
13298786450
13298790295
13298796094
13298802258
13298809033
13298812451
13298821484
13298828076
13298836255
13298842663
13298848828
13298857068
13298861828
13298871655
13298879284
13298889355
13298896862
13298909741
13298917309
13298922802
13298935925
13298943737
13298949414
13298960705
13298965161
13298975170
13298985119
13298990490
13298998303
13299005505
13299013806
13299018200
13299027416
13299034191
13299041943
13299050854
13299053905
13299065624
13299069714
13299079601
13299086254
13299091625
13299101513
13299111400
13299121532
13299129040
13299136608
13299145885
13299155040
13299159740
13299165294
13299173534
13299177868
13299185131
13299190441
13299197521
13299202465
13299208507
13299213207
13299217907
13299222606
13299228038
13299234447
13299241771
13299250255
13299256786
13299262523
13299268627
13299274852
13299280712
13299286144
13299292552
13299297374
13299304332
13299308910
13299315807
13299320018
13299326244
13299333446
13299340343
13299345531
13299351024
13299355418
13299362376
13299367381
13299373851
13299379161
13299385631
13299391063
13299396739
13299401866
13299407786
13299413035
13299418895
13299423717
13299430797
13299435924
13299442210
13299448802
13299452891
13299458445
13299463084
13299470530
13299475352
13299481028
13299487620
13299492564
13299499766
13299504283
13299510264
13299516246
13299524180
13299529002
13299536631
13299540660
13299549205
13299556590
13299561473
13299569102
13299576792
13299583628
13299589854
13299595835
13299602915
13299608958
13299615916
13299624583
13299628672
13299634592
13299639597
13299644114
13299650584
13299655466
13299662913
13299667063
13299673289
13299677866
13299683115
13299688547
13299694590
13299700571
13299705881
13299711313
13299716990
13299722117
13299727732
13299733225
13299740610
13299743662
13299751475
13299758799
13299764719
13299770029
13299775339
13299780527
13299786936
13299791391
13299795359
13299801584
13299805979
13299812693
13299817331
13299825083
13299829904
13299835337
13299840341
13299847299
13299854807
13299861154
13299867014
13299873117
13299878794
13299885507
13299891245
13299898264
13299905100
13299913706
13299918955
13299924326
13299931894
13299938303
13299945016
13299949472
13299956308
13299963632
13299970285
13299975595
13299981210
13299987253
13299991708
13299996164
13300002695
13300008981
13300015878
13300021005
13300026803
13300033517
13300037301
13300044320
13300049203
13300054574
13300062082
13300067880
13300072641
13300078500
13300084970
13300090402
13300095590
13300101693
13300106637
13300113107
13300117990
13300123605
13300128549
13300135690
13300141427
13300145333
13300153268
13300160348
13300166024
13300172128
13300178597
13300184518
13300193734
13300199410
13300206918
13300215279
13300221688
13300227181
13300233529
13300240853
13300247445
13300251534
13300258370
13300262826
13300269112
13300274056
13300279122
13300283883
13300289925
13300294320
13300302193
13300307320
13300314583
13300320138
13300325081
13300330025
13300335702
13300338509
13300348153
13300353585
13300360970
13300366036
13300370736
13300375069
13300380196
13300385323
13300391854
13300398629
13300404793
13300407540
13300415352
13300419808
13300427254
13300432747
13300438179
13300445137
13300451180
13300456673
13300462532
13300468880
13300475105
13300479622
13300485603
13300490242
13300497139
13300503487
13300508247
13300516365
13300521004
13300527779
13300532356
13300541084
13300546333
13300554085
13300558418
13300566109
13300571297
13300578987
13300583809
13300590034
13300595589
13300601448
13300607185
13300612800
13300618416
13300623115
13300628486
13300634773
13300641975
13300648079
13300651985
13300657539
13300660286
13300668159
13300674263
13300678230
13300683906
13300690376
13300693306
13300700447
13300705207
13300710701
13300716865
13300720710
13300726509
13300733955
13300738716
13300743659
13300749031
13300753425
13300759712
13300765449
13300772590
13300780647
13300785346
13300792060
13300798591
13300804572
13300808601
13300816169
13300823554
13300830207
13300835883
13300841315
13300844978
13300851569
13300857124
13300863593
13300867866
13300875495
13300879890
13300886481
13300890876
13300897712
13300902717
13300907477
13300914619
13300920356
13300925666
13300930549
13300936957
13300941718
13300946784
13300952277
13300958381
13300964606
13300969550
13300973822
13300979133
13300985236
13300991828
13300995124
13301002875
13301006110
13301013617
13301018622
13301025031
13301032782
13301037421
13301042670
13301048957
13301055487
13301062079
13301067450
13301071906
13301078192
13301081122
13301089911
13301095404
13301101325
13301107001
13301113898
13301118597
13301124701
13301129767
13301136176
13301141913
13301148688
13301154669
13301159552
13301167242
13301172308
13301177496
13301183417
13301189154
13301194525
13301201605
13301208624
13301214422
13301219122
13301227240
13301231573
13301237921
13301242804
13301250250
13301255865
13301261664
13301267889
13301271734
13301277472
13301284430
13301289740
13301295721
13301300482
13301307928
13301313055
13301318304
13301325506
13301331732
13301335089
13301344061
13301350530
13301357488
13301362982
13301369818
13301373724
13301382208
13301389532
13301395025
13301400701
13301410101
13301417242
13301423101
13301429388
13301434820
13301440374
13301446539
13301453008
13301458501
13301466070
13301471868
13301477483
13301483282
13301487920
13301493352
13301498662
13301504095
13301508977
13301513067
13301519536
13301524724
13301530889
13301536260
13301541204
13301545232
13301552923
13301557866
13301564702
13301568609
13301574590
13301579534
13301585759
13301591985
13301597356
13301602178
13301608098
13301611211
13301619207
13301625127
13301629582
13301635320
13301642034
13301649663
13301654119
13301659368
13301665776
13301672246
13301678349
13301684026
13301689824
13301695073
13301699651
13301706487
13301712529
13301718999
13301724675
13301731511
13301737859
13301742314
13301747014
13301754582
13301760319
13301766606
13301771184
13301777226
13301784978
13301788945
13301797978
13301803837
13301811101
13301817509
13301823308
13301828801
13301834111
13301838627
13301845830
13301851384
13301856999
13301862980
13301868290
13301872685
13301878910
13301885624
13301892582
13301898198
13301904179
13301909184
13301914738
13301919743
13301925846
13301932987
13301938420
13301942936
13301948735
13301953434
13301959294
13301964848
13301971440
13301978398
13301987797
13301996647
13302003117
13302010868
13302014469
13302023930
13302031742
13302045109
13302052006
13302057377
13302063175
13302069523
13302074345
13302079777
13302084110
13302089725
13302093998
13302099552
13302103947
13302109623
13302115055
13302119144
13302125004
13302129459
13302133732
13302140323
13302146488
13302152042
13302156376
13302163639
13302167118
13302173099
13302178653
13302183414
13302189151
13302194828
13302199710
13302206241
13302211673
13302218326
13302222232
13302229251
13302234073
13302241458
13302247074
13302251224
13302256534
13302262515
13302267093
13302273136
13302277286
13302283756
13302289859
13302295902
13302299442
13302306400
13302313113
13302318973
13302324161
13302330081
13302335818
13302341006
13302345950
13302352359
13302357974
13302362125
13302368228
13302374759
13302381106
13302387759
13302393436
13302399905
13302404605
13302410281
13302418460
13302424258
13302429812
13302435306
13302441409
13302448367
13302452884
13302458682
13302465457
13302470706
13302476504
13302482119
13302487429
13302493411
13302498721
13302505435
13302511355
13302516848
13302523867
13302530154
13302535281
13302541812
13302547976
13302554263
13302561038
13302568850
13302575198
13302581851
13302589419
13302595522
13302602541
13302608767
13302611941
13302621157
13302625857
13302632143
13302637392
13302643557
13302648623
13302653750
13302659853
13302664553
13302669497
13302674197
13302678774
13302683108
13302687319
13302693850
13302698305
13302703982
13302708864
13302714663
13302721560
13302727846
13302732851
13302739504
13302744631
13302749270
13302753420
13302758486
13302763674
13302769350
13302773928
13302778627
13302784426
13302790163
13302796511
13302802797
13302808168
13302813967
13302820803
13302826296
13302831362
13302836794
13302842470
13302847902
13302853945
13302861086
13302864992
13302871462
13302877077
13302882143
13302886293
13302891847
13302898622
13302904665
13302910341
13302915956
13302920839
13302925111
13302929628
13302937379
13302942567
13302949403
13302953554
13302960207
13302964845
13302970705
13302974977
13302979921
13302986635
13302991456
13302997743
13303002992
13303009706
13303014100
13303020692
13303024965
13303030092
13303036439
13303043153
13303048707
13303054384
13303057863
13303065065
13303070375
13303077028
13303082521
13303086732
13303093873
13303099366
13303104798
13303110902
13303116822
13303120973
13303127626
13303135987
13303143983
13303148072
13303155763
13303162049
13303169312
13303173280
13303181825
13303189698
13303195435
13303202088
13303208802
13303212830
13303219117
13303223328
13303233765
13303244019
13303250611
13303254945
13303261109
13303266358
13303272645
13303277466
13303282410
13303287415
13303292481
13303298585
13303303650
13303308899
13303313660
13303318177
13303325501
13303331605
13303336731
13303341431
13303348328
13303352784
13303358033
13303363404
13303368348
13303376465
13303381348
13303385132
13303391419
13303395508
13303401368
13303407166
13303411255
13303418213
13303424378
13303428833
13303434387
13303440613
13303444763
13303450623
13303456482
13303462830
13303470154
13303476135
13303481384
13303486450
13303492188
13303498108
13303500977
13303507874
13303514832
13303519470
13303524048
13303530701
13303537109
13303541077
13303547424
13303552551
13303558166
13303564819
13303570068
13303574341
13303582031
13303584900
13303591980
13303596924
13303603149
13303608154
13303615967
13303620361
13303628174
13303633423
13303640320
13303645080
13303651489
13303656311
13303662475
13303667663
13303673950
13303679382
13303683899
13303690246
13303693237
13303702087
13303707336
13303712219
13303717041
13303724853
13303729553
13303735534
13303743896
13303748718
13303755248
13303764465
13303769653
13303778381
13303783447
13303788390
13303795593
13303802306
13303808166
13303813781
13303820678
13303824889
13303831298
13303836120
13303841308
13303846923
13303852660
13303856628
13303862853
13303868896
13303875060
13303880370
13303886107
13303890990
13303896606
13303904540
13303909301
13303915648
13303921264
13303927306
13303931762
13303937926
13303943541
13303950438
13303955870
13303961547
13303964904
13303973571
13303978331
13303983214
13303990599
13303994811
13304002074
13304007506
13304013793
13304018065
13304025389
13304030699
13304037230
13304042174
13304046935
13304052306
13304059691
13304064513
13304069212
13304076415
13304080748
13304088011
13304091734
13304099974
13304106383
13304112547
13304116209
13304124449
13304128661
13304134337
13304140440
13304146971
13304153197
13304157774
13304163023
13304169615
13304177855
13304183653
13304188658
13304195372
13304201109
13304207640
13304213072
13304219298
13304224486
13304228819
13304236204
13304240538
13304246885
13304254026
13304260191
13304266172
13304272154
13304277220
13304283323
13304288572
13304295896
13304301084
13304307127
13304315000
13304320677
13304326292
13304332334
13304338438
13304344236
13304350950
13304355467
13304365843
13304372801
13304379514
13304385008
13304390501
13304396299
13304405149
13304412717
13304419126
13304425230
13304429868
13304437315
13304442258
13304447202
13304455564
13304460447
13304467405
13304472288
13304479551
13304484983
13304492612
13304499326
13304504758
13304510862
13304516904
13304523496
13304527891
13304532834
13304539243
13304543210
13304550412
13304555112
13304562436
13304567319
13304573789
13304577573
13304584775
13304589963
13304595700
13304602658
13304608579
13304614743
13304621091
13304626340
13304632016
13304635007
13304642636
13304647763
13304656186
13304660825
13304666135
13304672055
13304677182
13304683835
13304688229
13304695615
13304700497
13304707333
13304712460
13304717221
13304722348
13304728513
13304738950
13304745480
13304751034
13304757016
13304760007
13304768002
13304772763
13304779538
13304783993
13304788632
13304797482
13304804074
13304810666
13304814999
13304821530
13304826657
13304832394
13304837826
13304844296
13304849728
13304856015
13304861508
13304868588
13304872677
13304878781
13304884579
13304890011
13304896725
13304902462
13304905453
13304912838
13304917477
13304924313
13304928707
13304935604
13304941647
13304946957
13304954891
13304959774
13304966854
13304971981
13304980221
13304988033
13304993588
13305000668
13305009029
13305015560
13305021420
13305027706
13305031124
13305040340
13305048580
13305056026
13305058895
13305065609
13305071773
13305077755
13305082271
13305086849
13305094051
13305099300
13305106685
13305111568
13305116634
13305120846
13305128353
13305132442
13305138057
13305145076
13305150081
13305154293
13305160640
13305165096
13305170833
13305176265
13305181575
13305187130
13305193233
13305199276
13305205013
13305209529
13305215633
13305220516
13305225582
13305233272
13305239742
13305245662
13305251399
13305255916
13305261287
13305268123
13305272762
13305278072
13305284725
13305290279
13305296809
13305302547
13305307918
13305312068
13305316585
13305323238
13305330806
13305337276
13305342891
13305348628
13305353145
13305357600
13305364741
13305368892
13305376643
13305382075
13305387568
13305393855
13305399531
13305403804
13305411006
13305415584
13305421931
13305427485
13305433406
13305439204
13305444880
13305448054
13305455317
13305461482
13305465205
13305474360
13305481135
13305486140
13305491328
13305498042
13305502131
13305509089
13305515315
13305521174
13305527644
13305533625
13305538508
13305545222
13305553279
13305557978
13305562739
13305570307
13305578242
13305583247
13305590327
13305597407
13305603938
13305609126
13305615412
13305621210
13305628229
13305634028
13305644038
13305649470
13305656977
13305661555
13305668268
13305673456
13305678889
13305685358
13305690729
13305696345
13305701410
13305706354
13305712580
13305718439
13305724421
13305727961
13305736811
13305741266
13305747370
13305753351
13305758783
13305761957
13305769831
13305778009
13305784113
13305788629
13305795587
13305800287
13305805292
13305811701
13305817682
13305824030
13305831781
13305839472
13305846796
13305853449
13305859308
13305870172
13305876703
13305882318
13305887689
13305892572
13305896783
13305901849
13305906122
13305911066
13305916864
13305923456
13305929376
13305934564
13305939447
13305944818
13305949762
13305955011
13305960992
13305967462
13305972894
13305977777
13305984430
13305989007
13305995416
13305999505
13306005975
13306012506
13306016839
13306021905
13306028558
13306033807
13306038385
13306044183
13306049981
13306055230
13306062249
13306067743
13306073480
13306077813
13306083551
13306088616
13306094781
13306102655
13306109002
13306114129
13306119744
13306124322
13306129876
13306134576
13306141656
13306150018
13306156121
13306161126
13306167535
13306173272
13306177972
13306184747
13306190057
13306195550
13306203240
13306209100
13306215691
13306221917
13306227349
13306232720
13306239068
13306245354
13306252862
13306258050
13306262566
13306268365
13306274468
13306279412
13306284844
13306288628
13306295708
13306299981
13306304558
13306312798
13306318047
13306323601
13306328057
13306333306
13306341790
13306347710
13306352776
13306359368
13306364495
13306370049
13306375115
13306380547
13306386528
13306392998
13306399651
13306404900
13306411370
13306418755
13306423149
13306429375
13306434929
13306441033
13306450249
13306456902
13306460625
13306467522
13306472160
13306478874
13306483940
13306490227
13306496330
13306503349
13306508904
13306513908
13306520561
13306525749
13306530388
13306538628
13306545341
13306550835
13306556633
13306562431
13306568291
13306573967
13306579582
13306585319
13306590874
13306597465
13306601921
13306608696
13306613701
13306620659
13306625175
13306630119
13306637382
13306643852
13306650077
13306654533
13306661430
13306666801
13306671867
13306678031
13306684196
13306690910
13306696342
13306700370
13306707572
13306712516
13306718009
13306721305
13306729057
13306736381
13306740653
13306745109
13306752128
13306757133
13306763297
13306769584
13306773368
13306781486
13306786735
13306795097
13306801200
13306805106
13306812980
13306818107
13306825370
13306834708
13306839957
13306847282
13306851798
13306859489
13306865409
13306871573
13306876395
13306882316
13306889945
13306895499
13306899344
13306905509
13306911796
13306917350
13306922171
13306928275
13306935904
13306941947
13306945121
13306951712
13306958548
13306961966
13306968619
13306974845
13306980826
13306987357
13306992972
13306997733
13307004203
13307009452
13307015189
13307020255
13307025992
13307033316
13307039359
13307042227
13307049613
13307055533
13307061453
13307066458
13307072562
13307079215
13307084952
13307089346
13307093802
13307100943
13307105826
13307110953
13307116751
13307125479
13307130667
13307136404
13307141897
13307147085
13307152762
13307158926
13307163565
13307169241
13307174490
13307182791
13307188345
13307193838
13307198294
13307204458
13307211233
13307214712
13307222159
13307228628
13307232962
13307240225
13307246267
13307251272
13307255239
13307261160
13307266653
13307272634
13307278250
13307285147
13307289602
13307295156
13307300222
13307306875
13307312063
13307318899
13307323171
13307329763
13307334829
13307340200
13307346853
13307351675
13307358022
13307363577
13307370290
13307375417
13307383230
13307389272
13307393667
13307399160
13307408620
13307414480
13307422658
13307425588
13307434560
13307439260
13307445241
13307452016
13307457265
13307466360
13307472524
13307477529
13307482778
13307487905
13307494008
13307499013
13307504018
13307509755
13307516530
13307522695
13307527517
13307534719
13307540578
13307546315
13307551503
13307557119
13307563344
13307569387
13307574514
13307580861
13307585317
13307590749
13307596364
13307602101
13307607595
13307614125
13307619618
13307626088
13307631886
13307642079
13307648366
13307654714
13307660634
13307665578
13307672902
13307677419
13307682973
13307688466
13307694508
13307698842
13307703786
13307711842
13307717824
13307722462
13307729420
13307733815
13307739064
13307745595
13307749196
13307757008
13307762501
13307768910
13307775807
13307780995
13307786427
13307792042
13307797719
13307803456
13307811329
13307817799
13307824940
13307831105
13307837452
13307842823
13307847157
13307854054
13307861073
13307867909
13307872670
13307879200
13307884205
13307889149
13307895741
13307901600
13307910328
13307916676
13307921681
13307927357
13307934437
13307938648
13307945118
13307950489
13307956532
13307961231
13307969227
13307973316
13307979115
13307984425
13307990772
13307996693
13308002857
13308007862
13308014393
13308021412
13308027576
13308034656
13308040821
13308046924
13308054615
13308061207
13308068470
13308073658
13308081959
13308088245
13308094166
13308099354
13308104419
13308110950
13308117786
13308123157
13308128345
13308131336
13308139026
13308143116
13308149768
13308157398
13308163196
13308167713
13308175281
13308184009
13308193225
13308197803
13308202930
13308211353
13308218677
13308223560
13308229602
13308236804
13308242847
13308246997
13308253650
13308258960
13308265430
13308270618
13308279285
13308285083
13308291248
13308295642
13308301868
13308307239
13308314380
13308319690
13308325183
13308331714
13308336230
13308341418
13308348132
13308353747
13308360889
13308366382
13308371753
13308377246
13308383532
13308387683
13308392383
13308399035
13308407885
13308413257
13308422107
13308429431
13308433764
13308440051
13308444690
13308452319
13308458300
13308463977
13308470752
13308475207
13308480639
13308486376
13308492236
13308498583
13308504565
13308510729
13308516772
13308522875
13308529711
13308532702
13308540087
13308546069
13308551562
13308558459
13308563281
13308568102
13308575243
13308579699
13308586230
13308591296
13308597521
13308605273
13308611559
13308617602
13308623522
13308628588
13308633837
13308640002
13308646960
13308654467
13308662218
13308668505
13308675524
13308681444
13308688463
13308696825
13308702379
13308709520
13308717394
13308722094
13308728869
13308733080
13308737352
13308744982
13308750048
13308756700
13308761400
13308767321
13308770800
13308776537
13308780931
13308786302
13308790758
13308797899
13308802965
13308809252
13308814806
13308819444
13308826036
13308830980
13308836290
13308842516
13308848314
13308855150
13308860338
13308865770
13308870897
13308876390
13308879320
13308887804
13308894029
13308900438
13308907823
13308913438
13308919115
13308924852
13308930711
13308936571
13308942552
13308949937
13308954820
13308960313
13308966722
13308971788
13308974595
13308983568
13308988389
13308995775
13309000352
13309007798
13309011705
13309020433
13309023668
13309031663
13309038865
13309045213
13309051438
13309057969
13309063035
13309068223
13309073838
13309079637
13309085557
13309090806
13309096604
13309102098
13309107102
13309112657
13309118821
13309124864
13309131516
13309137071
13309139756
13309148362
13309151170
13309159165
13309164109
13309169602
13309176194
13309181992
13309188218
13309193284
13309197984
13309204758
13309208970
13309213914
13309219895
13309227036
13309234055
13309239365
13309246934
13309254746
13309264390
13309269761
13309274827
13309283738
13309289841
13309295578
13309302109
13309308823
13309313096
13309319565
13309325913
13309331650
13309336899
13309341782
13309347031
13309354050
13309359238
13309363510
13309369431
13309374436
13309379624
13309384384
13309391342
13309398361
13309403488
13309409287
13309413864
13309419296
13309423935
13309428818
13309434616
13309442673
13309449448
13309453903
13309459885
13309464951
13309470810
13309476547
13309481491
13309487228
13309493820
13309499130
13309504501
13309508835
13309514633
13309519028
13309524582
13309530685
13309537948
13309543930
13309548141
13309553085
13309559921
13309565231
13309570724
13309576339
13309583908
13309589706
13309594772
13309600326
13309605453
13309610580
13309616501
13309621933
13309629684
13309635360
13309640426
13309646164
13309651474
13309656723
13309662582
13309668624
13309676437
13309681747
13309689193
13309693527
13309699264
13309705062
13309710678
13309717269
13309722762
13309728439
13309733993
13309739730
13309743881
13309750167
13309755966
13309763839
13309771713
13309776839
13309783248
13309788375
13309795150
13309800582
13309811996
13309820174
13309828231
13309835433
13309846969
13309852889
13309866744
13309876265
13309883651
13309893905
13309903853
13309911116
13309920089
13309927108
13309933394
13309942183
13309947066
13309957198
13309964034
13309972396
13309981002
13309988692
13309997603
13310003646
13310010420
13310017378
13310025191
13310033675
13310041914
13310050215
13310057784
13310064558
13310071944
13310079329
13310083846
13310094160
13310103072
13310109602
13310116194
13310121260
13310129011
13310136153
13310144270
13310148665
13310157759
13310164168
13310171126
13310178938
13310185408
13310192793
13310199690
13310206282
13310214888
13310220381
13310230085
13310237471
13310246504
13310251936
13310259626
13310264448
13310272566
13310278852
13310287214
13310295759
13310301130
13310310835
13310318098
13310323347
13310331220
13310337690
13310345014
13310354597
13310361372
13310368513
13310376203
13310382246
13310390546
13310397016
13310403974
13310410261
13310418012
13310425703
13310433149
13310438825
13310446638
13310452863
13310459394
13310465864
13310475690
13310477704
13310488447
13310496747
13310504987
13310509259
13310517682
13310525678
13310531781
13310540631
13310545942
13310554242
13310563764
13310573835
13310582685
13310588910
13310595868
13310603436
13310610150
13310620831
13310626508
13310635968
13310646161
13310653241
13310660809
13310671368
13310678815
13310687543
13310694379
13310702924
13310711957
13310721844
13310731427
13310740216
13310746014
13310750714
13310762860
13310769269
13310777569
13310782879
13310792279
13310796856
13310801922
13310809918
13310815838
13310820782
13310825238
13310832684
13310837139
13310844647
13310848126
13310854596
13310860394
13310865948
13310868939
13310876690
13310884197
13310890301
13310896038
13310901592
13310904461
13310913494
13310919659
13310924236
13310932842
13310939129
13310944195
13310950665
13310954998
13310962933
13310967876
13310973248
13310981426
13310986492
13310993023
13310999554
13311004436
13311010418
13311017681
13311021892
13311030071
13311037029
13311043438
13311049175
13311053142
13311058025
13311064312
13311068767
13311077068
13311082866
13311087444
13311094829
13311099346
13311105632
13311109722
13311115764
13311122234
13311127666
13311133709
13311139080
13311143230
13311149578
13311156353
13311162090
13311170207
13311176982
13311182598
13311192363
13311197978
13311204509
13311219707
13311226116
13311235576
13311240886
13311249919
13311254070
13311264995
13311271342
13311278545
13311286906
13311289348
13311300273
13311310649
13311319560
13311324809
13311332744
13311341594
13311348186
13311356242
13311361125
13311372600
13311382853
13311392070
13311396464
13311407512
13311411784
13311423259
13311431865
13311438700
13311448222
13311457377
13311463114
13311469340
13311477397
13311482340
13311488322
13311493937
13311503764
13311509501
13311515177
13311521159
13311526835
13311532694
13311538065
13311543803
13311549418
13311555460
13311562540
13311567912
13311573649
13311578898
13311583903
13311590861
13311596537
13311603800
13311608866
13311613505
13311620219
13311625101
13311631937
13311636271
13311642863
13311647562
13311654764
13311659159
13311665629
13311671549
13311676066
13311682779
13311688456
13311694681
13311699564
13311704447
13311710062
13311715555
13311722696
13311726786
13311733744
13311739908
13311746805
13311750528
13311757120
13311761759
13311768717
13311772684
13311780680
13311787027
13311792459
13311799845
13311805460
13311809671
13311817728
13311823282
13311830057
13311836466
13311842630
13311847940
13311854288
13311857462
13311864969
13311871927
13311878152
13311883340
13311889078
13311892435
13311900796
13311906290
13311912454
13311919229
13311925394
13311931375
13311935586
13311942117
13311948953
13311955484
13311959207
13311965249
13311973245
13311977517
13311985757
13311991739
13311997476
13312004556
13312010293
13312017129
13312023904
13312029519
13312037393
13312045571
13312051065
13312057107
13312063699
13312069314
13312076455
13312081460
13312085732
13312095071
13312100747
13312105508
13312111733
13312117043
13312122781
13312128396
13312134560
13312141274
13312148843
13312155007
13312160012
13312166055
13312169167
13312179482
13312185097
13312190469
13312198647
13312203164
13312208352
13312214883
13312220803
13312226662
13312232705
13312236733
13312244851
13312250466
13312255837
13312260598
13312266945
13312272500
13312278359
13312284035
13312290749
13312299050
13312306130
13312311196
13312318764
13312323952
13312330544
13312336830
13312341042
13312348671
13312354531
13312362099
13312365944
13312374001
13312380409
13312387001
13312392067
13312398598
13312402565
13312412026
13312416603
13312423683
13312428688
13312434670
13312442726
13312446755
13312453713
13312461891
13312467690
13312472572
13312480751
13312485756
13312493080
13312498451
13312504616
13312511879
13312519081
13312523964
13312529152
13312535805
13312540993
13312548073
13312551918
13312558449
13312565834
13312571632
13312576820
13312582496
13312587745
13312593849
13312598243
13312604591
13312610023
13312615821
13312620338
13312626686
13312631202
13312638160
13312643531
13312651710
13312657569
13312663673
13312671424
13312677589
13312684669
13312694801
13312700355
13312708351
13312714759
13312721961
13312726478
13312733558
13312739234
13312742347
13312747962
13312752784
13312757423
13312762672
13312767127
13312773475
13312777930
13312785804
13312790259
13312796302
13312802405
13312808143
13312812415
13312817115
13312821937
13312827369
13312832130
13312839210
13312845496
13312852759
13312857032
13312862098
13312867286
13312872413
13312877662
13312882972
13312889136
13312893714
13312900489
13312904456
13312911841
13312915808
13312923133
13312926490
13312932105
13312941077
13312945960
13312952552
13312958106
13312961035
13312968115
13312973303
13312979102
13312984839
13312989966
13312995642
13313002722
13313007849
13313015418
13313022009
13313027014
13313032446
13313039893
13313045447
13313053931
13313058875
13313065161
13313071448
13313076514
13313082678
13313088538
13313096045
13313100500
13313107214
13313112585
13313118689
13313123327
13313128760
13313134314
13313139868
13313145422
13313150122
13313154455
13313159338
13313165503
13313170874
13313176184
13313182715
13313188086
13313192236
13313198340
13313203711
13313209387
13313213171
13313218908
13313224707
13313231115
13313236181
13313242102
13313247351
13313254003
13313261145
13313267553
13313275671
13313281164
13313286474
13313292089
13313295996
13313301550
13313307287
13313312658
13313317724
13313322912
13313327062
