13378861074
13378864736
13378868337
13378872488
13378876211
13378879629
13378883352
13378887319
13378891409
13378896108
13378901052
13378905447
13378909902
13378914907
13378919729
13378924490
13378930532
13378935842
13378940054
13378945547
13378952261
13378958669
13378963979
13378974050
13378983938
13378992116
13378999196
13379005239
13379012563
13379020559
13379028127
13379037038
13379044179
13379053762
13379060903
13379068532
13379075490
13379083242
13379093679
13379100698
13379106984
13379117665
13379124501
13379132619
13379138173
13379146352
13379153615
13379161366
13379168141
13379175099
13379180043
13379187062
13379192860
13379201039
13379208241
13379214894
13379220876
13379227406
13379233022
13379239186
13379245045
13379250417
13379260182
13379265858
13379273671
13379280141
13379288075
13379295399
13379301564
13379308278
13379312611
13379319264
13379324513
13379329640
13379334034
13379339283
13379344227
13379349598
13379353260
13379357350
13379365590
13379370106
13379376881
13379381581
13379386525
13379390858
13379396046
13379399647
13379406422
13379410939
13379415516
13379420704
13379426197
13379431019
13379435414
13379439320
13379444203
13379450123
13379454640
13379459339
13379464405
13379468250
13379472523
13379478993
13379485523
13379490711
13379495655
13379500172
13379505726
13379512440
13379517323
13379522144
13379530018
13379534656
13379539722
13379544178
13379550404
13379556629
13379562549
13379571155
13379576710
13379583973
13379591724
13379596485
13379603199
13379609913
13379617603
13379623279
13379630481
13379635059
13379642078
13379648670
13379655018
13379661853
13379668995
13379674610
13379680957
13379686817
13379693653
13379699329
13379706714
13379712085
13379717151
13379722339
13379727161
13379731616
13379737903
13379743823
13379750476
13379756519
13379762622
13379768237
13379774280
13379779895
13379785938
13379790759
13379798450
13379804004
13379809497
13379814136
13379819690
13379825793
13379831226
13379835498
13379842456
13379847339
13379852100
13379857226
13379861926
13379867053
13379871692
13379876941
13379882800
13379888659
13379894397
13379900073
13379904834
13379909717
13379914233
13379919970
13379925280
13379930835
13379936267
13379941211
13379946643
13379951587
13379955676
13379963000
13379969409
13379975085
13379981616
13379988208
13379995837
13380004748
13380012316
13380021899
13380027270
13380035754
13380044604
13380048754
13380059741
13380069933
13380079943
13380085619
13380094347
13380102038
13380111315
13380117236
13380123949
13380132311
13380139452
13380147143
13380152941
13380159960
13380166247
13380173388
13380181322
13380186449
13380192492
13380196825
13380203539
13380208727
13380214525
13380219591
13380225084
13380230822
13380235643
13380242174
13380247362
13380253954
13380259691
13380264086
13380270250
13380275988
13380282518
13380289232
13380294237
13380299547
13380304796
13380311083
13380318041
13380323473
13380330919
13380337572
13380343370
13380349169
13380356676
13380360399
13380368211
13380374437
13380381151
13380386644
13380392503
13380399156
13380405016
13380409776
13380417711
13380423509
13380430772
13380438036
13380443162
13380448411
13380455186
13380460130
13380467882
13380474046
13380479417
13380486558
13380496202
13380502977
13380512071
13380518846
13380528489
13380535875
13380546861
13380554795
13380563096
13380571458
13380578355
13380588182
13380595201
13380605149
13380612107
13380621568
13380628404
13380639512
13380645860
13380654344
13380660630
13380671006
13380674424
13380683762
13380689805
13380697495
13380701341
13380707627
13380717881
13380724717
13380733262
13380741502
13380749314
13380753648
13380769822
13380775315
13380781479
13380786912
13380791550
13380797776
13380802353
13380807419
13380812363
13380819443
13380825852
13380830674
13380835007
13380839951
13380844651
13380851059
13380854416
13380860886
13380866135
13380873459
13380878037
13380884812
13380889633
13380894944
13380899094
13380905197
13380909775
13380914475
13380919052
13380924362
13380929367
13380935105
13380940842
13380946518
13380952194
13380956284
13380961289
13380966171
13380971176
13380979172
13380985825
13380993820
13381001633
13381010056
13381016586
13381024094
13381033432
13381039841
13381049789
13381057724
13381065842
13381072555
13381080063
13381087692
13381095932
13381103195
13381111496
13381119858
13381126144
13381134872
13381142807
13381149948
13381158737
13381165207
13381174240
13381182663
13381188827
13381193832
13381199935
13381205123
13381210861
13381215744
13381219650
13381226730
13381230392
13381238998
13381242416
13381248886
13381253829
13381257552
13381263778
13381268478
13381272994
13381280257
13381285629
13381291122
13381297897
13381303939
13381308212
13381313461
13381319808
13381324508
13381332748
13381336166
13381343124
13381347762
13381354537
13381357467
13381366378
13381373763
13381380843
13381386580
13381393050
13381396834
13381405135
13381410018
13381417281
13381421798
13381427596
13381431685
13381438094
13381442183
13381447493
13381453963
13381458113
13381464278
13381468306
13381475875
13381481612
13381488631
13381496321
13381502974
13381509627
13381517501
13381525374
13381534529
13381541854
13381549849
13381558150
13381566695
13381572920
13381582015
13381588667
13381596602
13381606551
13381614729
13381621138
13381628889
13381636336
13381643599
13381652144
13381659041
13381669783
13381677168
13381685408
13381689558
13381696943
13381701277
13381706343
13381713484
13381718062
13381724897
13381728560
13381735579
13381740339
13381746931
13381752241
13381757307
13381763105
13381769697
13381775984
13381782148
13381787641
13381791853
13381798017
13381804121
13381808454
13381813520
13381820112
13381825910
13381831037
13381837141
13381842451
13381847578
13381853315
13381858991
13381865278
13381870100
13381875776
13381881513
13381887006
13381892072
13381899824
13381903303
13381911054
13381916547
13381922773
13381927534
13381933942
13381938947
13381943220
13381950788
13381955671
13381962324
13381970441
13381978559
13381983442
13381990705
13381998273
13382008649
13382016462
13382023664
13382030622
13382037641
13382044721
13382052289
13382059552
13382066693
13382074750
13382082624
13382089643
13382096112
13382102887
13382109296
13382116376
13382122540
13382127912
13382134625
13382141767
13382145795
13382153912
13382162885
13382169293
13382180524
13382186627
13382191998
13382197064
13382202435
13382206708
13382212811
13382216534
13382224164
13382230084
13382235394
13382239484
13382245160
13382248517
13382254620
13382258832
13382266034
13382269940
13382276715
13382281598
13382287213
13382292157
13382297955
13382302228
13382308331
13382313153
13382319134
13382323224
13382327923
13382333050
13382339215
13382345807
13382349224
13382355572
13382359417
13382365277
13382370098
13382375714
13382380780
13382386029
13382388836
13382396160
13382402569
13382408245
13382411358
13382417767
13382422650
13382428814
13382432965
13382438885
13382443157
13382449383
13382454693
13382462689
13382470501
13382478130
13382485088
13382491558
13382499798
13382508221
13382514568
13382523846
13382529827
13382536297
13382546001
13382552349
13382561931
13382568523
13382575054
13382584331
13382590618
13382600689
13382607036
13382614055
13382621990
13382629619
13382637249
13382645916
13382652629
13382662334
13382668499
13382674541
13382680522
13382686016
13382694561
13382699810
13382706279
13382712627
13382719097
13382723186
13382727092
13382733013
13382737529
13382742229
13382746196
13382751201
13382755473
13382761394
13382767192
13382770793
13382777629
13382781657
13382786906
13382798076
13382803569
13382809367
13382816020
13382822002
13382826823
13382831889
13382836772
13382841350
13382845622
13382851237
13382855327
13382860759
13382865947
13382871318
13382876445
13382881450
13382887065
13382892497
13382897502
13382900859
13382909099
13382914531
13382918498
13382924785
13382929301
13382933452
13382940471
13382947429
13382956706
13382964518
13382970317
13382978129
13382987284
13382994059
13383000651
13383008280
13383020426
13383026408
13383035685
13383042826
13383050272
13383057658
13383066813
13383073222
13383082804
13383090372
13383099711
13383107951
13383114542
13383121683
13383130778
13383137736
13383144572
13383148356
13383155802
13383163492
13383168009
13383173258
13383179789
13383184916
13383190348
13383195597
13383201334
13383206827
13383211588
13383217386
13383221415
13383226664
13383233316
13383237955
13383244303
13383249430
13383256510
13383261881
13383269937
13383275919
13383283548
13383290628
13383296305
13383305277
13383310037
13383315958
13383323282
13383330240
13383333170
13383340372
13383345560
13383350260
13383355631
13383360147
13383362589
13383370340
13383375101
13383379984
13383384866
13383391397
13383396158
13383402689
13383407938
13383413370
13383419473
13383425455
13383432657
13383438455
13383444314
13383453348
13383460123
13383467203
13383471536
13383484109
13383492044
13383500467
13383504678
13383514261
13383520791
13383530557
13383536966
13383544656
13383554055
13383562234
13383569253
13383576394
13383585916
13383591409
13383601724
13383610330
13383617593
13383626748
13383631875
13383636331
13383643716
13383648782
13383655557
13383658242
13383666787
13383670815
13383677468
13383681496
13383688577
13383693765
13383700356
13383703408
13383711404
13383715920
13383722878
13383727334
13383733681
13383738320
13383743569
13383750954
13383757546
13383763650
13383769204
13383773110
13383779152
13383783059
13383788430
13383794106
13383798867
13383805886
13383810891
13383816323
13383822731
13383827248
13383832375
13383839333
13383844399
13383851052
13383856362
13383862099
13383868203
13383873635
13383879067
13383886391
13383892861
13383897194
13383903725
13383909035
13383916725
13383923500
13383933693
13383941078
13383949623
13383956825
13383967262
13383974709
13383982094
13383989052
13383997902
13384009193
13384014931
13384022316
13384032570
13384039101
13384047951
13384054054
13384064186
13384071449
13384079384
13384085731
13384095741
13384101661
13384110634
13384116493
13384125465
13384131202
13384136390
13384146339
13384153785
13384158180
13384163673
13384167579
13384174781
13384182594
13384188026
13384193458
13384198341
13384202613
13384207557
13384211769
13384218421
13384224769
13384229408
13384234168
13384239295
13384243507
13384249427
13384254371
13384259498
13384265174
13384270057
13384274879
13384281532
13384286964
13384291541
13384297645
13384305030
13384311317
13384316260
13384322425
13384329139
13384335303
13384340125
13384345618
13384350989
13384357642
13384363563
13384369849
13384373939
13384379004
13384385291
13384390601
13384398597
13384404700
13384412146
13384421119
13384428809
13384437049
13384444800
13384452124
13384463843
13384470923
13384481543
13384489356
13384497046
13384506568
13384513953
13384521338
13384530127
13384539343
13384547339
13384551856
13384563757
13384571448
13384580420
13384586890
13384597021
13384606726
13384616492
13384621741
13384630713
13384638098
13384647253
13384654272
13384662085
13384669897
13384674109
13384680578
13384686072
13384691443
13384697851
13384705114
13384711279
13384716040
13384722204
13384726660
13384733130
13384737768
13384742224
13384750219
13384755957
13384761389
13384766577
13384773840
13384779516
13384784765
13384790136
13384796728
13384803503
13384808813
13384812658
13384818517
13384824804
13384828771
13384833044
13384841528
13384846899
13384854467
13384859472
13384863561
13384869909
13384875585
13384881017
13384886755
13384892065
13384896642
13384902380
13384906713
13384911718
13384919775
13384927343
13384934240
13384943761
13384951208
13384958837
13384965490
13384973974
13384979955
13384989538
13384997106
13385005834
13385013891
13385019872
13385025975
13385035070
13385044286
13385049474
13385056615
13385063451
13385074620
13385081090
13385088597
13385095433
13385104711
13385116246
13385122289
13385130040
13385136815
13385141271
13385146520
13385152867
13385158666
13385164037
13385167027
13385173802
13385180577
13385188145
13385192540
13385197606
13385204503
13385209325
13385216161
13385220616
13385225804
13385232945
13385237645
13385244176
13385248387
13385255345
13385263218
13385271214
13385277745
13385285313
13385291600
13385296727
13385303990
13385308140
13385313206
13385319188
13385324376
13385330296
13385334690
13385341160
13385345738
13385352269
13385357212
13385364048
13385368931
13385373326
13385378819
13385384678
13385389439
13385394627
13385399632
13385407994
13385416111
13385423130
13385430943
13385437412
13385443516
13385450718
13385458286
13385465305
13385473301
13385480869
13385491856
13385500706
13385509067
13385515232
13385521946
13385532322
13385539890
13385547947
13385554966
13385561497
13385570957
13385578525
13385586033
13385594089
13385604526
13385613559
13385619968
13385627353
13385632602
13385638156
13385643222
13385648471
13385655307
13385661228
13385666782
13385671909
13385677463
13385682407
13385689060
13385693332
13385699985
13385704746
13385710544
13385717685
13385721347
13385727939
13385733554
13385739414
13385745700
13385751193
13385756931
13385762058
13385766940
13385773105
13385779147
13385784763
13385789706
13385796603
13385802646
13385809116
13385814304
13385820407
13385827182
13385831760
13385836093
13385843661
13385850192
13385854648
13385858981
13385865878
13385870334
13385877597
13385883944
13385887423
13385896701
13385901950
13385908908
13385914523
13385921603
13385930575
13385938632
13385948336
13385955783
13385963656
13385972384
13385979647
13385989596
13385995028
13386002474
13386010348
13386018344
13386027316
13386034945
13386038668
13386049105
13386053500
13386064059
13386070712
13386081210
13386090182
13386098482
13386104952
13386113497
13386120333
13386127718
13386135714
13386141329
13386147127
13386152559
13386157686
13386162752
13386168917
13386174654
13386180208
13386185824
13386192415
13386198763
13386203402
13386209749
13386215364
13386219820
13386226046
13386230989
13386238314
13386243013
13386248568
13386255037
13386259920
13386265047
13386270662
13386276338
13386283174
13386289949
13386294283
13386299837
13386306307
13386312471
13386315584
13386322725
13386328890
13386334688
13386339876
13386345979
13386350618
13386356966
13386362886
13386367281
13386374361
13386379121
13386386018
13386390169
13386396822
13386402437
13386409212
13386414766
13386420259
13386425508
13386433015
13386440156
13386448274
13386456575
13386464570
13386472017
13386480684
13386486970
13386499177
13386507661
13386517060
13386526338
13386534517
13386541536
13386549531
13386557222
13386566377
13386573579
13386584382
13386591828
13386600007
13386607697
13386614655
13386625031
13386631989
13386645539
13386653901
13386661652
13386666108
13386674104
13386679230
13386684296
13386691010
13386698884
13386704499
13386709138
13386715790
13386720368
13386725861
13386732392
13386738007
13386745026
13386750336
13386757050
13386761139
13386768097
13386772004
13386779023
13386786042
13386791901
13386797089
13386802826
13386808991
13386813141
13386819062
13386825287
13386829865
13386836335
13386840851
13386846100
13386852997
13386857941
13386864472
13386870148
13386874359
13386880463
13386888153
13386892975
13386900238
13386904206
13386911530
13386916351
13386921967
13386927704
13386933014
13386937836
13386945099
13386949677
13386954804
13386964508
13386971649
13386980804
13386986786
13386996246
13387004486
13387012360
13387019928
13387027313
13387034698
13387043304
13387051117
13387062225
13387069244
13387077118
13387081512
13387093170
13387101410
13387109405
13387116302
13387125091
13387131927
13387140838
13387147247
13387155487
13387162994
13387171661
13387178131
13387183135
13387189117
13387194000
13387200958
13387206329
13387211395
13387216888
13387223052
13387228057
13387234039
13387239166
13387244964
13387251678
13387257476
13387261932
13387267913
13387272796
13387280730
13387286407
13387294707
13387305450
13387313018
13387320647
13387326507
13387332793
13387339141
13387347564
13387352508
13387359282
13387363677
13387371123
13387377227
13387381865
13387392241
13387397673
13387402068
13387407500
13387412688
13387418608
13387424956
13387430327
13387435271
13387442107
13387447356
13387453398
13387459014
13387464629
13387471831
13387480925
13387488249
13387494902
13387504241
13387508635
13387519194
13387528166
13387536223
13387543608
13387553130
13387558134
13387567168
13387573088
13387581877
13387589140
13387597563
13387604216
13387610930
13387620756
13387626921
13387635954
13387645231
13387654631
13387661528
13387671171
13387677336
13387682829
13387688444
13387693388
13387700712
13387703886
13387711943
13387718412
13387725065
13387728788
13387737516
13387740690
13387748564
13387753630
13387759367
13387764250
13387769743
13387774443
13387778837
13387786894
13387790739
13387799284
13387804228
13387809355
13387815519
13387820463
13387827177
13387833097
13387840421
13387846403
13387850980
13387860624
13387869230
13387875639
13387881376
13387887296
13387891874
13387897428
13387905057
13387911466
13387917570
13387923856
13387932584
13387937223
13387945707
13387951993
13387960599
13387965604
13387976774
13387985624
13387992643
13388002286
13388008146
13388016019
13388022550
13388030484
13388036466
13388044217
13388050626
13388060330
13388067533
13388075101
13388081327
13388086759
13388094754
13388100736
13388110623
13388117642
13388124906
13388131986
13388140286
13388147366
13388152921
13388162930
13388169095
13388175137
13388179105
13388185025
13388189969
13388194852
13388199734
13388207303
13388210965
13388219388
13388225186
13388231351
13388237088
13388243374
13388248562
13388255093
13388260708
13388267239
13388272061
13388279446
13388283047
13388289761
13388293911
13388300259
13388306302
13388314053
13388318386
13388323880
13388329617
13388337246
13388342495
13388351589
13388357449
13388363064
13388368618
13388374478
13388379421
13388386685
13388391995
13388397915
13388404080
13388409390
13388414639
13388420925
13388425991
13388432278
13388436855
13388443996
13388451992
13388459316
13388466946
13388473965
13388481533
13388489834
13388501858
13388508694
13388516994
13388525234
13388530849
13388539211
13388547024
13388552578
13388562526
13388573024
13388579006
13388588222
13388594387
13388605190
13388612758
13388621975
13388630825
13388639919
13388647487
13388656703
13388662624
13388668239
13388671413
13388680141
13388684963
13388692226
13388696864
13388702846
13388708766
13388714931
13388720546
13388726833
13388732082
13388738551
13388743617
13388749538
13388755702
13388761256
13388764247
13388773219
13388779018
13388785182
13388789760
13388797694
13388803676
13388809535
13388814113
13388819911
13388827724
13388833766
13388839015
13388846217
13388851405
13388858180
13388863429
13388871241
13388876429
13388881801
13388886500
13388893885
13388898463
13388905299
13388911097
13388915492
13388924281
13388928553
13388936915
13388944056
13388950038
13388954615
13388962672
13388970423
13388976100
13388981959
13388989161
13388992945
13389001246
13389005641
13389011927
13389018214
13389025233
13389032435
13389039332
13389045496
13389050135
13389055933
13389064173
13389071375
13389075098
13389084071
13389088404
13389095606
13389102808
13389108607
13389116297
13389121424
13389127344
13389135279
13389143091
13389150782
13389157129
13389161890
13389168543
13389173914
13389181055
13389187708
13389195826
13389198999
13389206812
13389214258
13389219629
13389228052
13389236658
13389244409
13389249414
13389261255
13389267053
13389272913
13389279993
13389284998
13389289636
13389295069
13389301355
13389305261
13389311182
13389315881
13389322900
13389328882
13389334924
13389339075
13389346155
13389352136
13389357568
13389363123
13389369409
13389375696
13389381982
13389386743
13389392297
13389398645
13389404077
13389408960
13389416223
13389420618
13389425744
13389431055
13389437951
13389442529
13389448083
13389453210
13389460962
13389466150
13389475366
13389479394
13389485986
13389491479
13389497888
13389503198
13389511743
13389517053
13389524865
13389528527
13389535607
13389540246
13389546350
13389552331
13389558984
13389564721
13389571008
13389576379
13389582726
13389588525
13389595178
13389600915
13389607263
13389613671
13389619653
13389625207
13389631738
13389637963
13389643823
13389650842
13389657006
13389662133
13389668114
13389674279
13389680199
13389685448
13389691491
13389697594
13389704919
13389711999
13389718590
13389724084
13389730309
13389736901
13389742943
13389749169
13389756066
13389762047
13389768578
13389774376
13389780236
13389786705
13389790795
13389797570
13389803978
13389811364
13389818810
13389823815
13389830101
13389836815
13389843834
13389849510
13389857933
13389862877
13389871361
13389877709
13389883141
13389889000
13389893883
13389900047
13389905724
13389911278
13389917442
13389922936
13389929222
13389933434
13389939903
13389946373
13389951256
13389955956
13389963219
13389969627
13389973839
13389980919
13389985313
13389990135
13389997154
13390000816
13390006981
13390011680
13390018699
13390024254
13390028404
13390036583
13390042076
13390047508
13390052147
13390057579
13390064659
13390069542
13390076255
13390081993
13390087791
13390093528
13390100242
13390104576
13390110984
13390117332
13390123008
13390128135
13390135032
13390140769
13390146690
13390152183
13390159629
13390163413
13390170616
13390176353
13390183189
13390188804
13390196250
13390200767
13390208152
13390212913
13390218711
13390224693
13390232322
13390239707
13390245506
13390250999
13390257407
13390262962
13390268882
13390275474
13390281516
13390286460
13390292075
13390298850
13390304954
13390309836
13390315757
13390322227
13390326743
13390333640
13390339988
13390343345
13390352256
13390358115
13390363120
13390369101
13390376059
13390384055
13390390097
13390394675
13390401999
13390407737
13390413779
13390419760
13390425864
13390432090
13390441245
13390450583
13390456565
13390462668
13390468650
13390474753
13390480612
13390486350
13390490988
13390498007
13390502646
13390509421
13390513449
13390520041
13390524008
13390530722
13390536032
13390540915
13390546896
13390553732
13390558981
13390566367
13390570395
13390577048
13390582663
13390589255
13390594809
13390600180
13390605795
13390612265
13390618429
13390622519
13390628744
13390635153
13390640768
13390646139
13390652914
13390659872
13390664511
13390669211
13390676413
13390680868
13390686728
13390694052
13390698080
13390705893
13390711691
13390716696
13390722372
13390729391
13390733847
13390741049
13390746298
13390754843
13390759603
13390765829
13390771871
13390777426
13390783651
13390789205
13390796163
13390801901
13390807028
13390813253
13390820760
13390827840
13390833822
13390841695
13390848104
13390855123
13390859640
13390866476
13390870748
13390877218
13390882162
13390889181
13390896566
13390902669
13390907857
13390912923
13390918172
13390922811
13390928548
13390934530
13390940511
13390944539
13390951192
13390955526
13390961995
13390966695
13390972921
13390980001
13390984700
13390990682
13390999044
13391004537
13391011861
13391017720
13391023397
13391031697
13391037862
13391044820
13391052205
13391057881
13391062886
13391069173
13391073506
13391078694
13391084249
13391088765
13391094014
13391098653
13391104146
13391108846
13391114827
13391120870
13391126363
13391132283
13391136922
13391143391
13391148763
13391153584
13391157796
13391165120
13391170369
13391175069
13391180196
13391185445
13391191304
13391196492
13391199238
13391208027
13391212666
13391219319
13391222859
13391229573
13391234883
13391240376
13391245625
13391250813
13391256123
13391261799
13391266255
13391272053
13391278096
13391284199
13391287068
13391295491
13391303730
13391309773
13391315205
13391320576
13391325886
13391331990
13391335163
13391343159
13391348164
13391354573
13391360798
13391366291
13391371357
13391376545
13391382954
13391387348
13391395405
13391400410
13391406818
13391410908
13391418049
13391422810
13391428852
13391433552
13391442829
13391447773
13391454670
13391461262
13391466267
13391470905
13391476887
13391483295
13391491047
13391496235
13391503681
13391509968
13391514850
13391520466
13391527668
13391532551
13391539203
13391544697
13391551532
13391557880
13391563678
13391570881
13391577472
13391582050
13391592182
13391601764
13391607074
13391612506
13391615680
13391624164
13391629230
13391635089
13391640216
13391645038
13391649494
13391655658
13391659870
13391666217
13391670612
13391677326
13391683063
13391687702
13391692951
13391697223
13391701862
13391707721
13391712299
13391719928
13391724200
13391730060
13391734882
13391741534
13391745502
13391753009
13391758014
13391765582
13391770465
13391780292
13391783710
13391790240
13391795123
13391801959
13391806964
13391812762
13391818377
13391825030
13391829486
13391834735
13391842242
13391846759
13391853045
13391859210
13391867633
13391873858
13391880877
13391886493
13391892840
13391900042
13391905963
13391911273
13391918353
13391923724
13391929156
13391933490
13391940325
13391945758
13391952410
13391957171
13391964312
13391969744
13391974261
13391978839
13391984637
13391989031
13391998614
13392004046
13392010699
13392018267
13392022723
13392029620
13392034686
13392040606
13392047320
13392052203
13392056170
13392062701
13392066058
13392072710
13392077288
13392084551
13392091204
13392096819
13392102801
13392108294
13392113726
13392119341
13392124712
13392132952
13392138262
13392144854
13392150164
13392156450
13392163714
13392169817
13392176287
13392183794
13392189226
13392195269
13392200701
13392206011
13392211077
13392214800
13392220781
13392225725
13392231035
13392235552
13392239214
13392245073
13392249163
13392255693
13392260881
13392267656
13392272051
13392277178
13392281145
13392287981
13392292070
13392296404
13392304094
13392307756
13392313738
13392319475
13392324052
13392329363
13392335710
13392340471
13392347124
13392352495
13392359514
13392365984
13392370378
13392376787
13392382341
13392388322
13392394243
13392400957
13392406999
13392412980
13392419084
13392423478
13392428300
13392433610
13392441667
13392446550
13392452409
13392457353
13392463823
13392469926
13392475358
13392481157
13392487687
13392493303
13392497636
13392502580
13392509111
13392515885
13392520524
13392527604
13392531144
13392538835
13392544389
13392550675
13392557511
13392562821
13392568315
13392574418
13392579240
13392586869
13392593583
13392597855
13392604325
13392609391
13392614579
13392621049
13392626054
13392631059
13392638261
13392643143
13392649735
13392656815
13392662369
13392667802
13392674454
13392682084
13392689469
13392696183
13392702836
13392709244
13392715104
13392721146
13392729203
13392738724
13392745499
13392752884
13392761246
13392768326
13392773697
13392780655
13392785050
13392790360
13392797379
13392802628
13392808670
13392813126
13392818985
13392823685
13392830155
13392835282
13392840531
13392847122
13392853531
13392857987
13392863907
13392869095
13392874100
13392878983
13392886246
13392891495
13392897232
13392901505
13392906204
13392912552
13392917557
13392921951
13392930252
13392936783
13392941544
13392948990
13392953934
13392960098
13392967606
13392974441
13392981460
13392987381
13392992996
13392998916
13393003799
13393011612
13393016434
13393025223
13393029556
13393035476
13393040786
13393047134
13393053055
13393059280
13393064651
13393070877
13393074234
13393082473
13393087967
13393094375
13393099258
13393106887
13393111831
13393116592
13393124282
13393129104
13393135513
13393141372
13393147293
13393151870
13393159439
13393164932
13393171096
13393176040
13393182754
13393188247
13393193008
13393199722
13393204238
13393211074
13393216750
13393222854
13393229507
13393235427
13393240249
13393246535
13393252639
13393258803
13393266799
13393273330
13393278823
13393284804
13393291396
13393297622
13393302505
13393309829
13393314956
13393324843
13393330275
13393338271
13393345656
13393351272
13393358291
13393364333
13393368117
13393378127
13393386306
13393394851
13393401808
13393408095
13393412612
13393418532
13393422682
13393429946
13393435012
13393440810
13393444838
13393451369
13393455947
13393461928
13393467970
13393472914
13393478041
13393484511
13393490553
13393495009
13393501662
13393506178
13393511671
13393518752
13393523940
13393530226
13393535353
13393541884
13393546034
13393552016
13393557021
13393564162
13393568251
13393574354
13393580397
13393586073
13393591933
13393596876
13393602919
13393610182
13393615492
13393620619
13393626906
13393632582
13393638502
13393643629
13393648207
13393654982
13393663038
13393669874
13393672621
13393679518
13393684523
13393691542
13393695936
13393702772
13393711134
13393717054
13393722120
13393727919
13393732984
13393737501
13393744337
13393749708
13393756971
13393761244
13393767652
13393772840
13393779981
13393785475
13393791212
13393797132
13393802992
13393808424
13393814405
13393821058
13393826185
13393832349
13393838026
13393843885
13393848402
13393858655
13393865003
13393870313
13393877576
13393883131
13393888746
13393894971
13393902295
13393909559
13393915296
13393920667
13393924939
13393929761
13393937940
13393942518
13393948316
13393956556
13393964185
13393969617
13393975232
13393981153
13393987317
13393993482
13394001722
13394006604
13394015393
13394019666
13394027051
13394031690
13394037610
13394043530
13394048474
13394053967
13394059400
13394064343
13394069165
13394075635
13394079968
13394088147
13394092969
13394099622
13394105420
13394111279
13394115491
13394123547
13394130933
13394136548
13394143201
13394150098
13394155530
13394159375
13394163342
13394169568
13394173901
13394181409
13394188794
13394194348
13394200024
13394205456
13394208447
13394215832
13394222241
13394226025
13394231091
13394238476
13394242321
13394249341
13394253918
13394260083
13394265393
13394270642
13394274975
13394281384
13394285229
13394291699
13394297070
13394302136
13394306713
13394311352
13394321667
13394326733
13394334240
13394340344
13394344921
13394350292
13394355480
13394361584
13394368237
13394373974
13394380627
13394384533
13394391613
13394395458
13394402599
13394407360
13394413525
13394420727
13394427013
13394431530
13394437145
13394440441
13394448986
13394454235
13394460705
13394464001
13394471630
13394478222
13394484814
13394490368
13394497509
13394502025
13394507702
13394512890
13394524120
13394529857
13394536022
13394542675
13394550121
13394555004
13394565075
13394572521
13394578930
13394585033
13394592296
13394597850
13394604137
13394610179
13394615856
13394620433
13394627330
13394631114
13394638011
13394642223
13394647655
13394653819
13394658641
13394665538
13394669872
13394675792
13394681163
13394686473
13394692943
13394698131
13394705089
13394710460
13394715831
13394722179
13394727428
13394732188
13394739696
13394744823
13394749034
13394754954
13394760631
13394765697
13394772105
13394776805
13394782908
13394789622
13394793406
13394800059
13394804088
13394810374
13394814280
13394820506
13394825816
13394831736
13394838023
13394846019
13394851756
13394856822
13394862132
13394869212
13394874095
13394881602
13394887645
13394893626
13394898997
13394904795
13394908763
13394915599
13394921275
13394927012
13394932261
13394938975
13394942332
13394950083
13394955638
13394961192
13394968821
13394973216
13394979136
13394985789
13394992930
13394998240
13395004893
13395009104
13395015635
13395021799
13395028208
13395035044
13395041514
13395047434
13395053843
13395059702
13395070200
13395075327
13395081858
13395086802
13395093210
13395100596
13395107615
13395114390
13395118723
13395124399
13395128916
13395136057
13395140452
13395149851
13395153574
13395160410
13395166330
13395172983
13395178965
13395185862
13395191172
13395195200
13395200693
13395204355
13395210092
13395216257
13395222055
13395227915
13395233225
13395238718
13395243967
13395248972
13395254770
13395260324
13395265024
13395271860
13395276560
13395283151
13395287790
13395294016
13395299326
13395305856
13395310983
13395315805
13395321115
13395327219
13395331918
13395336130
13395341257
13395347909
13395353158
13395358530
13395363412
13395367746
13395372629
13395378244
13395381845
13395389169
13395396127
13395401193
13395406930
13395411081
13395416940
13395420907
13395425729
13395432687
13395439462
13395444040
13395448800
13395455819
13395459420
13395465829
13395471078
13395478769
13395483529
13395489999
13395494943
13395501229
13395505258
13395512155
13395518441
13395524972
13395531503
13395536141
13395540963
13395547616
13395552560
13395559396
13395562753
13395571847
13395577889
13395582406
13395589242
13395594064
13395598641
13395605294
13395610604
13395621224
13395628732
13395633736
13395639291
13395646188
13395652108
13395656869
13395661385
13395669076
13395675423
13395681710
13395688729
13395694832
13395702035
13395709054
13395719430
13395725655
13395732979
13395740487
13395746712
13395751778
13395757149
13395762154
13395768013
13395774178
13395779183
13395784920
13395789070
13395794686
13395800545
13395804756
13395811409
13395817574
13395823494
13395828011
13395832833
13395840035
13395845833
13395851143
13395857308
13395861580
13395865852
13395873543
13395877876
13395883431
13395891792
13395897041
13395903816
13395908272
13395914986
13395919502
13395926582
13395933784
13395937996
13395943672
13395948921
13395956306
13395960762
13395968696
13395975410
13395981819
13395985847
13395991646
13395999397
13396006416
13396011665
13396017647
13396023018
13396029976
13396035286
13396041877
13396048591
13396053352
13396057991
13396065254
13396070991
13396076118
13396081916
13396086677
13396094184
13396100532
13396106086
13396111396
13396117378
13396122322
13396129768
13396136360
13396142036
13396147712
13396153449
13396159248
13396163642
13396171394
13396175239
13396182563
13396188972
13396194831
13396200019
13396205268
13396210761
13396217780
13396223029
13396229560
13396233039
13396243171
13396249396
13396255805
13396260932
13396267463
13396273871
13396281806
13396288459
13396295478
13396303657
13396309272
13396317145
13396323310
13396330329
13396335761
13396340888
13396347236
13396353278
13396358222
13396364447
13396371161
13396376899
13396381232
13396388373
13396392523
13396398444
13396405036
13396411322
13396414374
13396421576
13396426581
13396431891
13396437201
13396442267
13396446784
13396454352
13396458685
13396463141
13396470587
13396474799
13396481574
13396487189
13396493720
13396495306
13396503973
13396510321
13396517157
13396523138
13396527594
13396533758
13396539191
13396544012
13396549689
13396556525
13396560858
13396570441
13396575690
13396581000
13396586127
13396593085
13396597723
13396604071
13396609747
13396616949
13396623114
13396629889
13396635138
13396638800
13396646124
13396651068
13396658453
13396662909
13396668463
13396674566
13396680914
13396685553
13396691656
13396697271
13396704351
13396707647
13396715887
13396722418
13396727972
13396733892
13396740240
13396746649
13396752386
13396758611
13396765203
13396771124
13396778082
13396784185
13396788763
13396795416
13396801153
13396806158
13396814886
13396821477
13396826788
13396832342
13396839849
13396846624
13396853399
13396862310
13396867376
13396877813
13396885259
13396891179
13396901922
13396912053
13396919683
13396922063
13396937505
13396946843
13396953008
13396965215
13396973333
13396982549
13396989141
13396999944
13397007146
13397015325
13397021062
13397025517
13397035039
13397040654
13397048589
13397053594
13397058537
13397063970
13397069280
13397075871
13397082829
13397089848
13397095342
13397100896
13397106084
13397111394
13397118230
13397123112
13397129399
13397134648
13397139531
13397145817
13397149907
13397156254
13397162541
13397169560
13397174199
13397180607
13397187993
13397194584
13397198918
13397204594
13397210576
13397217473
13397222966
13397230046
13397233220
13397241215
13397246891
13397253117
13397257939
13397264042
13397269535
13397274906
13397281742
13397286381
13397292668
13397298161
13397305546
13397311161
13397316777
13397322331
13397329350
13397334477
13397340214
13397346317
13397351627
13397356754
13397363346
13397368473
13397374271
13397380497
13397386601
13397393009
13397399052
13397404972
13397410038
13397417545
13397424869
13397431644
13397437443
13397443668
13397448490
13397454655
13397462101
13397467472
13397470951
13397479618
13397483158
13397492801
13397497684
13397504032
13397509525
13397514652
13397519352
13397524479
13397531681
13397536197
13397541507
13397547733
13397552860
13397557804
13397563785
13397573917
13397581119
13397588687
13397592533
13397603580
13397608829
13397615421
13397620975
13397628116
13397634220
13397640933
13397644962
13397649661
13397655216
13397660587
13397666141
13397673465
13397679202
13397684940
13397690555
13397696231
13397701846
13397706912
13397710941
13397717349
13397723575
13397729495
13397734256
13397739932
13397746158
13397751590
13397756045
13397761539
13397766543
13397773746
13397778262
13397783450
13397789187
13397794925
13397801333
13397804751
13397810489
13397817569
13397822024
13397828128
13397834720
13397838321
13397844790
13397851321
13397857241
13397864505
13397875430
13397881350
13397884890
13397895144
13397899966
13397905764
13397912417
13397918582
13397921572
13397930483
13397934756
13397940432
13397946108
13397952578
13397958498
13397965395
13397971560
13397975100
13397982119
13397988039
13397994082
13397999514
13398007937
13398012942
13398018923
13398023379
13398029787
13398035708
13398040957
13398046816
13398052248
13398056948
13398064394
13398068178
13398074892
13398080202
13398086489
13398091982
13398096377
13398103762
13398109743
13398115175
13398119509
13398126406
13398131960
13398136782
13398141970
13398149050
13398154970
13398161257
13398165529
13398173525
13398178957
13398184877
13398191286
13398198000
13398203920
13398212099
13398216249
13398224001
13398228761
13398235353
13398240541
13398246156
13398252016
13398259828
13398264467
13398270265
13398275209
13398282411
13398286867
13398293642
13398301576
13398307741
13398310793
13398317689
13398323549
13398329347
13398333742
13398341249
13398349000
13398353578
13398358034
13398365419
13398370424
13398376649
13398382387
13398387819
13398392335
13398397706
13398403749
13398407594
13398413759
13398418336
13398424745
13398429078
13398437501
13398442994
13398449525
13398455262
13398460756
13398466737
13398471864
13398477723
13398484193
13398488526
13398496339
13398501039
13398506715
13398511842
13398517945
13398522218
13398529847
13398536805
13398542787
13398546632
13398557923
13398562806
13398569703
13398577271
13398583436
13398587891
13398595643
13398600282
13398607789
13398612183
13398618226
13398624818
13398631470
13398639466
13398645447
13398650269
13398656251
13398660706
13398666932
13398673340
13398679078
13398684205
13398690735
13398697083
13398703003
13398708069
13398717774
13398722474
13398729737
13398737244
13398743470
13398748291
13398753540
13398760376
13398764527
13398771424
13398777771
13398784912
13398790711
13398798645
13398805481
13398812256
13398819031
13398824829
13398831604
13398838379
13398843811
13398849243
13398854370
13398859863
13398865601
13398871338
13398877625
13398883179
13398889771
13398899353
13398905029
13398910217
13398915894
13398921081
13398929932
13398934570
13398940246
13398946228
13398952148
13398956848
13398964050
13398969543
13398976440
13398981628
13398987854
13398994446
13399000671
13399006897
13399012817
13399018737
13399025940
13399031982
13399038269
13399043396
13399049316
13399056091
13399062011
13399066589
13399072204
13399081298
13399087402
13399092651
13399097534
13399104064
13399109558
13399114501
13399120666
13399127868
13399133300
13399139465
13399145873
13399151183
13399156066
13399161742
13399167419
13399174011
13399179626
13399187011
13399191100
13399198608
13399204284
13399210265
13399215392
13399222228
13399227904
13399233581
13399240172
13399246520
13399251159
13399257690
13399263976
13399270995
13399276549
13399281920
13399287780
13399293944
13399300353
13399306212
13399311705
13399318541
13399325377
13399331420
13399337645
13399343810
13399350280
13399356261
13399363280
13399368224
13399375060
13399381163
13399388976
13399395140
13399404051
13399409728
13399416075
13399423583
13399430358
13399435668
13399441893
13399448729
13399453734
13399459227
13399465331
13399470763
13399476439
13399480772
13399487059
13399492430
13399498228
13399503966
13399508055
13399515196
13399519774
13399526915
13399531920
13399539793
13399544737
13399550291
13399557677
13399563231
13399569151
13399575316
13399579893
13399586668
13399591856
13399597532
13399602964
13399608519
13399614622
13399620604
13399625608
13399631834
13399637632
13399644407
13399651854
13399658384
13399663938
13399670591
13399676268
13399681822
13399688352
13399694639
13399701109
13399707517
13399713133
13399718992
13399724790
13399730772
13399735349
13399742307
13399748411
13399754514
13399759336
13399765623
13399770322
13399778318
13399783262
13399789854
13399794370
13399801450
13399807371
13399813047
13399819700
13399825376
13399831663
13399837278
13399844297
13399848325
13399854307
13399859800
13399869565
13399874875
13399881406
13399887815
13399894285
13399901182
13399908689
13399912900
13399920041
13399927121
13399933225
13399939634
13399947141
13399951230
13399959653
13399965390
13399971067
13399978330
13399987912
13399993161
13400001401
13400005857
13400013791
13400020261
13400026914
13400033200
13400039182
13400044980
13400051022
13400054807
13400060788
13400066892
13400073239
13400078122
13400083737
13400089108
13400094357
13400099179
13400105160
13400110959
13400116696
13400121274
13400126584
13400131528
13400137387
13400143246
13400147824
13400152402
13400159176
13400163571
13400170712
13400176144
13400182797
13400187497
13400193295
13400197812
13400204159
13400210629
13400216000
13400223263
13400228329
13400233883
13400238278
13400246823
13400251644
13400258053
13400262753
13400269406
13400274472
13400280209
13400286923
13400292538
13400299496
13400303341
13400308712
13400315487
13400321957
13400329403
13400335201
13400340817
13400346371
13400351986
13400358456
13400363644
13400370113
13400376278
13400382198
13400388302
13400393917
13400398739
13400404842
13400410702
13400417355
13400423580
13400429500
13400435421
13400439876
13400444698
13400452755
13400457882
13400463436
13400469051
13400474361
13400482235
13400487911
13400493282
13400496883
13400505123
13400509700
13400516353
13400522701
13400529476
13400534786
13400540523
13400546566
13400552181
13400557003
13400563839
13400568477
13400573787
13400580013
13400587886
13400594051
13400598384
13400604793
13400610774
13400618160
13400627620
13400631526
13400640010
13400644893
13400654170
13400660274
13400664973
13400670406
13400676265
13400680476
13400686031
13400693355
13400698177
13400704890
13400709224
13400714778
13400719356
13400725764
13400731502
13400737483
13400742000
13400747249
13400753352
13400762202
13400768184
13400774714
13400780024
13400785762
13400795222
13400805537
13400812617
13400822505
13400830012
13400841243
13400849665
13400857173
13400865473
13400874812
13400885188
13400891902
13400900019
13400907954
13400915583
13400922846
13400930293
13400939631
13400947749
13400955195
13400961970
13400969721
13400977595
13400986201
13400995356
13401006098
13401015009
13401022822
13401031122
13401036616
13401045344
13401055353
13401065058
13401072687
13401081232
13401088862
13401096796
13401105585
13401111567
13401122797
13401130793
13401139093
13401146784
13401155695
13401162958
13401173090
13401179987
13401189508
13401196405
13401210871
13401218378
13401226740
13401236932
13401246881
13401255914
13401263788
13401274591
13401281366
13401292169
13401299615
13401308404
13401318353
13401327264
13401336603
13401345575
13401353815
13401365045
13401372613
13401382562
13401390558
13401397638
13401408319
13401415216
13401423578
13401431329
13401441949
13401449456
13401457269
13401466485
13401473992
13401483880
13401491754
13401499322
13401510797
13401521111
13401527337
13401535699
13401541619
13401552056
13401558953
13401567437
13401575921
13401587029
13401596490
13401603936
13401611748
13401619561
13401629510
13401637139
13401645867
13401654839
13401662285
13401670891
13401678643
13401687249
13401695549
13401703301
13401711235
13401718987
13401726860
13401735711
13401744011
13401753105
13401760002
13401770256
13401775688
13401784477
13401791802
13401800713
13401809929
13401818535
13401826164
13401832207
13401843010
13401851006
13401859001
13401867851
13401876762
13401883415
13401892143
13401899345
13401908317
13401916374
13401924370
13401932182
13401940605
13401948356
13401957756
13401965446
13401973808
13401981926
13401990043
13401999687
13402007621
13402014518
13402023429
13402030510
13402039848
13402046745
13402054496
13402063285
13402073600
13402078605
13402083915
13402089408
13402094535
13402100883
13402106864
13402112663
13402119010
13402123893
13402130851
13402135673
13402141654
13402145255
13402151359
13402156608
13402160087
13402164970
13402169181
13402175651
13402180656
13402185844
13402191642
13402195975
13402201408
13402206168
13402209830
13402215934
13402220634
13402225822
13402230155
13402236625
13402240226
13402246634
13402251090
13402256766
13402260856
13402266227
13402270987
13402276908
13402282584
13402286551
13402291434
13402297171
13402303641
13402309256
13402314444
13402319632
13402324576
13402328788
13402333792
13402338736
13402344168
13402350943
13402356314
13402362601
13402367545
13402372367
13402378165
13402383902
13402390250
13402395682
13402401358
13402405692
13402411063
13402415640
13402423026
13402428641
13402435416
13402442069
13402447806
13402453970
13402458731
13402463126
13402470328
13402475333
13402480582
13402486319
13402492911
13402497305
13402502432
13402508597
13402512991
13402519888
13402524283
13402532583
13402536795
13402543570
13402548453
13402554556
13402559622
13402566702
13402572744
13402578726
13402584036
13402589712
13402594412
13402600760
13402607657
13402612600
13402617300
13402625235
13402629446
13402637747
13402642141
13402650259
13402655203
13402662832
13402668630
13402675283
13402680044
13402686392
13402689810
13402695608
13402699941
13402706045
13402710867
13402715017
13402721426
13402726064
13402731191
13402736685
13402743581
13402748830
13402753896
13402760183
13402766958
13402771902
13402778066
13402783254
13402787893
13402793386
13402798574
13402803335
13402808828
13402815420
13402820425
13402824575
13402831655
13402836660
13402841543
13402844350
13402852956
13402857961
13402863698
13402869191
13402874990
13402877981
13402885488
13402889943
13402897329
13402902700
13402909597
13402913686
13402920461
13402925283
13402931142
13402936208
13402941274
13402950063
13402956044
13402961598
13402968434
13402973195
13402979360
13402985829
13402992177
13402997243
13403002614
13403011952
13403018849
13403026296
13403031789
13403039540
13403047353
13403052052
13403058156
13403064198
13403071584
13403077199
13403083852
13403087941
13403094716
13403098195
13403104420
13403110036
13403114308
13403120289
13403124928
13403129262
13403137318
13403143178
13403147877
13403154835
13403162343
13403171315
13403178395
13403188832
13403198780
13403206898
13403212635
13403219105
13403224293
13403231434
13403238331
13403243336
13403249256
13403256031
13403261952
13403267323
13403271717
13403277333
13403282887
13403288685
13403293202
13403297169
13403303578
13403307484
13403313404
13403318470
13403323109
13403329151
13403333057
13403337330
13403341785
13403346485
13403353260
13403358570
13403364002
13403369862
13403374989
13403380726
13403385426
13403390552
13403395008
13403399708
13403404224
13403409656
13403414234
13403418812
13403423694
13403430042
13403436024
13403442127
13403447986
13403454578
13403459278
13403463794
13403469837
13403475696
13403483570
13403489368
13403495533
13403501026
13403506519
13403510852
13403516651
13403523426
13403528675
13403536853
13403541614
13403548328
13403553821
13403558338
13403564136
13403568897
13403572254
13403579822
13403586231
13403591724
13403596485
13403602893
13403607654
13403612720
13403618762
13403625415
13403631580
13403637317
13403643665
13403649951
13403655872
13403661304
13403668140
13403676257
13403680469
13403687915
13403692920
13403700000
13403707263
13403714099
13403719470
13403724048
13403730517
13403736438
13403741687
13403747119
13403754870
13403759692
13403764575
13403773913
13403780261
13403788195
13403793628
13403798388
13403806018
13403811511
13403818774
13403824389
13403831469
13403839038
13403843859
13403848132
13403853747
13403858874
13403863696
13403868212
13403876452
13403882617
13403888537
13403892687
13403899767
13403903735
13403908740
13403914172
13403920397
13403926745
13403932665
13403937304
13403942797
13403947253
13403953112
13403960131
13403965563
13403970995
13403978625
13403984667
13403989001
13403995287
13403999255
13404003466
13404011400
13404017931
13404023241
13404026476
13404033678
13404038561
13404044115
13404050524
13404055956
13404060778
13404072924
13404088793
13404103075
13404113390
13404121752
13404130602
13404138414
13404145739
13404152819
13404160509
13404166490
13404171251
13404176683
13404182543
13404188036
13404192919
13404197984
13404202013
13404207323
13404212633
13404219408
13404224840
13404229967
13404235399
13404239610
13404244249
13404249071
13404255663
13404260545
13404266710
13404272142
13404278673
13404283861
13404287950
13404294481
13404299913
13404305833
13404310594
13404316759
13404321763
13404327745
13404333238
13404339708
13404345384
13404349779
13404356370
13404363511
13404370225
13404375474
13404381944
13404387498
13404393724
13404400315
13404406236
13404411363
13404418443
13404422898
13404429734
13404435472
13404439927
13404444688
13404450242
13404454087
13404459519
13404465074
13404471238
13404476792
13404482347
13404488145
13404493333
13404498826
13404504746
13404509812
13404513657
13404519944
13404524644
13404530198
13404534592
13404541428
13404546311
13404551743
13404557114
13404562669
13404568406
13404573350
13404577805
13404583115
13404589280
13404597947
13404602219
13404609116
13404614426
13404620225
13404626999
13404636643
13404643845
13404648606
13404655259
13404661912
13404667832
13404670640
13404677720
13404681687
13404687668
13404692978
13404699387
13404703110
13404709153
13404713242
13404718613
13404724839
13404731980
13404736252
13404742600
13404748947
13404755295
13404761582
13404764633
13404772141
13404777939
13404786057
13404791855
13404798569
13404806687
13404811569
13404818283
13404824143
13404831162
13404837631
13404844040
13404849289
13404855453
13404863571
13404869736
13404874618
13404880722
13404888595
13404893539
13404902084
13404907577
13404914413
13404922104
13404927658
13404935470
13404943039
13404948288
13404955490
13404960922
13404971969
13404975998
13404982467
13404986923
13404993515
13404997787
13405003402
13405009933
13405014328
13405020797
13405026596
13405031723
13405037887
13405044357
13405051010
13405058700
13405063095
13405067550
13405074691
13405081222
13405087325
13405092880
13405098983
13405104110
13405110214
13405115890
13405121383
13405127670
13405133224
13405137679
13405143478
13405149703
13405155868
13405161544
13405168197
13405173995
13405179977
13405185226
13405191268
13405197311
13405203109
13405206283
13405213302
13405218001
13405225020
13405229842
13405238387
13405243941
13405249923
13405255782
13405260177
13405264876
13405271773
13405277816
13405282698
13405287886
13405294905
13405299727
13405306624
13405311202
13405317977
13405324996
13405330855
13405336714
13405342757
13405348860
13405355452
13405361251
13405367598
13405375899
13405379927
13405386946
13405393050
13405397872
13405403365
13405409529
13405416487
13405424849
13405430098
13405434737
13405442610
13405449507
13405454573
13405461043
13405470747
13405478255
13405483260
13405488570
13405492354
13405500654
13405505965
13405513899
13405522871
13405530195
13405537214
13405543196
13405551314
13405557295
13405563276
13405569868
13405577131
13405581099
13405587507
13405593367
13405599104
13405605024
13405610884
13405617292
13405623396
13405627973
13405633589
13405639997
13405644514
13405651106
13405655622
13405664411
13405670271
13405675825
13405681379
13405687300
13405692793
13405698469
13405704206
13405710188
13405717329
13405723859
13405729597
13405733991
13405739973
13405746320
13405752302
13405758649
13405766645
13405771528
13405778181
13405783063
13405789472
13405796796
13405802534
13405811811
13405818403
13405823713
13405829694
13405836896
13405842634
13405848310
13405854474
13405862470
13405868757
13405874860
13405881208
13405886701
13405891706
13405899213
13405903730
13405911847
13405917096
13405923749
13405929792
13405935224
13405941022
13405946210
13405951398
13405958844
13405963910
13405970502
13405975385
13405982404
13405988263
13405992963
13405999555
13406006513
13406012677
13406019147
13406024152
13406029034
13406034161
13406040509
13406046552
13406053021
13406062360
13406068402
13406074322
13406080243
13406087872
13406093610
13406102093
13406107037
13406115094
13406120953
13406129010
13406135846
13406142682
13406148175
13406157940
13406164898
13406171124
13406176739
13406183453
13406188641
13406195538
13406200665
13406207257
13406213360
13406220318
13406225567
13406232220
13406237835
13406242962
13406249554
13406257733
13406262310
13406269085
13406279827
13406285687
13406291363
13406297833
13406302532
13406307110
13406314495
13406321270
13406326946
13406331524
13406337566
13406344036
13406347576
13406355328
13406361858
13406368267
13406373821
13406378338
13406384197
13406390118
13406397808
13406402874
13406407513
13406414043
13406420086
13406426250
13406432171
13406439007
13406446087
13406454937
13406462200
13406467632
13406473186
13406478679
13406484234
13406488567
13406495830
13406502849
13406508953
13406514202
13406520061
13406526287
13406531780
13406536235
13406542644
13406549846
13406555705
13406560893
13406566631
13406572795
13406578655
13406583232
13406591167
13406597087
13406602763
13406609294
13406614604
13406620219
13406626689
13406630840
13406638530
13406646953
13406653789
13406661235
13406670146
13406678508
13406684672
13406690898
13406699321
13406704509
13406709941
13406714824
13406719951
13406726481
13406731730
13406739726
13406746440
13406750285
13406757426
13406762675
13406769328
13406774821
13406780009
13406784953
13406790263
13406795146
13406800151
13406803935
13406809123
13406814799
13406821513
13406826396
13406830180
13406835612
13406840007
13406845866
13406850260
13406855754
13406861491
13406865336
13406870768
13406875773
13406880839
13406886393
13406892130
13406898112
13406904643
13406909159
13406915446
13406920878
13406927226
13406932291
13406939005
13406944559
13406948771
13406953837
13406959879
13406966349
13406970866
13406978129
13406985697
13406991740
13406997477
13407003153
13407008707
13407014322
13407017313
13407026163
13407032511
13407038248
13407043863
13407049601
13407055826
13407061686
13407067728
13407072306
13407079874
13407086100
13407089518
13407097086
13407103800
13407109293
13407114969
13407120890
13407126322
13407132547
13407136942
13407143534
13407149820
13407155496
13407160257
13407166239
13407172159
13407179300
13407183145
13407189859
13407196024
13407202554
13407207132
13407213663
13407220682
13407229105
13407234293
13407239542
13407246622
13407251077
13407259195
13407266031
13407273355
13407279459
13407286478
13407292642
13407298868
13407304849
13407313028
13407321634
13407328042
13407339883
13407345010
13407351297
13407356607
13407362344
13407369546
13407374612
13407380166
13407386148
13407390969
13407396218
13407401712
13407407388
13407415506
13407419595
13407427224
13407431619
13407439309
13407444924
13407450051
13407455117
13407460549
13407465249
13407471475
13407474404
13407483437
13407489968
13407494485
13407498574
13407505532
13407511636
13407516030
13407520730
13407525613
13407530801
13407536050
13407541238
13407547036
13407552773
13407559060
13407564370
13407569802
13407574013
13407579995
13407582925
13407588845
13407597085
13407603249
13407608620
13407613625
13407617898
13407621804
13407628457
13407633767
13407642922
13407648720
13407653542
13407657998
13407665139
13407669350
13407675576
13407680458
13407688332
13407692910
13407698342
13407704506
13407709511
13407714821
13407720131
13407725075
13407732277
13407737404
13407743019
13407748512
13407754372
13407760048
13407764198
13407768532
13407775795
13407782082
13407786598
13407791115
13407798134
13407802528
13407806862
13407813515
13407817482
13407825172
13407831215
13407835365
13407840004
13407846901
13407853432
13407859535
13407864723
13407870582
13407875282
13407882728
13407887306
13407894508
13407900062
13407906532
13407912025
13407917885
13407923927
13407929359
13407934913
13407940773
13407945900
13407950905
13407954933
13407961647
13407966896
13407972694
13407978614
13407984535
13407990150
13407995643
13408000831
13408007789
13408014808
13408020362
13408025001
13408030433
13408033180
13408041358
13408046791
13408053077
13408058753
13408064857
13408069801
13408076637
13408080482
13408086891
13408090980
13408096473
13408103553
13408109535
13408115516
13408122108
13408126868
13408134254
13408141273
13408148048
13408154151
13408160987
13408167091
13408172828
13408181190
13408187293
13408194190
13408200965
13408208594
13408214637
13408221839
13408228797
13408231910
13408240333
13408247168
13408254432
13408260718
13408267066
13408272010
13408278479
13408283301
13408289527
13408295020
13408301795
13408306555
13408313147
13408318457
13408324866
13408331031
13408337256
13408343909
13408352271
13408357825
13408364050
13408370886
13408376563
13408385230
13408389685
13408400366
13408408057
13408417334
13408425085
13408432410
13408441687
13408451636
13408460547
13408468787
13408476233
13408484473
13408493750
13408504492
13408513220
13408525000
13408531164
13408544897
13408553503
13408561499
13408573523
13408580359
13408590673
13408600927
13408609716
13408613867
13408621496
13408630834
13408636022
13408646459
13408651281
13408659338
13408666601
13408674413
13408681066
13408688940
13408695409
13408702123
13408712621
13408718786
13408725072
13408731847
13408738439
13408744787
13408750463
13408755895
13408763097
13408768774
13408774999
13408780920
13408786962
13408792333
13408797887
13408803869
13408810033
13408815893
13408822179
13408827978
13408833715
13408839452
13408845311
13408851354
13408857396
13408863378
13408869359
13408875768
13408881566
13408887426
13408893102
13408898107
13408904027
13408911046
13408915746
13408922521
13408928136
13408932958
13408938634
13408943151
13408950292
13408956456
13408963353
13408969274
13408975804
13408980992
13408988011
13408995946
13409006505
13409016820
13409026646
13409032750
13409039708
13409045750
13409051732
13409058995
13409065648
13409071873
13409078587
13409083714
13409088902
13409094395
13409100194
13409106785
13409111607
13409118199
13409123326
13409129551
13409133824
13409140355
13409144444
13409151524
13409157505
13409161961
13409170445
13409174656
13409181492
13409188145
13409196263
13409200962
13409208836
13409215123
13409223301
13409229649
13409236180
13409241673
13409249119
13409252903
13409259190
13409263523
13409270115
13409275364
13409282322
13409286472
13409293980
13409298863
13409304112
13409309666
13409316929
13409321873
13409327610
13409332676
13409340000
13409344822
13409350437
13409356907
13409362217
13409368809
13409374180
13409379185
13409386265
13409392307
13409397922
13409403599
13409409153
13409414707
13409420688
13409427097
13409433201
13409436496
13409443577
13409448337
13409455600
13409462070
13409467807
13409472751
13409478794
13409483738
13409490512
13409496677
13409502719
13409513828
13409519443
13409522312
13409529636
13409533969
13409541477
13409546482
13409554111
13409559787
13409565097
13409570041
13409575900
13409580417
13409586887
13409591403
13409598544
13409603793
13409611789
13409616611
13409624545
13409629794
13409637057
13409641513
13409648166
13409652743
13409659640
13409664157
13409671237
13409677829
13409684787
13409689487
13409695895
13409703097
13409708713
13409713290
13409719516
13409725070
13409731845
13409736300
13409742892
13409747348
13409753573
13409760409
13409766696
13409773166
13409779818
13409786593
13409792575
13409797946
13409804049
13409811557
13409816745
13409825289
13409830416
13409837252
13409841647
13409847933
13409852145
13409858126
13409863070
13409869418
