13088183596
13088189943
13088194643
13088199526
13088205629
13088211306
13088216310
13088222231
13088228884
13088236513
13088242800
13088249452
13088253603
13088262087
13088269960
13088276552
13088282167
13088289980
13088297182
13088303285
13088308656
13088315675
13088323671
13088331239
13088338808
13088345583
13088353761
13088360231
13088367616
13088373964
13088380434
13088387575
13088393861
13088401247
13088408266
13088416566
13088423402
13088431032
13088438295
13088444337
13088452699
13088459169
13088465944
13088474611
13088482911
13088490907
13088498048
13088505922
13088513185
13088519410
13088524171
13088531373
13088537477
13088541749
13088550355
13088557069
13088562928
13088568971
13088572877
13088581300
13088586488
13088593263
13088599488
13088605714
13088611451
13088616944
13088622559
13088628724
13088634217
13088642152
13088647096
13088652406
13088657105
13088661378
13088666505
13088669984
13088675416
13088679993
13088683778
13088688172
13088692628
13088697449
13088702027
13088707581
13088711548
13088717469
13088722474
13088728577
13088733643
13088738831
13088744507
13088749939
13088754883
13088759949
13088764466
13088769776
13088775147
13088781617
13088786377
13088791504
13088797059
13088801636
13088806336
13088809449
13088815857
13088821656
13088827515
13088831909
13088836792
13088843506
13088847107
13088852844
13088857849
13088862732
13088866883
13088873108
13088879151
13088885864
13088892456
13088897766
13088905579
13088913147
13088919312
13088927063
13088934448
13088940369
13088950134
13088956238
13088962402
13088968445
13088974792
13088981445
13088986267
13088995300
13089000610
13089008056
13089011291
13089021240
13089027527
13089033386
13089039551
13089047058
13089052673
13089057861
13089061279
13089067016
13089070129
13089074768
13089079101
13089084411
13089090515
13089095398
13089099914
13089104431
13089109069
13089113220
13089117492
13089123474
13089127563
13089132690
13089138244
13089140441
13089147277
13089151428
13089157531
13089161437
13089167419
13089170349
13089174682
13089179016
13089183105
13089186218
13089192077
13089196838
13089202819
13089208190
13089211974
13089216979
13089221801
13089226074
13089230102
13089236083
13089244994
13089252441
13089258849
13089264342
13089268310
13089275390
13089281860
13089290649
13089296325
13089301818
13089309203
13089316161
13089321288
13089327758
13089334472
13089339782
13089345153
13089352050
13089359191
13089364196
13089370421
13089376037
13089382567
13089388976
13089394835
13089400084
13089405333
13089412413
13089417479
13089424498
13089429747
13089438170
13089444152
13089449401
13089455870
13089460997
13089465026
13089470214
13089474852
13089479125
13089482482
13089486754
13089493590
13089498229
13089503539
13089508421
13089512999
13089519103
13089523192
13089528014
13089533507
13089539977
13089543700
13089548949
13089553465
13089558348
13089563780
13089569762
13089575255
13089580748
13089586424
13089591612
13089596434
13089602782
13089608641
13089612242
13089626890
13089633543
13089638792
13089643858
13089648680
13089651243
13089659605
13089665892
13089671141
13089674559
13089683531
13089688353
13089694151
13089698301
13089703611
13089708006
13089715208
13089722959
13089730223
13089737364
13089744688
13089750669
13089760435
13089767881
13089775877
13089785581
13089792783
13089799864
13089807127
13089814939
13089822752
13089831602
13089840513
13089850401
13089858457
13089863584
13089873472
13089883665
13089892087
13089900938
13089909238
13089917661
13089925474
13089931272
13089937681
13089943845
13089948179
13089953550
13089960996
13089966184
13089971006
13089975827
13089979978
13089985776
13089991819
13089997129
13090003171
13090008054
13090012204
13090018308
13090024655
13090030515
13090034726
13090040952
13090047177
13090051633
13090057370
13090062314
13090068479
13090074216
13090078610
13090083859
13090090817
13090095639
13090102292
13090107541
13090112485
13090117978
13090122922
13090127560
13090133664
13090139462
13090146481
13090150815
13090156979
13090161435
13090167905
13090172726
13090178769
13090185239
13090190365
13090194699
13090200192
13090207638
13090214779
13090221982
13090230832
13090239377
13090248227
13090256283
13090263119
13090272030
13090281552
13090290280
13090297543
13090306698
13090314083
13090324276
13090331784
13090338131
13090348324
13090353024
13090367062
13090377377
13090390499
13090399227
13090411678
13090419796
13090432797
13090443417
13090452938
13090461544
13090472042
13090480892
13090488399
13090496090
13090502682
13090510311
13090518307
13090526668
13090538448
13090546810
13090557857
13090569271
13090577694
13090585872
13090594112
13090601741
13090611812
13090619991
13090628475
13090637081
13090645687
13090654659
13090663814
13090672725
13090681148
13090689449
13090698604
13090707637
13090715816
13090724849
13090728084
13090739314
13090748408
13090754573
13090762935
13090771602
13090779475
13090788814
13090796016
13090803523
13090810664
13090819270
13090826167
13090834285
13090844111
13090853755
13090863215
13090873469
13090883723
13090895015
13090904048
13090914607
13090924800
13090934443
13090947261
13090956172
13090966609
13090977229
13090986262
13090996577
13091004939
13091019038
13091023615
13091037348
13091046503
13091056391
13091066218
13091075739
13091084589
13091091791
13091101374
13091107538
13091117731
13091125971
13091133906
13091138788
13091151850
13091160090
13091167536
13091174189
13091184748
13091194757
13091200861
13091207880
13091215082
13091225214
13091234430
13091242121
13091250177
13091257440
13091264215
13091273615
13091282648
13091290888
13091298639
13091307428
13091315546
13091323541
13091332330
13091339044
13091348016
13091355402
13091366571
13091375787
13091384454
13091393609
13091401483
13091406244
13091419366
13091427301
13091435907
13091444391
13091452447
13091461297
13091467279
13091478997
13091486444
13091495660
13091504449
13091512994
13091521295
13091529046
13091536431
13091544244
13091553948
13091560052
13091570550
13091576531
13091585992
13091594598
13091603448
13091609368
13091618401
13091627129
13091634942
13091643792
13091651665
13091660210
13091666375
13091675286
13091683770
13091692742
13091702202
13091709649
13091716179
13091728142
13091737359
13091744988
13091754387
13091764153
13091771599
13091781548
13091788201
13091797539
13091805596
13091814629
13091823113
13091828423
13091834954
13091837273
13091844475
13091849846
13091853996
13091856255
13091863457
13091867363
13091872673
13091876885
13091882195
13091886284
13091892937
13091898003
13091902092
13091907402
13091912285
13091916496
13091921684
13091925529
13091932121
13091937065
13091942192
13091947502
13091952690
13091957390
13091962212
13091968071
13091973198
13091978752
13091983513
13091987846
13091992668
13091996879
13092002128
13092008293
13092013908
13092019523
13092027763
13092036674
13092043022
13092051994
13092060478
13092065605
13092074455
13092081352
13092091667
13092097587
13092106926
13092116691
13092123771
13092131767
13092140068
13092147636
13092155754
13092163566
13092171440
13092178581
13092184318
13092191581
13092199210
13092207206
13092213126
13092221671
13092228385
13092233085
13092238395
13092242545
13092249259
13092253410
13092259208
13092264091
13092268790
13092274711
13092279838
13092286857
13092291923
13092296927
13092301505
13092306937
13092311698
13092316092
13092323417
13092328055
13092334525
13092340506
13092347098
13092351981
13092358085
13092363700
13092369498
13092374137
13092380362
13092385672
13092390250
13092397269
13092402396
13092408744
13092413687
13092418570
13092423331
13092431204
13092437613
13092443350
13092446097
13092454520
13092458975
13092466300
13092470999
13092478507
13092484488
13092489432
13092495963
13092501273
13092507254
13092512747
13092519522
13092528128
13092534537
13092544424
13092550589
13092560416
13092566702
13092577078
13092583548
13092592093
13092600577
13092608938
13092617117
13092623099
13092633108
13092641714
13092648611
13092658804
13092666006
13092674917
13092683462
13092691397
13092697866
13092706594
13092715628
13092721548
13092730825
13092735708
13092743215
13092749929
13092755789
13092761282
13092767385
13092773550
13092780508
13092785146
13092791738
13092795767
13092801687
13092805837
13092811636
13092816457
13092823293
13092827993
13092834158
13092838491
13092844778
13092849416
13092855764
13092861562
13092867727
13092872426
13092878713
13092884206
13092890127
13092895193
13092900442
13092905813
13092912954
13092918813
13092925649
13092930715
13092937185
13092941091
13092947439
13092952626
13092957937
13092964101
13092971364
13092974233
13092982228
13092988027
13092993337
13092997792
13093003713
13093008474
13093015187
13093021474
13093032582
13093038991
13093046987
13093055654
13093064137
13093073476
13093082204
13093088490
13093099965
13093106313
13093115285
13093121877
13093130971
13093139638
13093148610
13093155324
13093165578
13093171986
13093179982
13093188161
13093196705
13093205556
13093212514
13093221119
13093228566
13093233082
13093239369
13093245289
13093250111
13093256154
13093259877
13093267689
13093274342
13093280018
13093283924
13093290455
13093295521
13093302601
13093307362
13093313893
13093318226
13093324696
13093329884
13093334950
13093340687
13093348133
13093353138
13093361439
13093368153
13093373524
13093381153
13093388783
13093393055
13093399891
13093406605
13093411976
13093419117
13093425831
13093431934
13093437733
13093441639
13093448902
13093454456
13093459888
13093465320
13093469410
13093474781
13093480091
13093486255
13093491993
13093497852
13093503223
13093509327
13093513355
13093520862
13093526722
13093534778
13093542835
13093550464
13093556263
13093565784
13093571521
13093578846
13093586475
13093593921
13093602283
13093610340
13093618579
13093626941
13093633167
13093641467
13093649951
13093658069
13093666675
13093675403
13093683948
13093690601
13093699023
13093706592
13093714832
13093720691
13093726794
13093731982
13093738635
13093742358
13093749194
13093753955
13093760608
13093766833
13093773120
13093777453
13093784289
13093789966
13093795032
13093800647
13093805957
13093811328
13093818164
13093823169
13093829883
13093834643
13093841174
13093846179
13093851245
13093857837
13093863269
13093869250
13093874621
13093880175
13093885180
13093891406
13093896960
13093901843
13093910388
13093914538
13093922656
13093926989
13093933947
13093938464
13093945056
13093950854
13093957385
13093962939
13093968981
13093976122
13093981005
13093987109
13093993090
13093998034
13094005480
13094011828
13094022570
13094029772
13094038195
13094046618
13094054308
13094064196
13094073778
13094080675
13094089525
13094098681
13094107531
13094114123
13094123766
13094130175
13094137011
13094148424
13094156725
13094163073
13094170153
13094179308
13094185595
13094194994
13094201769
13094211534
13094218187
13094227953
13094234178
13094238695
13094244249
13094250658
13094255419
13094262010
13094266466
13094272997
13094278429
13094283617
13094290147
13094295458
13094298204
13094308031
13094313829
13094318956
13094323473
13094330370
13094333238
13094341722
13094344591
13094351732
13094356920
13094363695
13094369737
13094375596
13094380296
13094386888
13094392747
13094398851
13094404588
13094410386
13094416246
13094421739
13094428392
13094434312
13094439988
13094445726
13094452317
13094457505
13094462388
13094469651
13094475755
13094481004
13094486985
13094492356
13094499009
13094505540
13094509996
13094517320
13094522630
13094531114
13094539536
13094548875
13094555894
13094565537
13094572434
13094580735
13094590989
13094597215
13094607346
13094615464
13094624131
13094629929
13094639207
13094646287
13094655625
13094661729
13094671738
13094680100
13094687852
13094695847
13094705185
13094709519
13094722092
13094726609
13094738266
13094741684
13094751450
13094754746
13094763779
13094768723
13094775437
13094780503
13094788803
13094793259
13094799118
13094804550
13094811264
13094815415
13094821152
13094825363
13094831406
13094836655
13094842209
13094846481
13094852341
13094856491
13094863449
13094867905
13094874374
13094879440
13094885605
13094890732
13094895248
13094901962
13094907455
13094912399
13094917709
13094924118
13094929733
13094935409
13094940170
13094945541
13094950119
13094956589
13094962448
13094967758
13094973556
13094977829
13094983993
13094989792
13094994369
13095001266
13095006332
13095012924
13095018722
13095023178
13095030929
13095037033
13095044418
13095050705
13095060043
13095066269
13095076339
13095082809
13095091110
13095101120
13095110031
13095118331
13095125472
13095134200
13095141525
13095150009
13095157333
13095166061
13095170516
13095181197
13095190353
13095197921
13095202193
13095214339
13095218795
13095227645
13095236007
13095242721
13095247359
13095252975
13095259017
13095264937
13095269393
13095274337
13095282271
13095287032
13095293502
13095298385
13095303512
13095309920
13095315047
13095319747
13095325179
13095330367
13095335860
13095341781
13095347091
13095353438
13095359786
13095365340
13095371688
13095378279
13095383895
13095390181
13095398116
13095402693
13095409774
13095415450
13095422164
13095428084
13095435530
13095440596
13095446456
13095451094
13095456831
13095461775
13095467146
13095475691
13095482832
13095488631
13095495711
13095498946
13095506941
13095511946
13095518660
13095525069
13095530501
13095534651
13095543806
13095553023
13095558516
13095568342
13095575484
13095583113
13095589338
13095596907
13095604231
13095613936
13095621199
13095630598
13095639021
13095645674
13095653364
13095660627
13095668196
13095673506
13095681684
13095689314
13095696150
13095701216
13095708357
13095716352
13095722273
13095727033
13095733991
13095739118
13095743696
13095748518
13095753889
13095759931
13095764997
13095769026
13095776228
13095780805
13095787275
13095793378
13095799360
13095806013
13095812116
13095819379
13095826215
13095832014
13095839826
13095844770
13095850629
13095855451
13095860334
13095864484
13095872541
13095877241
13095883527
13095888471
13095895246
13095899701
13095904523
13095907331
13095915815
13095923078
13095930097
13095934491
13095941571
13095944379
13095950788
13095954938
13095960553
13095968671
13095974897
13095979291
13095986310
13095992536
13096001691
13096009259
13096016095
13096025861
13096035260
13096045331
13096051495
13096062116
13096069379
13096076581
13096082623
13096090375
13096096478
13096103375
13096110516
13096117963
13096123822
13096130963
13096136944
13096144025
13096150433
13096158307
13096165143
13096172406
13096178204
13096185772
13096191571
13096196698
13096203412
13096208294
13096212994
13096219891
13096224164
13096231610
13096234967
13096243084
13096249798
13096257000
13096261883
13096269146
13096275311
13096280865
13096288067
13096294476
13096299969
13096304852
13096311321
13096317547
13096323101
13096329144
13096335308
13096338909
13096346722
13096350811
13096357769
13096363751
13096369793
13096375408
13096381268
13096387798
13096392193
13096399151
13096403973
13096409771
13096414898
13096421123
13096426678
13096433819
13096438030
13096444744
13096451397
13096457073
13096464336
13096469036
13096474407
13096480755
13096489422
13096496929
13096507000
13096514568
13096519024
13096531597
13096536174
13096546123
13096552288
13096561809
13096569561
13096579387
13096583660
13096593547
13096599773
13096608684
13096615032
13096625896
13096636638
13096646037
13096654338
13096665630
13096670574
13096681255
13096690227
13096695964
13096702495
13096709026
13096716960
13096721355
13096727519
13096733073
13096739238
13096744975
13096751079
13096756206
13096760478
13096765849
13096770427
13096777446
13096784648
13096789836
13096797465
13096803264
13096808696
13096815165
13096821940
13096826640
13096832499
13096838176
13096843974
13096849101
13096855876
13096861186
13096866496
13096872538
13096878398
13096881816
13096888529
13096894084
13096900675
13096905436
13096911967
13096917582
13096925334
13096930094
13096935404
13096941569
13096947367
13096953043
13096960063
13096964823
13096970744
13096975993
13096981913
13096987956
13096993693
13097001444
13097005839
13097016093
13097024882
13097032328
13097039042
13097047404
13097057352
13097065470
13097071879
13097079630
13097088541
13097095072
13097103556
13097111124
13097118754
13097126871
13097136210
13097143045
13097151407
13097160074
13097168619
13097175455
13097186441
13097194437
13097203531
13097209635
13097220072
13097224954
13097231241
13097236490
13097242960
13097250101
13097256937
13097261270
13097267801
13097273599
13097279947
13097284464
13097291849
13097296304
13097302164
13097306680
13097312295
13097320169
13097324869
13097331705
13097336771
13097344766
13097348855
13097355203
13097361917
13097367227
13097373941
13097380227
13097386331
13097391763
13097398599
13097406045
13097410318
13097417154
13097422220
13097428201
13097431131
13097438516
13097444436
13097449319
13097454873
13097459573
13097462503
13097469400
13097473977
13097482034
13097488504
13097493325
13097496011
13097504739
13097507730
13097516824
13097520669
13097531472
13097539407
13097546487
13097552407
13097561318
13097567239
13097576089
13097582497
13097590920
13097599831
13097606911
13097616067
13097623269
13097631814
13097640359
13097646706
13097655678
13097662270
13097669655
13097679421
13097683755
13097695412
13097699807
13097709633
13097716164
13097725625
13097733742
13097741066
13097746682
13097751931
13097757241
13097763771
13097767006
13097775246
13097781655
13097787148
13097790505
13097799599
13097804238
13097810768
13097816933
13097820290
13097827614
13097834084
13097839577
13097846352
13097850929
13097856667
13097861427
13097866066
13097873756
13097880104
13097884621
13097891212
13097896828
13097903114
13097909035
13097913917
13097920204
13097925758
13097932350
13097937416
13097942665
13097949074
13097954567
13097960304
13097966713
13097976295
13097979469
13097989418
13097994728
13098001137
13098006447
13098012001
13098019325
13098024940
13098032570
13098040199
13098046119
13098052589
13098061683
13098068885
13098076698
13098085060
13098091041
13098100013
13098108253
13098115150
13098122169
13098131996
13098140052
13098147743
13098153785
13098162757
13098168006
13098176978
13098184791
13098191993
13098200294
13098206885
13098215125
13098221290
13098227698
13098232642
13098238074
13098245277
13098251990
13098256202
13098261329
13098268592
13098273780
13098280127
13098284522
13098291480
13098296546
13098303321
13098306739
13098313575
13098318824
13098326453
13098331336
13098338050
13098344031
13098350806
13098357032
13098360755
13098367591
13098373267
13098378760
13098385291
13098390235
13098396216
13098402136
13098407569
13098413733
13098419470
13098425757
13098430396
13098436499
13098441992
13098448706
13098454993
13098460852
13098465369
13098470679
13098476782
13098482703
13098490393
13098496558
13098501318
13098506567
13098512793
13098520300
13098525610
13098529394
13098539038
13098542456
13098549231
13098553930
13098561804
13098567297
13098572607
13098577124
13098582678
13098592016
13098598486
13098605505
13098610998
13098616919
13098621862
13098629858
13098634436
13098642492
13098648046
13098654150
13098658361
13098667211
13098673254
13098678869
13098683630
13098690527
13098694250
13098702856
13098706213
13098714697
13098717871
13098724462
13098730322
13098735510
13098740759
13098745397
13098749731
13098755407
13098759557
13098764806
13098770910
13098777074
13098784216
13098789281
13098795507
13098801366
13098806127
13098812841
13098819555
13098824316
13098830541
13098835668
13098841649
13098847875
13098853612
13098859105
13098865758
13098870336
13098877477
13098882604
13098888891
13098892125
13098900182
13098904821
13098911535
13098917089
13098924108
13098931127
13098937047
13098943151
13098948522
13098953710
13098960973
13098965734
13098972753
13098977635
13098983007
13098990026
13098994847
13099000157
13099005162
13099012914
13099018590
13099024083
13099031163
13099036473
13099040868
13099046178
13099052281
13099057835
13099064610
13099070470
13099076634
13099083104
13099087621
13099093968
13099100011
13099105260
13099110142
13099116124
13099122838
13099128148
13099134495
13099140721
13099147008
13099153111
13099159215
13099164708
13099168309
13099175145
13099179905
13099186986
13099192112
13099200901
13099206089
13099213597
13099220005
13099226719
13099231663
13099239842
13099245762
13099250584
13099257359
13099261998
13099272068
13099281834
13099286167
13099293492
13099299107
13099304112
13099309666
13099313816
13099320347
13099325291
13099330784
13099335728
13099340061
13099346409
13099352879
13099358189
13099364719
13099369419
13099374851
13099378941
13099385593
13099391697
13099397617
13099401707
13099408420
13099413486
13099418674
13099421665
13099430576
13099435947
13099442234
13099445530
13099452183
13099457126
13099462864
13099469761
13099476169
13099480991
13099485447
13099492588
13099498935
13099504673
13099510105
13099515293
13099521701
13099528171
13099533969
13099539402
13099544468
13099550327
13099555942
13099564060
13099567356
13099574436
13099579563
13099586093
13099592502
13099597873
13099603305
13099608493
13099616428
13099620517
13099627780
13099632602
13099638706
13099644687
13099652255
13099656772
13099664462
13099669833
13099676242
13099682773
13099688754
13099693820
13099701022
13099708285
13099713962
13099720798
13099727573
13099732883
13099737826
13099745883
13099751559
13099758029
13099765109
13099771152
13099774569
13099783359
13099787082
13099796115
13099803561
13099811557
13099816378
13099823520
13099828891
13099835177
13099842257
13099846713
13099854220
13099861361
13099867831
13099874606
13099878268
13099887301
13099892245
13099900607
13099905490
13099912814
13099918185
13099923800
13099929476
13099934176
13099939547
13099944125
13099950045
13099956027
13099960848
13099965670
13099972018
13099976107
13099982577
13099986239
13099993502
13099998568
13100003634
13100011263
13100016451
13100022494
13100028109
13100033114
13100037813
13100042025
13100049166
13100053744
13100061922
13100066805
13100072420
13100078585
13100084627
13100089815
13100094881
13100101534
13100107393
13100112825
13100118197
13100124666
13100131685
13100136995
13100140047
13100151461
13100155489
13100163057
13100167757
13100174593
13100179476
13100186861
13100192110
13100197237
13100203340
13100209932
13100215975
13100220796
13100225801
13100230806
13100238496
13100244051
13100251375
13100255769
13100261079
13100267305
13100273225
13100279085
13100284334
13100289217
13100295320
13100300630
13100307100
13100313081
13100317171
13100324800
13100330293
13100334871
13100341463
13100346956
13100353181
13100359712
13100364107
13100371614
13100374971
13100382783
13100386445
13100394868
13100401948
13100407686
13100413057
13100418611
13100424592
13100430268
13100435762
13100442598
13100450105
13100454316
13100461946
13100471406
13100474824
13100482270
13100489045
13100494905
13100504304
13100509797
13100514741
13100520966
13100524995
13100531587
13100536714
13100542573
13100548371
13100554719
13100558930
13100564973
13100569306
13100574433
13100579194
13100585603
13100590913
13100597565
13100601838
13100608002
13100612031
13100618317
13100622712
13100628083
13100633393
13100640229
13100643281
13100649079
13100653657
13100660004
13100664399
13100673005
13100679657
13100684906
13100691864
13100696442
13100702485
13100707673
13100714203
13100718781
13100724640
13100731964
13100738129
13100743622
13100748993
13100754792
13100760651
13100763764
13100773468
13100778595
13100785492
13100790436
13100797333
13100802033
13100807465
13100814179
13100820282
13100827606
13100833222
13100837738
13100842255
13100849640
13100854218
13100861847
13100867340
13100872772
13100878632
13100884308
13100887360
13100895050
13100899872
13100906586
13100911774
13100916839
13100923675
13100929413
13100934845
13100941009
13100945526
13100952240
13100957794
13100964020
13100968780
13100974701
13100980560
13100986908
13100992157
13100997711
13101003509
13101008880
13101015777
13101021698
13101027679
13101032928
13101039764
13101045135
13101052032
13101057769
13101065460
13101071502
13101077423
13101082611
13101089630
13101095855
13101103057
13101109344
13101115630
13101121612
13101124786
13101131316
13101136627
13101141937
13101147247
13101152129
13101156524
13101164642
13101171050
13101177459
13101184783
13101192351
13101198638
13101204803
13101210784
13101216277
13101221831
13101226287
13101232085
13101237273
13101242644
13101247893
13101252349
13101259612
13101265105
13101270232
13101275786
13101280974
13101286162
13101291350
13101297393
13101301848
13101307097
13101311919
13101316558
13101320647
13101326445
13101330657
13101337310
13101347991
13101363921
13101370024
13101378325
13101386504
13101393523
13101401763
13101407988
13101415312
13101422698
13101427763
13101432463
13101436858
13101441863
13101447783
13101453032
13101457243
13101462187
13101466399
13101470976
13101475249
13101482756
13101487273
13101493254
13101498381
13101503508
13101507963
13101513212
13101518584
13101524016
13101529204
13101533171
13101538664
13101543669
13101548979
13101552092
13101557890
13101564665
13101570646
13101576384
13101581877
13101586699
13101592802
13101598417
13101606291
13101611052
13101618315
13101623991
13101630400
13101635466
13101642546
13101647184
13101654020
13101659880
13101665068
13101669462
13101674772
13101678739
13101683866
13101690641
13101697782
13101704496
13101708097
13101716398
13101721708
13101726835
13101730619
13101737211
13101741728
13101745695
13101751249
13101755521
13101760831
13101764799
13101772367
13101776273
13101782377
13101786710
13101793668
13101798673
13101803922
13101812772
13101818143
13101823148
13101827665
13101833646
13101838407
13101843900
13101848905
13101854703
13101860563
13101864408
13101870206
13101875577
13101883451
13101887296
13101895170
13101901273
13101907987
13101912503
13101917997
13101924039
13101928617
13101933438
13101940519
13101945523
13101951871
13101957120
13101963773
13101968167
13101972989
13101977811
13101982633
13101986783
13101991544
13101996182
13102002347
13102007413
13102013089
13102018521
13102022427
13102027982
13102032254
13102036710
13102043424
13102049222
13102053494
13102060025
13102065274
13102069669
13102076688
13102082486
13102087064
13102091702
13102097501
13102102566
13102108304
13102114773
13102121121
13102127469
13102134732
13102142239
13102147671
13102153897
13102160550
13102165310
13102171719
13102177395
13102182400
13102189785
13102192166
13102199856
13102203885
13102208645
13102214505
13102219571
13102225247
13102230191
13102234585
13102239590
13102243435
13102247341
13102251675
13102257901
13102262234
13102268276
13102273953
13102278530
13102285488
13102290615
13102297268
13102301479
13102309170
13102316006
13102321560
13102326809
13102331692
13102339626
13102344692
13102350491
13102356838
13102361172
13102366299
13102370937
13102378078
13102383327
13102388943
13102394558
13102399013
13102405178
13102410671
13102414883
13102419887
13102427273
13102431057
13102438869
13102446377
13102451809
13102457119
13102462063
13102468593
13102473232
13102481960
13102488063
13102494045
13102499416
13102507106
13102510341
13102517055
13102521999
13102530300
13102535060
13102540798
13102546108
13102550991
13102557399
13102561794
13102569606
13102574672
13102580104
13102585842
13102593715
13102599391
13102604762
13102608974
13102616542
13102621913
13102627773
13102631435
13102637965
13102642726
13102650661
13102655238
13102662318
13102668178
13102673671
13102679896
13102684779
13102692165
13102698695
13102704494
13102713344
13102718349
13102725368
13102734584
13102739955
13102747218
13102752528
13102758204
13102763820
13102769191
13102776088
13102781581
13102787867
13102792689
13102796901
13102802760
13102807338
13102812037
13102819728
13102824549
13102831935
13102836634
13102842921
13102847499
13102852442
13102855372
13102864833
13102870204
13102875147
13102881068
13102887354
13102893336
13102899195
13102903712
13102909815
13102916773
13102921534
13102927515
13102932093
13102938990
13102945155
13102950343
13102954310
13102962061
13102965113
13102974512
13102977747
13102984705
13102987757
13102994288
13102999110
13103006556
13103011866
13103018763
13103025782
13103031336
13103035792
13103042322
13103048121
13103053248
13103059534
13103066126
13103071314
13103074244
13103084925
13103090357
13103095484
13103098658
13103105310
13103110620
13103117334
13103124842
13103129358
13103135401
13103139429
13103147241
13103153467
13103160120
13103166529
13103171045
13103178003
13103182703
13103187280
13103194422
13103199121
13103207544
13103212427
13103219446
13103223108
13103230859
13103238245
13103245325
13103250818
13103258142
13103263940
13103269495
13103276331
13103282861
13103289392
13103297327
13103304101
13103310693
13103317224
13103323938
13103330896
13103334497
13103342370
13103349145
13103355920
13103360254
13103368860
13103370263
13103379663
13103384362
13103390649
13103393579
13103401208
13103407922
13103413781
13103417688
13103424951
13103427758
13103435510
13103438562
13103446374
13103449304
13103458642
13103464440
13103471215
13103476098
13103481530
13103487756
13103493920
13103499474
13103504540
13103509972
13103516869
13103522057
13103527123
13103534570
13103538537
13103545373
13103551110
13103557336
13103560632
13103566979
13103572228
13103578576
13103583581
13103590844
13103595849
13103601586
13103606957
13103613000
13103618981
13103622033
13103629540
13103636315
13103642235
13103645287
13103652001
13103656884
13103662926
13103670006
13103675621
13103681603
13103686852
13103691735
13103696434
13103703942
13103709252
13103715844
13103720299
13103725731
13103731957
13103737816
13103740990
13103748863
13103752892
13103760460
13103765221
13103773094
13103777672
13103783348
13103790306
13103796044
13103802330
13103809898
13103816673
13103822960
13103830589
13103834557
13103843163
13103847008
13103855919
13103862022
13103867027
13103873436
13103879845
13103884972
13103891014
13103895836
13103900413
13103908043
13103917137
13103920494
13103928489
13103932701
13103941185
13103946251
13103953331
13103962303
13103968528
13103974998
13103981163
13103985618
13103992515
13103997764
13104003746
13104007042
13104013511
13104017784
13104025596
13104029563
13104035301
13104041587
13104046775
13104052452
13104056785
13104062644
13104068199
13104073020
13104077842
13104085105
13104090843
13104096824
13104101890
13104108299
13104114097
13104119651
13104124656
13104128928
13104134788
13104139304
13104144736
13104149802
13104154502
13104161948
13104167380
13104172752
13104176658
13104184531
13104191672
13104197349
13104202048
13104208518
13104215232
13104220908
13104225486
13104230063
13104237754
13104243796
13104248679
13104255454
13104261435
13104267234
13104272483
13104275779
13104283835
13104290122
13104295798
13104300681
13104307761
13104313071
13104319297
13104323996
13104330344
13104335593
13104342368
13104347373
13104352622
13104359275
13104363913
13104369223
13104375449
13104382407
13104388938
13104395896
13104401938
13104407553
13104410849
13104419455
13104425497
13104431540
13104436423
13104443503
13104449484
13104454672
13104459677
13104464560
13104471823
13104477377
13104482687
13104488974
13104494101
13104499777
13104505942
13104512106
13104518332
13104522177
13104532004
13104536764
13104544455
13104550070
13104562094
13104567282
13104575583
13104579123
13104587790
13104593649
13104600546
13104605307
13104612326
13104616781
13104623800
13104628256
13104634970
13104639852
13104646810
13104651937
13104658285
13104663778
13104669821
13104674276
13104680563
13104686544
13104692159
13104698995
13104703939
13104708578
13104714559
13104720785
13104724508
13104731161
13104737508
13104743063
13104748983
13104754293
13104757284
13104765951
13104771139
13104776693
13104781759
13104789510
13104794271
13104800619
13104805746
13104812765
13104818990
13104822957
13104829915
13104835103
13104840352
13104846578
13104852254
13104857869
13104863302
13104868062
13104874898
13104880880
13104888082
13104893392
13104900228
13104904744
13104910543
13104916219
13104921163
13104928182
13104932637
13104939412
13104944417
13104950521
13104956685
13104962972
13104968526
13104973897
13104977864
13104986470
13104990071
13104997029
13105003011
13105008199
13105015157
13105019490
13105027486
13105031941
13105037679
13105043233
13105049214
13105055074
13105062947
13105068440
13105074055
13105079793
13105085042
13105091633
13105097432
13105100789
13105108723
13105113545
13105120320
13105127278
13105136982
13105144063
13105154011
13105160481
13105169941
13105175740
13105183796
13105190144
13105197285
13105203389
13105210835
13105216084
13105221211
13105227192
13105232075
13105237507
13105243366
13105248860
13105252033
13105258442
13105264424
13105270832
13105275837
13105281574
13105286091
13105292500
13105297016
13105303730
13105308979
13105313313
13105319660
13105327290
13105332539
13105339375
13105342487
13105349384
13105355305
13105362080
13105366718
13105372028
13105376972
13105384724
13105389912
13105394794
13105402424
13105406452
13105412922
13105418598
13105426655
13105432636
13105438923
13105443561
13105448749
13105455341
13105461628
13105466266
13105472126
13105477008
13105483600
13105489032
13105495929
13105500690
13105506855
13105513874
13105517780
13105525531
13105531391
13105536273
13105542438
13105548480
13105553852
13105560077
13105566242
13105571063
13105576312
13105581134
13105587543
13105593280
13105598956
13105604572
13105609149
13105616962
13105622211
13105629840
13105635699
13105642780
13105646808
13105652667
13105659564
13105665362
13105671405
13105676959
13105680255
13105688983
13105693683
13105699664
13105705401
13105712237
13105717059
13105723224
13105729022
13105734210
13105738849
13105744952
13105753558
13105761248
13105768451
13105776873
13105783160
13105789019
13105794818
13105802813
13105809832
13105815692
13105821307
13105829058
13105834735
13105839251
13105844622
13105849505
13105855731
13105858843
13105865130
13105870562
13105875384
13105880938
13105887896
13105892840
13105897845
13105900652
13105909380
13105914507
13105920184
13105925982
13105930926
13105935198
13105942095
13105947466
13105953936
13105958269
13105967242
13105973101
13105979082
13105985003
13105989702
13105995135
13106000994
13106009112
13106013811
13106019427
13106024065
13106032305
13106035418
13106042009
13106046953
13106056170
13106060137
13106068010
13106073198
13106079668
13106084307
13106090593
13106096758
13106101946
13106109697
13106115129
13106119524
13106124651
13106130876
13106137224
13106142473
13106145647
13106154802
13106156450
13106167497
13106170732
13106177507
13106182085
13106189836
13106195268
13106201372
13106208818
13106214555
13106219072
13106225481
13106230913
13106236406
13106242876
13106249712
13106257158
13106261186
13106269487
13106275407
13106282609
13106287553
13106294328
13106299516
13106305070
13106311845
13106319719
13106325273
13106331926
13106338945
13106342485
13106350541
13106355119
13106363908
13106369096
13106378862
13106383805
13106392411
13106398149
13106404435
13106410051
13106415483
13106427140
13106434892
13106439408
13106446488
13106450883
13106456925
13106462663
13106469499
13106475663
13106480119
13106485429
13106490739
13106494584
13106501542
13106505753
13106513078
13106517594
13106523637
13106528214
13106533036
13106535966
13106545121
13106551286
13106557877
13106565446
13106571671
13106576981
13106582596
13106587784
13106595109
13106600114
13106605301
13106610184
13106617447
13106622819
13106627335
13106633927
13106636979
13106646256
13106649369
13106655900
13106661637
13106669877
13106672989
13106680008
13106687088
13106692032
13106697953
13106702652
13106709488
13106715653
13106722489
13106728897
13106735062
13106738663
13106745377
13106749954
13106758011
13106764603
13106770767
13106777786
13106783402
13106790909
13106796707
13106802200
13106810684
13106815933
13106821426
13106826431
13106833817
13106838638
13106846268
13106851456
13106859146
13106864761
13106871658
13106875809
13106882522
13106888382
13106894607
13106900162
13106905533
13106912124
13106918594
13106922989
13106930496
13106933975
13106943008
13106946487
13106955276
13106958816
13106965652
13106970291
13106978042
13106983474
13106989517
13106995376
13107000381
13107011306
13107019546
13107022720
13107032058
13107035659
13107044143
13107049819
13107057937
13107064041
13107070266
13107074539
13107080093
13107085708
13107090530
13107097060
13107102859
13107109756
13107116287
13107121291
13107128127
13107132522
13107137771
13107145095
13107149429
13107156753
13107161025
13107167007
13107171523
13107176711
13107182571
13107188857
13107195327
13107200759
13107206496
13107212295
13107215651
13107223220
13107227797
13107234633
13107239882
13107246474
13107252456
13107258010
13107265090
13107269851
13107275039
13107281691
13107287307
13107292800
13107298598
13107303786
13107309706
13107314589
13107321669
13107326186
13107332961
13107338149
13107345473
13107350173
13107356337
13107360976
13107366896
13107372511
13107379653
13107384352
13107387404
13107397658
13107402358
13107409071
13107412367
13107421156
13107424391
13107432021
13107437575
13107444960
13107451552
13107457960
13107464308
13107469862
13107474562
13107482619
13107488051
13107494581
13107500624
13107508619
13107514052
13107520949
13107527601
13107533644
13107541639
13107546461
13107557814
13107569777
13107578810
13107586988
13107594862
13107603590
13107608900
13107619642
13107626966
13107636915
13107645277
13107654920
13107666517
13107677442
13107686537
13107694715
13107702955
13107713331
13107723035
13107733472
13107741102
13107750135
13107760572
13107767835
13107775587
13107783277
13107788038
13107798047
13107805494
13107812574
13107824354
13107831312
13107838392
13107844373
13107852979
13107859510
13107865552
13107871289
13107878675
13107884412
13107891065
13107897229
13107904737
13107909986
13107915357
13107922620
13107927259
13107933972
13107941358
13107946607
13107952039
13107958325
13107964551
13107968701
13107976453
13107981275
13107987134
13107991773
13107997022
13108002576
13108008801
13108013013
13108017468
13108022595
13108029126
13108034497
13108039929
13108046460
13108050854
13108056226
13108059888
13108064892
13108070264
13108071484
13108080151
13108086987
13108096692
13108102551
13108108227
13108114331
13108119702
13108127392
13108132275
13108139050
13108144665
13108152722
13108156201
13108164624
13108170056
13108176770
13108181958
13108187207
13108194104
13108199597
13108206066
13108211682
13108216381
13108222546
13108228588
13108233654
13108240429
13108244702
13108252514
13108257153
13108263378
13108266613
13108274548
13108279614
13108286388
13108291882
13108298657
13108303295
13108309155
13108315319
13108323132
13108329540
13108338390
13108343456
13108349071
13108353771
13108361339
13108368786
13108373546
13108380504
13108386486
13108392528
13108398510
13108403454
13108409618
13108416088
13108421154
13108428051
13108433849
13108440258
13108445629
13108451366
13108455700
13108461132
13108467174
13108472606
13108477611
13108484020
13108488475
13108495433
13108500621
13108506908
13108511119
13108516124
13108521495
13108526683
13108529674
13108538585
13108543346
13108549205
13108554210
13108561412
13108569042
13108575939
13108581249
13108587413
13108593028
13108599376
13108604198
13108610790
13108616466
13108621288
13108627757
13108631786
13108637767
13108644542
13108649852
13108655406
13108661693
13108666453
13108673778
13108679759
13108685374
13108690806
13108695201
13108702403
13108706248
13108713572
13108718150
13108724803
13108729503
13108735728
13108741649
13108746959
13108753367
13108759959
13108764598
13108773631
13108778636
13108784190
13108790782
13108796275
13108802684
13108808177
13108813426
13108820384
13108825877
13108832041
13108837718
13108844126
13108850230
13108853404
13108861338
13108866221
13108872996
13108879282
13108885935
13108891306
13108899058
13108904307
13108909129
13108917796
13108921336
13108930003
13108936289
13108944590
13108949900
13108956797
13108963511
13108970713
13108975657
13108983774
13108988291
13108995127
13109003122
13109009592
13109014536
13109020151
13109027842
13109033884
13109038462
13109044260
13109050364
13109055979
13109062449
13109067148
13109073679
13109079172
13109085581
13109091684
13109096140
13109100290
13109106333
13109110666
13109118418
13109125315
13109130991
13109134104
13109141001
13109147836
13109154123
13109157297
13109166452
13109172678
13109179941
13109186716
13109192697
13109198496
13109203989
13109207163
13109217172
13109224008
13109229806
13109236154
13109242502
13109248300
13109253610
13109258493
13109265512
13109270090
13109277231
13109282480
13109289194
13109294565
13109302438
13109307626
13109313058
13109321054
13109326669
13109334115
13109340158
13109344552
13109349679
13109356210
13109361337
13109367562
13109371103
13109380258
13109385507
13109392404
13109398141
13109404122
13109409982
13109416818
13109421884
13109428903
13109435250
13109439950
13109443063
13109451974
13109456552
13109461495
13109468881
13109474252
13109480416
13109485177
13109487924
13109494698
13109500497
13109505990
13109514046
13109519723
13109524911
13109530038
13109534859
13109541817
13109547066
13109553841
13109560250
13109567696
13109573495
13109579659
13109585885
13109591683
13109598580
13109604317
13109611886
13109617013
13109622689
13109627327
13109629891
13109637032
13109640633
13109646309
13109650521
13109656258
13109659981
13109665352
13109670357
13109675484
13109679940
13109686104
13109690438
13109697274
13109701546
13109708443
13109713509
13109720223
13109724373
13109730965
13109735726
13109742623
13109746834
13109753853
13109759468
13109764351
13109768807
13109774361
13109780953
13109788399
13109793099
13109799751
13109805672
13109811104
13109816048
13109822334
13109826790
13109832771
13109838509
13109844856
13109851509
13109856453
13109862739
13109868355
13109876594
13109884407
13109890755
13109896980
13109904243
13109909431
13109912727
13109921821
13109927253
13109933601
13109939094
13109945442
13109949531
13109956123
13109961982
13109967475
13109974067
13109979988
13109983161
13109992439
13109997566
13110003181
13110006172
13110016609
13110022285
13110028449
13110034187
13110040473
13110043403
13110050300
13110055488
13110060371
13110066413
13110073615
13110079170
13110085517
13110090888
13110095039
13110099860
13110106940
13110113105
13110119941
13110127387
13110133979
13110142890
13110148810
13110153693
13110161567
13110170112
13110176642
13110183845
13110188605
13110196845
13110203132
13110209662
13110213569
13110220527
13110225715
13110230170
13110233710
13110241340
13110245978
13110252082
13110256659
13110262397
13110267524
13110271125
13110276313
13110282111
13110286933
13110292731
13110298529
13110304145
13110309210
13110314582
13110319403
13110325263
13110332038
13110336371
13110342536
13110346625
13110352240
13110357550
13110362738
13110367194
13110375128
13110378241
13110385748
13110390692
13110395270
13110399176
13110407111
13110413580
13110419562
13110424445
13110431403
13110436652
13110443121
13110448065
13110456183
13110462897
13110467657
13110474188
13110478155
13110485113
13110490240
13110496222
13110503241
13110509955
13110515265
13110521307
13110525396
13110529486
13110536261
13110541937
13110548956
13110553900
13110562445
13110568365
13110574530
13110580511
13110585638
13110592474
13110601507
13110606878
13110611273
13110617864
13110622259
13110628424
13110633489
13110644415
13110649908
13110656988
13110661321
13110668035
13110672430
13110677984
13110683843
13110692449
13110700384
13110706853
13110710455
13110719244
13110722173
13110731206
13110736883
13110743597
13110746587
13110756719
13110761419
13110767583
13110772588
13110777532
13110782659
13110790227
13110796026
13110802678
13110806341
13110812688
13110818548
13110823186
13110827153
13110835332
13110842290
13110847051
13110851567
13110857854
13110863103
13110868901
13110873906
13110880803
13110886357
13110892827
13110896672
13110902898
13110908513
13110913640
13110918157
13110926396
13110932500
13110937261
13110943852
13110948491
13110954289
13110959416
13110965093
13110969853
13110976811
13110981389
13110987065
13110992986
13110998051
13111002995
13111008000
13111013188
13111019170
13111023747
13111030644
13111037724
13111043828
13111048527
13111055852
13111061284
13111067326
13111071416
13111077946
13111083012
13111089421
13111092778
13111102360
13111109318
13111114323
13111121220
13111128178
13111131779
13111138676
13111144597
13111151310
13111157963
13111164616
13111170719
13111175724
13111181279
13111186283
13111193730
13111197453
13111204533
13111210514
13111216435
13111223149
13111228337
13111233280
13111238468
13111242008
13111249760
13111255619
13111263065
13111268253
13111277165
13111283146
13111289616
13111294498
13111300053
13111306461
13111315556
13111322575
13111330814
13111338322
13111344791
13111349369
13111356510
13111361820
13111368961
13111372684
13111379093
13111385013
13111390629
13111393436
13111400821
13111407779
13111413028
13111417484
13111424320
13111427433
13111434818
13111439029
13111445499
13111451603
13111458133
13111463687
13111468875
13111474491
13111480594
13111485477
13111491642
13111496952
13111503910
13111508731
13111514591
13111519535
13111526004
13111531497
13111534793
13111542850
13111549686
13111555362
13111560550
13111566409
13111570804
13111577518
13111581729
13111588016
13111595706
13111602359
13111606754
13111612857
13111617496
13111624393
13111630069
13111635501
13111640445
13111647464
13111652408
13111658572
13111664615
13111668338
13111674747
13111679080
13111686160
13111695376
13111702945
13111708926
13111715640
13111719363
13111725711
13111728579
13111737918
13111743228
13111749087
13111751895
13111760073
13111764529
13111771609
13111777346
13111782656
13111788211
13111795169
13111799746
13111806155
13111812014
13111817202
13111822878
13111829653
13111835879
13111842104
13111846865
13111852847
13111858767
13111862673
13111869753
13111875857
13111884280
13111891482
13111899111
13111904177
13111909914
13111916445
13111923525
13111929385
13111937868
13111944460
13111951113
13111957583
13111961977
13111968691
13111973452
13111979250
13111984560
13111990725
13111996279
13112001711
13112006960
13112011294
13112018068
13112022707
13112029604
13112035341
13112043947
13112046816
13112053896
13112058290
13112065432
13112070375
13112076845
13112081728
13112089785
13112094728
13112100099
13112106447
13112112490
13112118105
13112122438
13112129335
13112134401
13112141847
13112146120
13112152590
13112158022
13112163454
13112166322
13112175050
13112180483
13112186037
13112191652
13112196718
13112201051
13112208864
13112211732
13112218202
13112225465
13112232118
13112236452
13112242128
13112248048
13112253847
13112258424
13112264711
13112271242
13112277833
13112282472
13112287294
13112293641
13112299867
13112304750
13112310304
13112315614
13112321351
13112328187
13112332521
13112339540
13112342347
13112350099
13112353028
13112360475
13112366578
13112373963
13112378419
13112383546
13112389772
13112396424
13112401185
13112407289
13112412599
13112418702
13112427430
13112434388
13112441468
13112448487
13112456483
13112460999
13112471436
13112480164
13112489259
13112499207
13112508851
13112517213
13112522706
13112537110
13112543580
13112551758
13112559937
13112569092
13112580262
13112591919
13112597046
13112606751
13112613831
13112619873
13112628357
13112635559
13112645142
13112649475
13112657654
13112664246
13112672303
13112678162
13112685181
13112693115
13112702637
13112710144
13112714356
13112722717
13112728882
13112736694
13112742798
13112750610
13112758118
13112763489
13112773377
13112779663
13112786377
13112792908
13112798584
13112806091
13112812500
13112821899
13112831543
13112840515
13112846741
13112852539
13112859741
13112866211
13112874145
13112880798
13112887512
13112895630
13112904113
13112910705
13112914734
13112924194
13112930542
13112939026
13112945983
13112951477
13112961486
13112967773
13112977417
13112982116
13112992248
13112998901
13113004699
13113012817
13113017211
13113029357
13113034484
13113044982
13113052184
13113059692
13113068053
13113072692
13113084960
13113092101
13113097106
13113110595
13113118041
13113126769
13113135314
13113142211
13113152221
13113157958
13113166076
13113170653
13113182433
13113190612
13113196471
13113206786
13113209044
13113221679
13113228881
13113237243
13113244445
13113246520
13113260802
13113267089
13113274779
13113283812
13113289000
13113298155
13113302977
13113311156
13113320372
13113326720
13113335326
13113344115
13113352232
13113360167
13113368468
13113373473
13113381895
13113389342
13113397826
13113407530
13113415404
13113424742
13113433775
13113440306
13113444334
13113455504
13113464293
13113473204
13113481444
13113488524
13113496763
13113508299
13113515989
13113520994
13113528013
13113532835
13113540342
13113546263
13113551451
13113557493
13113562742
13113568479
13113573179
13113579588
13113584532
13113590025
13113596800
13113599363
13113607603
13113612547
13113617735
13113624082
13113629209
13113636411
13113641721
13113647276
13113653440
13113659605
13113667539
13113672300
13113677732
13113684019
13113691892
13113696226
13113702817
13113706785
13113712156
13113717710
13113723508
13113728025
13113737180
13113740232
13113747190
13113751035
13113757322
13113763059
13113768918
13113774656
13113781980
13113786924
13113793882
13113798215
13113804929
13113809202
13113814817
13113821714
13113825742
13113833432
13113839658
13113845517
13113850644
13113857053
13113862485
13113867734
13113874326
13113878903
13113884275
13113891110
13113895444
13113902402
13113905210
13113913938
13113919797
13113926572
13113931821
13113936887
13113942136
13113947629
13113954038
13113959287
13113965207
13113972226
13113977353
13113985837
13113992123
13113997250
13114002011
13114009335
13114017209
13114023007
13114027524
13114036130
13114040768
13114048581
13114055905
13114061154
13114067380
13114072995
13114078915
13114085568
13114090390
13114096859
13114101437
13114106015
13114111386
13114117367
13114121396
13114128292
13114135434
13114140683
13114146847
13114153256
13114158749
13114163754
13114169308
13114173580
13114180111
13114183712
13114189144
13114193112
13114199398
13114204342
13114208492
13114213741
13114217892
13114221615
13114227780
13114233700
13114239864
13114243771
13114250057
13114254391
13114260861
13114263912
13114273068
13114278072
13114283749
13114289547
13114294491
13114299129
13114305355
13114311092
13114316280
13114322323
13114329098
13114335750
13114342159
13114346615
13114351559
13114357174
13114362118
13114369320
13114375179
13114381344
13114385799
13114392208
13114397701
13114404232
13114408992
13114414241
13114423397
13114431453
13114436885
13114445125
13114450191
13114455257
13114460689
13114465816
13114471920
13114477291
13114483333
13114488948
13114491939
13114500362
13114503414
13114510921
13114516963
13114524165
13114527156
13114534969
13114540218
13114545528
13114550288
13114556453
13114561519
13114567928
13114573726
13114578487
13114584773
13114590572
13114596309
13114600154
13114610896
13114617244
13114624507
13114630611
13114635371
13114642451
13114648738
13114656306
13114662044
13114672420
13114677607
13114683955
13114689631
13114695125
13114700374
13114706111
13114711238
13114715266
13114721309
13114725459
13114731135
13114736384
13114742060
13114747432
13114753962
13114758357
13114764155
13114770564
13114777033
13114781489
13114787104
13114793147
13114799555
13114804560
13114810786
13114816889
13114821406
13114828303
13114833003
13114838313
13114844477
13114851191
13114855402
13114861628
13114866328
13114873225
13114876093
13114884394
13114889765
13114895197
13114899531
13114907099
13114912104
13114917536
13114921992
13114928461
13114934870
13114941035
13114945246
13114950861
13114956843
13114962336
13114968378
13114972956
13114980524
13114986261
13114992426
13114997065
13115002680
13115008905
13115013971
13115020136
13115025446
13115032953
13115038874
13115044367
13115050714
13115053827
13115060297
13115065119
13115073297
13115080133
13115086908
13115090875
13115097162
13115101862
13115107965
13115112116
13115118463
13115124506
13115130487
13115135980
13115140131
13115146478
13115152399
13115158258
13115165155
13115172540
13115178278
13115184198
13115189386
13115196405
13115201227
13115208734
13115217279
13115226984
13115236078
13115242120
13115249933
13115256647
13115262018
13115268915
13115275018
13115280755
13115285882
13115291620
13115296930
13115301263
13115306756
13115313043
13115319085
13115325250
13115331170
13115336541
13115343072
13115347894
13115354974
13115360589
13115367730
13115372247
13115378900
13115383477
13115390130
13115395135
13115401605
13115407342
13115414422
13115419305
13115425591
13115430047
13115435906
13115439813
13115446038
13115453301
13115459161
13115464959
13115469781
13115473199
13115480584
13115484856
13115491631
13115500664
13115506951
13115510125
13115518120
13115525078
13115530389
13115536187
13115541375
13115547234
13115552727
13115557061
13115564568
13115567498
13115574700
13115580498
13115586724
13115591301
13115598626
13115603081
13115608941
13115614800
13115619744
13115626519
13115632744
13115637444
13115643853
13115650139
13115655754
13115660088
13115665093
13115672600
13115677544
13115683403
13115692681
13115698235
13115703057
13115710015
13115713127
13115721245
13115724297
13115731804
13115739311
13115745659
13115750481
13115756767
13115763725
13115768425
13115774773
13115779655
13115788872
13115795219
13115801506
13115809257
13115813957
13115820305
13115825554
13115829338
13115837761
13115847160
13115853935
13115857109
13115864433
13115870720
13115875786
13115880302
13115888054
13115894462
13115899711
13115905021
13115910087
13115914970
13115921196
13115926994
13115932304
13115938774
13115944328
13115948417
13115954765
13115959404
13115965812
13115971855
13115976982
13115983207
13115988883
13115994682
13115999992
13116004814
13116009635
13116016166
13116020439
13116028434
13116034354
13116041740
13116047782
13116052177
13116056815
13116062919
13116070670
13116076408
13116083366
13116090873
13116094108
13116102592
13116105643
13116112662
13116117057
13116123344
13116130729
13116137137
13116141959
13116148551
13116154166
13116159110
13116164786
13116170340
13116175651
13116182486
13116188102
13116194144
13116199820
13116205680
13116212272
13116215751
13116224417
13116227835
13116236930
13116240165
13116249076
13116254203
13116261222
13116265372
13116273184
13116279166
13116284537
13116290946
13116295951
13116303153
13116308463
13116313956
13116320365
13116326285
13116331900
13116337698
13116340689
13116348563
13116353140
13116360526
13116363760
13116373465
13116378043
13116384573
13116390677
13116396475
13116401968
13116407461
13116415213
13116421194
13116429434
13116433584
13116440359
13116444693
13116451163
13116457388
13116463308
13116469839
13116476309
13116482779
13116488272
13116492483
13116498098
13116502310
13116508841
13116513784
13116521231
13116525503
13116533071
13116538198
13116545156
13116550161
13116555838
13116562490
13116568106
13116573110
13116579580
13116584768
13116592336
13116598806
13116604971
13116610342
13116615774
13116623403
13116628591
13116635427
13116640493
13116646047
13116651479
13116659231
13116665090
13116670583
13116675954
13116682607
13116688955
13116694265
13116700979
13116706045
13116712392
13116717031
13116724966
13116730337
13116737844
13116743825
13116749441
13116754506
13116760427
13116765737
13116773244
13116778432
13116785451
13116791799
13116797292
13116804128
13116809072
13116815297
13116819875
13116827748
13116832631
13116840016
13116843251
13116851613
13116856313
13116863881
13116868886
13116876088
13116882924
13116889455
13116896352
13116902638
13116907704
13116914662
13116921681
13116927297
13116932851
13116939015
13116944753
13116950734
13116956105
13116960927
13116967946
13116974904
13116979237
13116985707
13116992726
13116997548
13117002675
13117010304
13117014882
13117022023
13117026784
13117034901
13117039113
13117049672
13117053578
13117061146
13117066945
13117073964
13117081471
13117093861
13117104359
13117112843
13117121205
13117128773
13117135792
13117144093
13117152699
13117160633
13117170582
13117179127
13117186695
13117193531
13117200916
13117208180
13117216114
13117224659
13117233387
13117241261
13117249012
13117255299
13117261951
13117269703
13117277454
13117286793
13117294544
13117302112
13117309376
13117317554
13117325489
13117333546
13117340503
13117352161
13117360706
13117366688
13117377186
13117385303
13117394153
13117401416
13117410267
13117419239
13117428333
13117436023
13117444080
13117453723
13117462329
13117470264
13117479358
13117485950
13117495105
13117504810
13117515064
13117522571
13117529712
13117538989
13117547046
13117554858
13117564685
13117573901
13117580676
13117589526
13117598743
13117604297
13117615100
13117623279
13117630725
13117639880
13117650012
13117658069
13117667163
13117676806
13117683398
13117696215
13117702502
13117711718
13117721179
13117730029
13117738818
13117744982
13117757800
13117765978
13117775744
13117785632
13117795031
13117805407
13117813830
13117826159
13117835497
13117842150
13117851855
13117860033
13117868639
13117876818
13117885241
13117893175
13117903796
13117913012
13117919115
13117925341
13117934923
13117942919
13117950487
13117958666
13117966356
13117974291
13117983568
13117991381
13117998583
13118005053
13118013231
13118021654
13118030077
13118037706
13118046617
13118053697
13118062853
13118067003
13118079393
13118088121
13118096361
13118101976
13118111437
13118119920
13118128282
13118136888
13118145006
13118152330
13118160448
13118167772
13118175706
13118184007
13118192125
13118199144
13118207689
13118216783
13118223009
13118233446
13118239610
13118247789
13118253709
13118264451
13118271898
13118281053
13118288865
13118296067
13118304734
13118313279
13118321031
13118327134
13118336412
13118344529
13118350816
13118358445
13118366136
13118374558
13118384324
13118390122
13118398057
13118400742
13118407273
13118412034
13118417771
13118422654
13118426682
13118431565
13118435044
13118439378
13118444383
13118448228
13118455857
13118460191
13118463609
13118468308
13118472764
13118477525
13118481797
13118486924
13118494919
13118500352
13118506699
13118512253
13118516953
13118522690
13118528489
13118541855
13118548813
13118553391
13118557480
13118562180
13118566391
13118571335
13118576096
13118580613
13118585984
13118590500
13118595810
13118599778
13118606186
13118612473
13118617966
13118621567
13118626755
13118630967
13118634934
13118639389
13118644577
13118647629
13118652695
13118657761
13118662338
13118667282
13118673325
13118677658
13118683823
13118689682
13118694138
13118700302
13118705246
13118711472
13118717697
13118721359
13118728561
13118733017
13118737961
13118743759
13118749619
13118755295
13118760483
13118766403
13118771774
13118777389
13118782211
13118786545
13118792221
13118798813
13118804611
13118809311
13118814804
13118821884
13118829819
13118834335
13118841537
13118846237
13118851547
13118856430
13118863205
13118868210
13118872909
13118878524
13118884506
13118889633
13118895614
13118900558
13118906478
13118912826
13118919052
13118925094
13118930770
13118936203
13118941574
13118947006
13118952560
13118959030
13118965133
13118968368
13118976669
13118982711
13118988571
13118994308
13119000350
13119006271
13119012618
13119015670
13119023910
13119029220
13119037154
13119045516
13119050643
13119057906
13119063522
13119067733
13119073104
13119079757
13119085433
13119095077
13119099898
13119105514
13119109725
13119115401
13119121200
13119125472
13119131942
13119137069
13119141829
13119149642
13119154525
13119158980
13119164962
13119169539
13119174300
13119178450
13119187178
13119190352
13119198592
13119201400
13119207869
13119212447
13119219771
13119224166
13119230269
13119235579
13119242415
13119246382
13119252547
13119256697
13119262801
13119267317
13119274336
13119279341
13119286849
13119291365
13119297164
13119303023
13119308272
13119314070
13119319746
13119325179
13119331709
13119337386
13119342635
13119349104
13119352888
13119359908
13119369978
13119375838
13119381331
13119387251
13119393050
13119400313
13119405379
13119411238
