13055126124
13055132289
13055137477
13055142665
13055147425
13055153041
13055158900
13055164759
13055170436
13055176844
13055182154
13055188258
13055194850
13055201808
13055206996
13055212977
13055218226
13055223780
13055230982
13055236475
13055240260
13055247218
13055254115
13055260401
13055265955
13055274622
13055282191
13055288660
13055294337
13055300440
13055305811
13055312647
13055318812
13055323694
13055330958
13055337366
13055342982
13055351649
13055358545
13055365992
13055372706
13055379603
13055384546
13055393396
13055401819
13055408533
13055413599
13055421534
13055428675
13055432886
13055440393
13055446863
13055454004
13055460230
13055466089
13055472254
13055478906
13055484156
13055490015
13055497034
13055504236
13055509363
13055515772
13055521265
13055526636
13055532984
13055541101
13055546655
13055553064
13055559045
13055563684
13055569360
13055576868
13055583154
13055587610
13055592493
13055596216
13055600854
13055603845
13055609827
13055614587
13055618921
13055622766
13055626428
13055631677
13055634668
13055640649
13055644678
13055649682
13055654077
13055658105
13055661950
13055665307
13055670068
13055674951
13055679345
13055683984
13055687829
13055691308
13055696862
13055700769
13055704858
13055711877
13055717675
13055722009
13055727197
13055733117
13055738305
13055742456
13055747094
13055753076
13055758020
13055767419
13055772607
13055779931
13055786706
13055793054
13055799706
13055807519
13055815453
13055822228
13055831628
13055839135
13055844628
13055853051
13055859032
13055865258
13055873742
13055878503
13055884423
13055890404
13055895837
13055901696
13055907494
13055914391
13055920983
13055924889
13055928368
13055933434
13055937646
13055941064
13055944726
13055949669
13055953881
13055957787
13055961754
13055966637
13055971093
13055975792
13055981347
13055985863
13055989159
13055993065
13055996178
13056005028
13056010094
13056017113
13056022606
13056028527
13056033959
13056039208
13056046471
13056052208
13056056786
13056060509
13056065209
13056070580
13056074486
13056078758
13056084130
13056086815
13056093163
13056098046
13056102684
13056107018
13056112206
13056117699
13056123009
13056127098
13056131615
13056137779
13056142967
13056149132
13056155296
13056163231
13056169029
13056176842
13056183250
13056188744
13056195579
13056200890
13056207725
13056213280
13056219871
13056226158
13056232384
13056238609
13056245323
13056252159
13056260093
13056266197
13056275596
13056281212
13056289329
13056295005
13056302574
13056309654
13056315391
13056320396
13056326377
13056330406
13056335716
13056340904
13056345420
13056350303
13056354881
13056361778
13056367088
13056371360
13056377037
13056382408
13056387107
13056392173
13056396629
13056402854
13056408653
13056414390
13056418907
13056424400
13056429527
13056435325
13056440757
13056445640
13056451316
13056457175
13056462363
13056468284
13056479270
13056483787
13056489219
13056495689
13056500571
13056505088
13056511375
13056515952
13056521140
13056525901
13056534202
13056539573
13056545920
13056551902
13056557700
13056562217
13056568808
13056573447
13056579673
13056584556
13056592246
13056598899
13056607444
13056615683
13056621970
13056628196
13056637046
13056643088
13056650717
13056657553
13056666587
13056671286
13056681662
13056686972
13056697898
13056706503
13056712851
13056717307
13056727255
13056734457
13056742514
13056746970
13056756674
13056764731
13056771445
13056778525
13056784384
13056789206
13056794882
13056800070
13056804709
13056810446
13056817160
13056822775
13056827292
13056834860
13056840658
13056846396
13056850485
13056857138
13056860434
13056868124
13056871420
13056877951
13056882834
13056888083
13056894430
13056899374
13056904318
13056909994
13056915670
13056921164
13056927816
13056932699
13056937094
13056943502
13056948629
13056951925
13056959188
13056964498
13056970846
13056973776
13056982260
13056987142
13056992391
13056997152
13057002767
13057007772
13057012655
13057018881
13057023336
13057029440
13057035055
13057041341
13057045980
13057052267
13057055257
13057063558
13057068258
13057074483
13057080953
13057090230
13057096700
13057105550
13057111715
13057118246
13057127340
13057134176
13057144185
13057149984
13057159139
13057164876
13057174032
13057180135
13057188558
13057197774
13057204305
13057214009
13057223165
13057232686
13057242330
13057254720
13057261190
13057266500
13057281941
13057289815
13057296163
13057301595
13057307332
13057311482
13057317647
13057323140
13057328816
13057333333
13057339192
13057342793
13057351765
13057356587
13057361592
13057366353
13057373006
13057378926
13057384846
13057389729
13057396931
13057404072
13057409749
13057412800
13057421528
13057424458
13057432759
13057435933
13057443867
13057449116
13057455403
13057459309
13057465168
13057468464
13057475239
13057479329
13057485859
13057489338
13057495503
13057500630
13057505574
13057509541
13057516438
13057522175
13057526509
13057532002
13057537373
13057541767
13057547688
13057551594
13057557575
13057562275
13057568562
13057577595
13057583760
13057591938
13057598225
13057605366
13057612385
13057621662
13057629841
13057638996
13057645954
13057654011
13057660664
13057670063
13057676166
13057684894
13057691181
13057700031
13057708454
13057715839
13057722004
13057731769
13057738178
13057746174
13057753559
13057760578
13057768818
13057775654
13057780842
13057785175
13057791950
13057796833
13057802936
13057807575
13057813373
13057818317
13057824726
13057828937
13057834919
13057840351
13057845478
13057850727
13057856464
13057863361
13057868183
13057874164
13057881366
13057888385
13057893390
13057900043
13057908099
13057914508
13057921832
13057927387
13057933856
13057939044
13057942523
13057951251
13057955829
13057961993
13057966571
13057971271
13057974567
13057980975
13057983661
13057990863
13057997272
13058001910
13058006427
13058011981
13058014422
13058022845
13058025348
13058032123
13058037311
13058043170
13058047503
13058052569
13058056292
13058064593
13058070086
13058079364
13058089007
13058095904
13058102191
13058109027
13058115191
13058125079
13058130694
13058137530
13058146319
13058155535
13058161761
13058170245
13058176653
13058187029
13058194842
13058204791
13058213030
13058221392
13058228472
13058235735
13058241595
13058249224
13058256243
13058261248
13058266802
13058271563
13058277911
13058282244
13058288653
13058294085
13058300432
13058305987
13058312334
13058316118
13058322832
13058327105
13058333452
13058334673
13058344744
13058348223
13058354876
13058359697
13058365801
13058371050
13058377092
13058381060
13058391130
13058396502
13058401506
13058406939
13058414080
13058418474
13058423906
13058429827
13058435320
13058441728
13058446245
13058452349
13058457842
13058462114
13058468645
13058472551
13058478533
13058482500
13058489824
13058497820
13058504534
13058510027
13058516496
13058522234
13058530107
13058535600
13058545122
13058552202
13058558183
13058567155
13058574297
13058582231
13058589128
13058600419
13058608842
13058615861
13058622575
13058631120
13058639604
13058646013
13058654680
13058661332
13058667619
13058675615
13058682084
13058688554
13058696611
13058700639
13058709062
13058717424
13058725907
13058731462
13058738786
13058744950
13058749101
13058754045
13058760575
13058766862
13058771317
13058778337
13058782182
13058788712
13058793046
13058800675
13058806413
13058813310
13058818070
13058822404
13058828751
13058834245
13058840592
13058843949
13058850846
13058855119
13058861466
13058867692
13058871720
13058877946
13058884721
13058891373
13058896866
13058903031
13058909379
13058913163
13058919449
13058924454
13058931534
13058934586
13058942460
13058946976
13058955033
13058959855
13058965409
13058973343
13058979142
13058984024
13058989762
13058996598
13059002823
13059010392
13059020157
13059029251
13059036942
13059044998
13059053604
13059061173
13059068131
13059077469
13059084610
13059090164
13059101639
13059107193
13059117447
13059122879
13059134476
13059142471
13059150528
13059156754
13059166763
13059171951
13059182632
13059187576
13059197647
13059206192
13059211441
13059215042
13059222793
13059227188
13059232010
13059238052
13059243912
13059249222
13059254959
13059261245
13059265640
13059271377
13059278579
13059283950
13059290908
13059296096
13059301529
13059306594
13059311233
13059317764
13059323196
13059327590
13059330642
13059342178
13059345046
13059354324
13059359329
13059365554
13059371719
13059376357
13059382522
13059389419
13059397415
13059402786
13059408218
13059414504
13059420303
13059425185
13059431594
13059437759
13059443801
13059448501
13059455032
13059460097
13059467055
13059472610
13059480239
13059488479
13059495193
13059504897
13059512710
13059517653
13059529372
13059536818
13059543715
13059553481
13059560683
13059567641
13059577529
13059584548
13059592971
13059601882
13059610427
13059618300
13059625441
13059633986
13059636733
13059649611
13059656203
13059665114
13059671950
13059679518
13059684523
13059696364
13059702040
13059709181
13059716017
13059722914
13059729140
13059735487
13059741896
13059748610
13059755751
13059760451
13059767775
13059773390
13059782606
13059790175
13059797804
13059807265
13059815321
13059822462
13059836317
13059845839
13059855055
13059862867
13059876722
13059884596
13059890944
13059898085
13059903883
13059908827
13059918409
13059922438
13059931715
13059940565
13059948316
13059956251
13059963392
13059969557
13059975111
13059984754
13059988966
13059997694
13060009351
13060017164
13060024427
13060030347
13060038953
13060046705
13060056409
13060063367
13060071424
13060079908
13060089307
13060096265
13060101514
13060109449
13060116102
13060126905
13060135694
13060145704
13060158643
13060167554
13060180616
13060187024
13060201734
13060210828
13060220044
13060229322
13060237989
13060251477
13060260633
13060270764
13060276746
13060288648
13060298474
13060307324
13060316480
13060323621
13060336560
13060344312
13060356824
13060366406
13060376782
13060382458
13060389599
13060396619
13060399304
13060414075
13060418103
13060426770
13060429761
13060441357
13060447644
13060455883
13060461194
13060469677
13060478833
13060487255
13060494152
13060502026
13060509533
13060517712
13060525524
13060531567
13060542492
13060549267
13060557812
13060566357
13060572888
13060578076
13060586315
13060592907
13060600109
13060608593
13060618786
13060625378
13060633739
13060641247
13060648083
13060655224
13060664257
13060672131
13060681225
13060688488
13060694897
13060705822
13060711132
13060724743
13060734936
13060743480
13060750622
13060762279
13060768932
13060777355
13060784496
13060791393
13060798778
13060809154
13060817699
13060823131
13060833873
13060839122
13060853221
13060861400
13060873241
13060882640
13060895213
13060905772
13060915904
13060927440
13060940807
13060953319
13060964610
13060973094
13060982066
13060990916
13060999644
13061008861
13061017772
13061028270
13061037974
13061046397
13061055919
13061063060
13061070506
13061077281
13061084056
13061093699
13061100962
13061108836
13061112498
13061122386
13061131114
13061137217
13061145701
13061153697
13061163279
13061170115
13061177561
13061184214
13061192698
13061200816
13061207774
13061215830
13061225230
13061232066
13061238291
13061243052
13061253855
13061260325
13061273691
13061284251
13061291453
13061300425
13061310435
13061317698
13061325632
13061335398
13061341257
13061351450
13061359201
13061368662
13061377207
13061385080
13061393320
13061401255
13061410227
13061417917
13061429819
13061438608
13061449350
13061459116
13061469919
13061479501
13061490122
13061500864
13061510873
13061521921
13061530222
13061541147
13061551889
13061561533
13061568735
13061579904
13061590646
13061600046
13061611581
13061619821
13061630685
13061644296
13061654794
13061665902
13061676828
13061686044
13061695687
13061704110
13061713082
13061722909
13061731637
13061741281
13061750009
13061756478
13061765206
13061772653
13061779977
13061789071
13061797006
13061805245
13061816048
13061822640
13061830453
13061838143
13061846017
13061853829
13061862191
13061870064
13061878915
13061885995
13061894417
13061901620
13061910225
13061916024
13061925911
13061932930
13061941659
13061948739
13061959115
13061967781
13061974739
13061983284
13061991768
13062000801
13062010323
13062019112
13062025093
13062033089
13062040901
13062048470
13062056648
13062065865
13062072090
13062084908
13062092598
13062103157
13062112068
13062122871
13062128304
13062141426
13062147224
13062159126
13062169868
13062179634
13062189644
13062199226
13062207954
13062216865
13062227424
13062235237
13062247261
13062253486
13062261543
13062268501
13062275520
13062281196
13062287605
13062293281
13062299690
13062305122
13062311286
13062320014
13062327644
13062334663
13062340461
13062346198
13062350349
13062358467
13062364326
13062370796
13062376045
13062382758
13062387641
13062392341
13062397285
13062401069
13062406806
13062411811
13062416755
13062420539
13062427924
13062432807
13062438972
13062445747
13062449775
13062454536
13062459296
13062464912
13062470710
13062474372
13062479804
13062484443
13062489387
13062493415
13062497931
13062502631
13062506232
13062511481
13062515449
13062520270
13062526557
13062531562
13062538093
13062542975
13062547370
13062553534
13062559211
13062566230
13062572638
13062577765
13062585151
13062592475
13062598151
13062605658
13062612189
13062617804
13062624274
13062629035
13062636481
13062642279
13062649970
13062657233
13062666205
13062674628
13062682379
13062688422
13062694769
13062702033
13062709357
13062716925
13062722540
13062730231
13062737738
13062742499
13062746466
13062752386
13062758063
13062764105
13062769415
13062773993
13062777228
13062783148
13062788763
13062794440
13062798712
13062803839
13062809027
13062813177
13062819708
13062825323
13062831244
13062837408
13062844122
13062847601
13062854864
13062860479
13062866644
13062872015
13062881048
13062887457
13062893988
13062900457
13062905157
13062912115
13062916632
13062923284
13062928228
13062935125
13062939154
13062944586
13062948309
13062954717
13062958257
13062965887
13062969305
13062976568
13062982366
13062986822
13062992315
13062997076
13063002935
13063009649
13063016180
13063021795
13063029058
13063036993
13063042486
13063048711
13063057806
13063065679
13063073369
13063077459
13063085638
13063091070
13063096746
13063106328
13063114080
13063120916
13063128423
13063136358
13063142766
13063150579
13063156255
13063162175
13063170659
13063177373
13063184880
13063190251
13063195317
13063201665
13063206670
13063211431
13063218328
13063223638
13063229741
13063234990
13063239568
13063245305
13063250249
13063256413
13063261174
13063266728
13063273747
13063277532
13063284001
13063288945
13063295964
13063299748
13063306218
13063312566
13063318608
13063324956
13063329778
13063336308
13063342351
13063347356
13063353642
13063358464
13063364506
13063369389
13063376164
13063381962
13063388920
13063394047
13063400944
13063407841
13063414616
13063419377
13063427067
13063432560
13063437932
13063444767
13063447392
13063458195
13063463444
13063470829
13063477360
13063486271
13063497197
13063504460
13063513066
13063521855
13063531620
13063540837
13063549381
13063558476
13063563236
13063573979
13063581486
13063588688
13063597965
13063606022
13063610966
13063619755
13063626225
13063636845
13063641422
13063649723
13063656742
13063665165
13063673038
13063679325
13063688480
13063693546
13063702640
13063707950
13063712894
13063718876
13063723026
13063729740
13063734623
13063741825
13063747562
13063753910
13063760868
13063767398
13063773075
13063777408
13063785892
13063791507
13063797611
13063804874
13063812320
13063817508
13063824527
13063829776
13063837100
13063842166
13063847476
13063853275
13063859866
13063867191
13063871158
13063878604
13063884097
13063890811
13063897586
13063903262
13063908023
13063915408
13063922244
13063927310
13063934573
13063938541
13063946353
13063952884
13063958316
13063962344
13063968936
13063976382
13063983462
13063989932
13063995913
13064001651
13064007693
13064014407
13064016604
13064028384
13064035952
13064042849
13064051455
13064059024
13064064822
13064075320
13064080142
13064090029
13064096438
13064104861
13064113101
13064119265
13064126284
13064133914
13064143496
13064151736
13064158389
13064167422
13064173647
13064181094
13064187869
13064196719
13064203005
13064209597
13064216860
13064224306
13064232729
13064239626
13064245364
13064250796
13064257326
13064265200
13064269839
13064278567
13064284975
13064291689
13064297060
13064301943
13064305788
13064313906
13064317629
13064324831
13064331484
13064337709
13064343020
13064348818
13064353823
13064360964
13064365847
13064372194
13064377260
13064381411
13064388430
13064393984
13064401064
13064404909
13064411684
13064415102
13064424379
13064428530
13064436159
13064440859
13064447389
13064452516
13064459169
13064463686
13064468691
13064475343
13064480165
13064486635
13064491151
13064496523
13064502626
13064508485
13064511659
13064519106
13064524416
13064530946
13064536562
13064542421
13064548036
13064556154
13064563051
13064569642
13064579347
13064585634
13064593080
13064597902
13064608095
13064616517
13064623964
13064628297
13064637513
13064644044
13064653077
13064659913
13064669374
13064675477
13064683351
13064691896
13064699952
13064707215
13064714234
13064721559
13064726258
13064737000
13064741273
13064751771
13064758607
13064762635
13064768678
13064775453
13064779847
13064784852
13064790406
13064795289
13064800782
13064806336
13064812501
13064817323
13064820863
13064827576
13064831116
13064838929
13064843873
13064849366
13064856690
13064861634
13064865540
13064873292
13064878113
13064885132
13064889954
13064898499
13064903443
13064910889
13064915223
13064923523
13064929566
13064935303
13064940064
13064944886
13064949524
13064955750
13064960022
13064966980
13064971375
13064976929
13064982544
13064986878
13064992493
13064998047
13065003235
13065008789
13065015564
13065020447
13065025574
13065032349
13065038880
13065044068
13065053284
13065060974
13065069275
13065075989
13065084168
13065091309
13065098206
13065107544
13065116150
13065122925
13065131348
13065138061
13065146362
13065153259
13065158386
13065167663
13065175903
13065183594
13065191345
13065198669
13065205078
13065214477
13065221618
13065228271
13065237243
13065245361
13065252441
13065257995
13065262939
13065268737
13065273925
13065279357
13065285217
13065290710
13065295837
13065302917
13065309082
13065316101
13065321350
13065327148
13065332397
13065337280
13065341979
13065348266
13065351745
13065358825
13065361938
13065370239
13065373718
13065382751
13065387328
13065394042
13065397643
13065405090
13065408630
13065415038
13065421508
13065426696
13065432616
13065437316
13065443359
13065448669
13065452209
13065460082
13065465270
13065469604
13065475585
13065481505
13065487426
13065491942
13065497191
13065506713
13065509581
13065521178
13065527038
13065533995
13065541686
13065548339
13065551757
13065560790
13065566405
13065572203
13065578124
13065583068
13065587401
13065594359
13065599181
13065605162
13065611327
13065617308
13065623107
13065627989
13065633971
13065639281
13065645018
13065650023
13065655760
13065660155
13065667052
13065672484
13065678221
13065681456
13065689757
13065695189
13065702513
13065707457
13065713866
13065718687
13065725035
13065729307
13065735533
13065741331
13065746580
13065752806
13065754637
13065763365
13065769346
13065773985
13065781187
13065787901
13065792113
13065799925
13065804442
13065812803
13065818907
13065824400
13065830137
13065835997
13065840818
13065846739
13065855040
13065862303
13065867552
13065874449
13065879148
13065884703
13065891294
13065897764
13065903013
13065909483
13065916258
13065921873
13065926634
13065931883
13065937132
13065940916
13065950010
13065956480
13065962034
13065966856
13065974729
13065980161
13065985410
13065991514
13065996458
13066002378
13066007627
13066012327
13066020078
13066025632
13066030698
13066036985
13066042783
13066050046
13066055601
13066061155
13066066648
13066072446
13066077756
13066082456
13066089231
13066093747
13066099302
13066102659
13066111814
13066119199
13066123655
13066133909
13066142087
13066148374
13066153867
13066159421
13066167234
13066172055
13066179135
13066185178
13066191281
13066195981
13066202573
13066206723
13066211728
13066217649
13066223630
13066230344
13066236691
13066242124
13066248715
13066253903
13066259091
13066263242
13066268674
13066274167
13066280454
13066285153
13066291196
13066297726
13066302243
13066307797
13066312619
13066318173
13066323788
13066327939
13066333188
13066338376
13066342404
13066347775
13066352109
13066359311
13066364621
13066370541
13066375851
13066382870
13066387570
13066392941
13066398984
13066405392
13066411618
13066416806
13066423825
13066428463
13066433285
13066438656
13066442990
13066449704
13066455014
13066461056
13066466671
13066473019
13066477658
13066484127
13066489620
13066495846
13066502072
13066508236
13066512814
13066518368
13066523373
13066530514
13066536190
13066541439
13066547238
13066555538
13066561398
13066567318
13066572506
13066577206
13066583431
13066586971
13066594357
13066598568
13066605831
13066609676
13066615902
13066619381
13066626400
13066630245
13066636654
13066640682
13066648250
13066654903
13066659847
13066666378
13066672970
13066678768
13066687435
13066691646
13066699764
13066708736
13066715206
13066722957
13066728206
13066735897
13066741634
13066748958
13066755672
13066761287
13066765682
13066770565
13066776912
13066783016
13066787532
13066793636
13066797786
13066803279
13066809261
13066814998
13066819637
13066825313
13066829708
13066835445
13066839778
13066843135
13066851497
13066855098
13066863155
13066873287
13066882991
13066893367
13066898799
13066909053
13066912776
13066923152
13066930904
13066939082
13066946467
13066953303
13066962214
13066969600
13066978023
13066986262
13066992854
13066998958
13067002620
13067007625
13067012446
13067017512
13067021174
13067026301
13067031123
13067036799
13067040767
13067045588
13067049678
13067054683
13067058772
13067064753
13067067439
13067075984
13067081660
13067086848
13067091731
13067096308
13067101008
13067106990
13067112666
13067117915
13067122737
13067129206
13067131953
13067139216
13067143733
13067148127
13067153925
13067158625
13067163630
13067168635
13067173518
13067178706
13067182734
13067188166
13067194575
13067198725
13067203913
13067207880
13067213312
13067217524
13067222712
13067227351
13067234431
13067239680
13067245112
13067251032
13067258112
13067263483
13067270075
13067277704
13067285578
13067287531
13067297419
13067302546
13067308344
13067313105
13067319452
13067324152
13067329218
13067334223
13067338556
13067344172
13067349604
13067351435
13067360224
13067365961
13067369989
13067376398
13067380976
13067386347
13067391901
13067397882
13067403009
13067408869
13067413568
13067417475
13067424249
13067430048
13067435175
13067439874
13067445612
13067450922
13067456110
13067460870
13067467035
13067471063
13067478449
13067482538
13067488824
13067494073
13067500604
13067505182
13067510858
13067515924
13067521600
13067525568
13067532037
13067536859
13067542596
13067546930
13067554254
13067559137
13067565057
13067570733
13067575616
13067584833
13067591241
13067596063
13067600335
13067606622
13067610345
13067617547
13067620538
13067629022
13067633111
13067640680
13067646600
13067651483
13067656243
13067661615
13067666375
13067672967
13067678277
13067685052
13067691278
13067695062
13067701898
13067705987
13067712945
13067716241
13067723931
13067729058
13067736993
13067740594
13067747308
13067751458
13067758050
13067763848
13067770684
13067775384
13067782037
13067786248
13067792168
13067797845
13067802972
13067808709
13067813958
13067821587
13067829888
13067838555
13067847344
13067853448
13067861931
13067866936
13067873345
13067878350
13067882683
13067886956
13067892571
13067895196
13067901543
13067906548
13067913384
13067918877
13067923638
13067928215
13067934319
13067939568
13067946099
13067951897
13067956963
13067961235
13067966973
13067973259
13067978081
13067984978
13067990349
13067995903
13068000054
13068005547
13068010063
13068016106
13068021050
13068026482
13068031548
13068037407
13068042229
13068050713
13068054436
13068061333
13068068657
13068074455
13068077324
13068085381
13068088921
13068096062
13068101189
13068106926
13068113029
13068118339
13068122673
13068127556
13068134941
13068140800
13068145500
13068149101
13068156975
13068161064
13068167473
13068172050
13068179436
13068185356
13068191520
13068196281
13068202629
13068207634
13068213737
13068220268
13068225456
13068230705
13068235527
13068243034
13068248039
13068254203
13068259452
13068264579
13068269706
13068277030
13068281547
13068288078
13068294425
13068299613
13068304801
13068311088
13068315788
13068321891
13068327262
13068334648
13068339713
13068344901
13068352836
13068358695
13068364860
13068371391
13068376334
13068380851
13068390800
13068394889
13068402335
13068409598
13068414909
13068420585
13068428580
13068436393
13068443839
13068450553
13068456779
13068463309
13068468680
13068474051
13068479972
13068486991
13068493155
13068497550
13068505118
13068508109
13068513968
13068520377
13068525016
13068531974
13068536063
13068541800
13068546439
13068551871
13068557791
13068562613
13068569083
13068574515
13068578910
13068584281
13068589347
13068595328
13068600699
13068606986
13068611441
13068617117
13068620963
13068630179
13068635367
13068641470
13068646536
13068652823
13068657645
13068663626
13068670340
13068675101
13068680655
13068685904
13068690970
13068697562
13068703360
13068708426
13068715384
13068720633
13068725455
13068731802
13068736929
13068743155
13068747732
13068753103
13068760916
13068765799
13068773611
13068778067
13068785147
13068789724
13068795340
13068800650
13068807119
13068814200
13068819571
13068824148
13068831106
13068836660
13068842154
13068848013
13068856070
13068864004
13068869558
13068875051
13068882131
13068885305
13068891958
13068900503
13068906973
13068912161
13068919729
13068925405
13068930776
13068935232
13068941702
13068947439
13068956106
13068962392
13068966848
13068975393
13068979971
13068986562
13068991018
13068997610
13069003896
13069011587
13069017202
13069026296
13069031301
13069038930
13069045827
13069053213
13069057790
13069064687
13069067861
13069074819
13069079030
13069086110
13069092092
13069095693
13069102041
13069106130
13069112783
13069118459
13069124807
13069129567
13069133352
13069139638
13069143727
13069149587
13069153920
13069158620
13069165273
13069170827
13069176442
13069184255
13069187917
13069195607
13069198537
13069206166
13069213368
13069220082
13069226003
13069232594
13069236073
13069243153
13069247975
13069254506
13069259694
13069264638
13069269337
13069274403
13069278554
13069285329
13069290395
13069295583
13069301076
13069306996
13069312794
13069318593
13069324696
13069329823
13069335683
13069342213
13069347584
13069353932
13069358876
13069364857
13069370228
13069375477
13069382557
13069388844
13069395131
13069400258
13069405873
13069410695
13069416371
13069422535
13069428944
13069434620
13069440968
13069446461
13069450184
13069457997
13069463246
13069468983
13069473378
13069482289
13069486866
13069493397
13069499012
13069504627
13069508656
13069518604
13069525013
13069531178
13069534718
13069543690
13069552235
13069559681
13069566639
13069575672
13069581837
13069588184
13069594410
13069602405
13069609425
13069616016
13069620106
13069627064
13069632130
13069639576
13069645252
13069650562
13069654163
13069662098
13069665699
13069673633
13069677906
13069685535
13069689502
13069700061
13069703785
13069711048
13069717884
13069723194
13069728870
13069736133
13069740528
13069748157
13069754077
13069759998
13069765308
13069770557
13069776355
13069781604
13069787342
13069792896
13069798572
13069805713
13069812305
13069819263
13069823047
13069830554
13069834216
13069841907
13069846362
13069853503
13069861255
13069865833
13069871326
13069876636
13069882556
13069888416
13069894824
13069900989
13069907519
13069913928
13069919543
13069926562
13069931994
13069937244
13069942370
13069948108
13069954516
13069960315
13069964892
13069971118
13069975818
13069982531
13069987903
13069994738
13069999499
13070006579
13070011157
13070018420
13070022937
13070028857
13070035266
13070039538
13070050402
13070058459
13070063830
13070069018
13070076708
13070083789
13070089404
13070095568
13070100817
13070108569
13070112048
13070118517
13070125598
13070130602
13070137194
13070144335
13070150744
13070159472
13070165087
13070173327
13070179430
13070187060
13070194994
13070203661
13070209826
13070215075
13070221056
13070226488
13070231493
13070237841
13070244799
13070250902
13070255419
13070261950
13070267748
13070273058
13070279101
13070287401
13070293200
13070299852
13070307604
13070314867
13070319750
13070325914
13070332506
13070337999
13070343431
13070349596
13070354235
13070361559
13070367174
13070372301
13070377428
13070385790
13070390123
13070395555
13070400133
13070405504
13070410143
13070416490
13070421678
13070426683
13070432481
13070439256
13070443285
13070450975
13070454820
13070462083
13070466905
13070474229
13070479906
13070485216
13070490709
13070495958
13070501024
13070506761
13070513109
13070519578
13070525499
13070531297
13070537279
13070542833
13070549608
13070554918
13070561265
13070566697
13070571336
13070577867
13070582994
13070589280
13070596116
13070601854
13070609910
13070615770
13070620591
13070627183
13070631395
13070636338
13070642198
13070644029
13070653001
13070657518
13070662767
13070667832
13070673753
13070677354
13070683763
13070688340
13070693650
13070699754
13070706040
13070710557
13070716111
13070721177
13070727891
13070733933
13070745286
13070751756
13070760239
13070766221
13070774033
13070779527
13070785752
13070792893
13070799424
13070804795
13070810105
13070815049
13070820481
13070825669
13070831895
13070837998
13070843491
13070849961
13070854905
13070862107
13070867844
13070874985
13070880845
13070887742
13070891465
13070897629
13070903122
13070910813
13070916611
13070924179
13070929306
13070936447
13070940537
13070946884
13070951706
13070958908
13070963425
13070969223
13070976547
13070981674
13070986374
13070993881
13070998947
13071004929
13071010361
13071016098
13071022202
13071027817
13071034409
13071039536
13071044540
13071049789
13071054428
13071061630
13071067245
13071073410
13071078659
13071086533
13071091415
13071098862
13071104172
13071110824
13071118332
13071123642
13071128952
13071135483
13071140243
13071147079
13071152023
13071158859
13071164291
13071171127
13071178329
13071184128
13071188705
13071194442
13071199020
13071205063
13071212326
13071217575
13071224105
13071229965
13071237045
13071241989
13071248275
13071254684
13071262374
13071268417
13071273117
13071279403
13071286300
13071292282
13071298324
13071303268
13071308090
13071317916
13071323470
13071329635
13071336349
13071342025
13071348739
13071354781
13071365279
13071368453
13071376998
13071382369
13071389938
13071393233
13071400985
13071406722
13071414291
13071421126
13071428878
13071435531
13071441451
13071446883
13071453109
13071459578
13071465377
13071474044
13071479293
13071485213
13071490584
13071494857
13071501326
13071507796
13071513961
13071518111
13071524398
13071530257
13071534468
13071541060
13071548323
13071552718
13071558760
13071564620
13071569075
13071575301
13071579817
13071586959
13071594222
13071599104
13071605452
13071609908
13071616133
13071621810
13071623702
13071632796
13071639693
13071645735
13071650740
13071656722
13071661177
13071667891
13071671309
13071679304
13071686446
13071692366
13071697493
13071703535
13071708235
13071714705
13071720442
13071725142
13071732588
13071737532
13071743147
13071749373
13071753828
13071759993
13071763960
13071771284
13071776289
13071781660
13071787275
13071793135
13071797834
13071803633
13071809126
13071816267
13071822004
13071827009
13071832930
13071837873
13071844709
13071850630
13071855940
13071861616
13071868635
13071871992
13071879499
13071885420
13071891401
13071897993
13071906172
13071910688
13071920149
13071924421
13071933515
13071937605
13071945356
13071948469
13071956831
13071965376
13071970869
13071974287
13071980756
13071985700
13071992170
13071996992
13072004621
13072010541
13072017499
13072021039
13072027509
13072032636
13072039655
13072044599
13072049909
13072058027
13072063520
13072069440
13072074628
13072079511
13072084821
13072089093
13072096418
13072101239
13072108075
13072112592
13072119245
13072123517
13072129682
13072135968
13072141278
13072148114
13072153668
13072159772
13072164838
13072169232
13072176862
13072181317
13072187299
13072192182
13072199872
13072204267
13072210065
13072214398
13072221112
13072225507
13072231366
13072237286
13072243390
13072250165
13072254987
13072260663
13072266400
13072270978
13072276898
13072285260
13072291241
13072295453
13072303082
13072305768
13072314007
13072316937
13072325482
13072331952
13072337567
13072342877
13072348065
13072353009
13072359173
13072364666
13072370038
13072377423
13072382000
13072387555
13072394329
13072399395
13072406903
13072413983
13072421246
13072426251
13072432721
13072438885
13072444317
13072451153
13072457562
13072463787
13072470684
13072479046
13072485089
13072497051
13072502422
13072513409
13072521649
13072531658
13072541180
13072551495
13072559978
13072566326
13072576519
13072580425
13072589214
13072595562
13072603985
13072612591
13072621197
13072627788
13072635052
13072641399
13072648540
13072655437
13072662334
13072669841
13072677776
13072685527
13072691753
13072696148
13072707073
13072712261
13072721111
13072728435
13072735515
13072742778
13072752056
13072759197
13072766826
13072774517
13072779033
13072788555
13072795146
13072802837
13072816325
13072822917
13072831035
13072835918
13072844890
13072852214
13072859172
13072865459
13072873454
13072880473
13072890117
13072898784
13072907085
13072914531
13072923991
13072935710
13072947917
13072959880
13072967082
13072982402
13072991862
13073000041
13073011210
13073013713
13073026652
13073035441
13073044657
13073052775
13073060771
13073070902
13073078532
13073087077
13073092204
13073103556
13073110514
13073117289
13073125895
13073128214
13073139628
13073148844
13073158366
13073164591
13073173014
13073179240
13073186564
13073194987
13073205179
13073211893
13073216837
13073225443
13073231486
13073239115
13073247172
13073251871
13073262003
13073269449
13073277750
13073284281
13073291361
13073295389
13073304544
13073310892
13073319864
13073328470
13073337198
13073343851
13073351053
13073358621
13073363504
13073372476
13073380838
13073388956
13073400675
13073408975
13073418375
13073426187
13073432535
13073440836
13073448526
13073453958
13073461221
13073471414
13073476541
13073483011
13073489236
13073495096
13073499246
13073506143
13073510660
13073517435
13073521280
13073526712
13073531778
13073536966
13073540994
13073547403
13073552286
13073558755
13073563211
13073569986
13073575357
13073580301
13073585183
13073592447
13073595926
13073604226
13073607522
13073615396
13073621377
13073625772
13073631387
13073638406
13073643289
13073649758
13073652871
13073659524
13073664834
13073670693
13073676675
13073683145
13073688149
13073695107
13073698464
13073706704
13073712441
13073718362
13073721780
13073728982
13073735391
13073741799
13073747781
13073752419
13073758096
13073763100
13073767983
13073775002
13073783364
13073789773
13073793984
13073800210
13073803689
13073811135
13073814431
13073822671
13073828103
13073834389
13073840066
13073847695
13073852517
13073858071
13073863381
13073870461
13073876198
13073880959
13073887062
13073894631
13073901223
13073906289
13073911599
13073918007
13073924233
13073929238
13073935097
13073941384
13073946083
13073952065
13073958046
13073963051
13073969765
13073977333
13073982643
13073990212
13073995400
13074001625
13074009194
13074014504
13074022621
13074027260
13074034523
13074041176
13074045631
13074051796
13074057411
13074063393
13074069618
13074073219
13074080971
13074086830
13074092079
13074098122
13074103248
13074110023
13074116920
13074120338
13074127052
13074131996
13074138771
13074144142
13074149269
13074155067
13074162208
13074167396
13074172523
13074177650
13074184486
13074189369
13074196632
13074202369
13074209510
13074215431
13074219825
13074224830
13074232276
13074237709
13074242836
13074248939
13074255897
13074259254
13074266456
13074269508
13074278236
13074281349
13074288307
13074295143
13074300575
13074305335
13074311866
13074316749
13074322791
13074327186
13074333900
13074339210
13074347755
13074353431
13074358741
13074363807
13074370521
13074375709
13074382300
13074390540
13074400611
13074405555
13074414832
13074421912
13074430518
13074437781
13074445105
13074452918
13074457251
13074462867
13074466651
13074471900
13074476233
13074481055
13074486670
13074490943
13074495581
13074499671
13074504981
13074509558
13074514441
13074520667
13074526099
13074531104
13074535987
13074540564
13074546057
13074553504
13074556800
13074566199
13074571387
13074577368
13074582312
13074587744
13074592749
13074597449
13074602515
13074607642
13074612525
13074616187
13074621253
13074625708
13074629981
13074635657
13074640723
13074645361
13074649878
13074654822
13074660010
13074665320
13074669714
13074676184
13074680334
13074686438
13074690649
13074696814
13074700903
13074707007
13074714270
13074719336
13074723425
13074732031
13074736853
13074743689
13074750647
13074758215
13074765112
13074770605
13074775732
13074780188
13074785193
13074790503
13074794897
13074801794
13074808203
13074812658
13074817724
13074823156
13074828161
13074833349
13074839025
13074844824
13074851110
13074855505
13074860815
13074866430
13074871069
13074876745
13074881811
13074886999
13074894628
13074899999
13074905920
13074909948
13074915685
13074921423
13074926794
13074931738
13074938512
13074942968
13074949438
13074953405
13074960302
13074968114
13074973730
13074979101
13074985876
13074989477
13074996618
13075002355
13075007482
13075012426
13075018468
13075024206
13075031591
13075037145
13075042211
13075047033
13075052953
13075057897
13075065526
13075072484
13075078038
13075081823
13075091405
13075094823
13075103612
13075107152
13075117284
13075126134
13075131627
13075134923
13075143468
13075148717
13075153356
13075159032
13075164098
13075170384
13075176854
13075179906
13075187230
13075192784
13075198094
13075202611
13075209081
13075216283
13075220555
13075225377
13075231603
13075238133
13075242894
13075249364
13075254124
13075260350
13075266637
13075272374
13075278172
13075282201
13075288731
13075294774
13075299534
13075303258
13075311680
13075315526
13075322667
13075326085
13075334019
13075337315
13075344945
13075351597
13075358189
13075363194
13075370457
13075377842
13075382603
13075390232
13075395237
13075401585
13075408177
13075414280
13075419163
13075426548
13075430882
13075437779
13075443760
13075451390
13075456211
13075462925
13075467747
13075471226
13075480747
13075486973
13075493443
13075500157
13075504917
13075510593
13075516331
13075522007
13075528111
13075533360
13075551914
13075557285
13075564793
13075570408
13075576633
13075581577
13075587986
13075592502
13075598911
13075604526
13075608982
13075615757
13075620395
13075625644
13075631931
13075639255
13075644199
13075650486
13075654026
13075660862
13075664707
13075674839
13075684055
13075689670
13075695591
13075701755
13075709262
13075712986
13075721469
13075726840
13075732028
13075737400
13075742649
13075747837
13075753940
13075759189
13075765903
13075771518
13075778720
13075783237
13075789340
13075794040
13075800449
13075807224
13075811740
13075817905
13075823215
13075829807
13075835788
13075840488
13075846164
13075852145
13075856601
13075864108
13075869052
13075875766
13075881442
13075887179
13075893466
13075898044
13075901034
13075908481
13075914279
13075921908
13075928012
13075933444
13075939486
13075945773
13075950778
13075957431
13075963351
13075969760
13075974398
13075980929
13075985995
13075992831
13075997775
13076004550
13076009188
13076015048
13076019381
13076025424
13076032260
13076036898
13076043734
13076049594
13076055209
13076062899
13076068636
13076076815
13076082308
13076088351
13076093112
13076098849
13076104891
13076110262
13076116854
13076123019
13076128146
13076134921
13076141695
13076146944
13076153902
13076159151
13076166720
13076173006
13076179049
13076184298
13076193270
13076200472
13076208468
13076218050
13076226290
13076235750
13076242220
13076252718
13076257418
13076267855
13076271029
13076281343
13076291414
13076299044
13076308077
13076317415
13076326631
13076336702
13076345186
13076351717
13076363375
13076374300
13076383638
13076391878
13076401460
13076408601
13076412752
13076423555
13076430208
13076435823
13076446016
13076454011
13076461397
13076468355
13076475740
13076482454
13076489839
13076496065
13076504365
13076511812
13076521455
13076528047
13076532869
13076542817
13076547395
13076557588
13076565278
13076572541
13076581330
13076590669
13076598481
13076603974
13076612886
13076619355
13076628144
13076634919
13076642243
13076650117
13076660737
13076667939
13076675263
13076683259
13076689973
13076698518
13076705109
13076711701
13076719331
13076729951
13076736909
13076743745
13076750275
13076756684
13076763276
13076772614
13076779999
13076787202
13076795807
13076803681
13076810822
13076817963
13076824128
13076832245
13076841095
13076844025
13076856659
13076863739
13076871552
13076877472
13076886261
13076892792
13076900666
13076907013
13076915314
13076921906
13076930512
13076937287
13076945465
13076952545
13076959503
13076965180
13076973297
13076979401
13076986542
13076997284
13077004181
13077009308
13077018463
13077025299
13077031586
13077039947
13077046905
13077053619
13077061737
13077068451
13077076935
13077084320
13077088837
13077098236
13077105194
13077113434
13077120453
13077135467
13077144012
13077149505
13077156524
13077162628
13077170807
13077178924
13077186309
13077195526
13077204986
13077212249
13077221954
13077228668
13077236297
13077242584
13077250335
13077256500
13077264068
13077271209
13077273956
13077281768
13077286712
13077293914
13077296966
13077305267
13077312469
13077317840
13077322967
13077333465
13077339812
13077345061
13077352142
13077357391
13077363982
13077368804
13077374847
13077379912
13077384734
13077392669
13077398711
13077404693
13077410552
13077417083
13077422454
13077428618
13077431914
13077439238
13077445281
13077450530
13077457183
13077462493
13077468230
13077473235
13077478118
13077483794
13077488250
13077496123
13077501982
13077509612
13077513152
13077523833
13077530059
13077536528
13077546233
13077553069
13077556853
13077565398
13077569243
13077575102
13077581755
13077588835
13077592131
13077599455
13077603789
13077609892
13077613676
13077620451
13077625456
13077632231
13077638274
13077644255
13077651640
13077657988
13077664458
13077670561
13077676726
13077683012
13077687956
13077692473
13077699980
13077705351
13077709868
13077718229
13077722868
13077727629
13077733427
13077739348
13077746794
13077752287
13077756804
13077762053
13077766752
13077771330
13077778227
13077783415
13077788359
13077794218
13077799223
13077806059
13077813871
13077822172
13077828764
13077834013
13077843839
13077849821
13077856108
13077861784
13077866667
13077873258
13077879240
13077883756
13077888822
13077893949
13077898771
13077902982
13077908720
13077913908
13077918302
13077924345
13077931364
13077936002
13077942289
13077946928
13077952299
13077959684
13077967802
13077971769
13077977384
13077982450
13077986600
13077991971
13077996732
13078001371
13078008207
13078015043
13078020109
13078027006
13078032316
13078038114
13078042936
13078049466
13078055265
13078061856
13078066373
13078072538
13078077420
13078083951
13078089139
13078093656
13078099393
13078105619
13078111051
13078117581
13078122525
13078128079
13078134183
13078140531
13078146329
13078151578
13078155240
13078162259
13078167264
13078171781
13078176358
13078181729
13078185635
13078192288
13078197232
13078203458
13078207242
13078214261
13078217862
13078225308
13078232083
13078238553
13078243497
13078250149
13078255582
13078263577
13078268948
13078276517
13078282620
13078289639
13078294461
13078300564
13078305081
13078311429
13078318387
13078322110
13078329495
13078335476
13078341092
13078346890
13078352627
13078356289
13078364529
13078368252
13078376980
13078382046
13078390408
13078401638
13078407315
13078412380
13078420620
13078426480
13078432522
13078437100
13078443020
13078448086
13078454189
13078460842
13078466824
13078473721
13078478359
13078485256
13078491604
13078498196
13078504177
13078510708
13078516384
13078522671
13078527370
13078532864
13078538235
13078542751
13078548733
13078553860
13078560512
13078565822
13078572842
13078578152
13078583889
13078589199
13078595669
13078601406
13078606228
13078612880
13078617824
13078623256
13078629726
13078636501
13078641811
13078647609
13078653835
13078657070
13078664577
13078670742
13078676967
13078682521
13078688564
13078693203
13078700283
13078705043
13078709804
13078718166
13078724086
13078729762
13078735805
13078741115
13078744289
13078753200
13078756496
13078763759
13078771571
13078776698
13078781764
13078787135
13078792018
13078799342
13078803920
13078809535
13078816432
13078821498
13078827052
13078834560
13078839503
13078843410
13078852504
13078858058
13078864223
13078869472
13078876308
13078879909
13078887599
13078893031
13078900111
13078905360
13078913478
13078920558
13078927089
13078933803
13078938380
13078948695
13078953883
13078962489
13078970424
13078977137
13078985865
13078994960
13079003504
13079011622
13079020106
13079030604
13079036402
13079049708
13079058314
13079062342
13079075221
13079083094
13079095301
13079106226
13079113245
13079123072
13079127955
13079139613
13079146143
13079152613
13079160975
13079166651
13079178126
13079183130
13079193873
13079200525
13079206812
13079214075
13079216517
13079226465
13079233118
13079238123
13079244227
13079249781
13079254786
13079261805
13079266748
13079274317
13079282495
13079288477
13079293421
13079299097
13079306055
13079312281
13079317163
13079322962
13079329187
13079335047
13079342737
13079346155
13079354334
13079359400
13079365869
13079370569
13079378442
13079383386
13079389124
13079395410
13079402185
13079407129
13079412134
13079419153
13079423425
13079431848
13079435937
13079443628
13079448877
13079455347
13079459009
13079467493
13079472131
13079478052
13079484521
13079490259
13079497400
13079502771
13079509851
13079515405
13079521386
13079525781
13079533410
13079538903
13079544153
13079547326
13079555139
13079560510
13079567773
13079572412
13079578698
13079584619
13079591821
13079597253
13079604272
13079610559
13079615258
13079622705
13079626855
13079636010
13079641870
13079647912
13079654687
13079660729
13079666833
13079673058
13079681115
13079688439
13079693078
13079701684
13079707970
13079716637
13079723717
13079728722
13079740502
13079749840
13079758874
13079769433
13079773339
13079787011
13079797265
13079810875
13079819664
13079829613
13079838097
13079848229
13079857994
13079863732
13079875512
13079883080
13079889794
13079898644
13079903343
13079913414
13079920006
13079927513
13079936669
13079942955
13079949181
13079955712
13079960899
13079968651
13079973656
13079983543
13079992638
13079997826
13080002831
13080009666
13080014732
13080020714
13080025230
13080031822
13080038292
13080045921
13080051048
13080057274
13080062157
13080067283
13080073265
13080078880
13080084678
13080090172
13080096519
13080100975
13080107017
13080112755
13080119285
13080124046
13080130455
13080136375
13080143272
13080147728
13080153648
13080159507
13080165245
13080170188
13080176597
13080183311
13080188194
13080195396
13080199913
13080206687
13080211082
13080217613
13080222984
13080228538
13080234641
13080240440
13080246299
13080251609
13080257469
13080262595
13080269737
13080274619
13080281150
13080287071
13080293235
13080299522
13080304649
13080311607
13080319236
13080327109
13080333335
13080341758
13080349326
13080356223
13080365500
13080369407
13080381675
13080393271
13080400779
13080408408
13080415427
13080423484
13080431968
13080438865
13080448142
13080456504
13080463584
13080473716
13080481101
13080490378
13080496848
13080508506
13080513571
13080524191
13080534140
13080541770
13080551962
13080554831
13080566855
13080573081
13080579123
13080585898
13080591940
13080598227
13080604819
13080608420
13080617514
13080623923
13080629782
13080634238
13080643088
13080647604
13080655173
13080660361
13080665549
13080671286
13080678427
13080684714
13080690329
13080695028
13080699972
13080706930
13080711569
13080718100
13080724142
13080729208
13080735373
13080742025
13080745993
13080752707
13080758200
13080764425
13080771322
13080776449
13080779867
13080787924
13080794393
13080801229
13080806112
13080812765
13080819845
13080824667
13080831930
13080837362
13080842184
13080846945
13080853353
13080854879
13080864706
13080870138
13080876913
13080880880
13080887045
13080893331
13080900533
13080905050
13080911398
13080917196
13080924825
13080929586
13080934957
13080940206
13080946249
13080950704
13080955831
13080963582
13080969686
13080974325
13080978170
13080985982
13080992818
13080998128
13081001607
13081009603
13081014486
13081021505
13081025594
13081033834
13081039754
13081045919
13081051290
13081057332
13081062520
13081069234
13081075643
13081081380
13081086934
13081095845
13081101705
13081109456
13081113912
13081124349
13081131612
13081141499
13081153157
13081159444
13081170491
13081176961
13081190633
13081199117
13081205159
13081214619
13081220723
13081233540
13081241353
13081250264
13081259663
13081264729
13081274617
13081276875
13081288533
13081294270
13081302876
13081309224
13081316182
13081320881
13081326558
13081333455
13081338887
13081345295
13081351765
13081357258
13081364582
13081370076
13081376240
13081381916
13081386860
13081393269
13081398823
13081405110
13081411762
13081417011
13081423908
13081430561
13081436482
13081444538
13081449482
13081456196
13081463276
13081466999
13081476276
13081480061
13081488483
13081492329
13081500874
13081504597
13081511372
13081517231
13081524189
13081529804
13081535175
13081540180
13081547443
13081552814
13081558002
13081563801
13081571430
13081575031
13081583759
13081587360
13081596027
13081599506
13081606464
13081612385
13081619648
13081623127
13081631183
13081634723
13081641132
13081646015
13081652607
13081661151
13081666339
13081672077
13081677265
13081682270
13081688556
13081693866
13081700702
13081706073
13081713031
13081718707
13081723712
13081728595
13081735065
13081740314
13081746356
13081751911
13081760577
13081763507
13081772052
13081775409
13081782855
13081787677
13081793781
13081799152
13081805682
13081810687
13081816547
13081824603
13081830096
13081835834
13081843036
13081850787
13081857013
13081861957
13081870318
13081879657
13081886798
13081889667
13081899920
13081903949
13081910235
13081916217
13081921771
13081925311
13081931109
13081936236
13081942340
13081947772
13081951983
13081956988
13081963702
13081966571
13081976519
13081982318
13081988909
13081994342
13081999530
13082002520
13082011492
13082014971
13082022723
13082027728
13082032733
13082037798
13082042986
13082049883
13082055193
13082059771
13082066790
13082071063
13082076617
13082084856
13082089861
13082094744
13082101580
13082106097
13082112627
13082118487
13082123797
13082129900
13082136309
13082141131
13082147112
13082153033
13082159014
13082163286
13082169512
13082176714
13082183001
13082187273
13082193743
13082198259
13082204790
13082209551
13082213091
13082221392
13082228167
13082233171
13082237932
13082244646
13082249224
13082255877
13082261675
13082266314
13082272783
13082279802
13082285234
13082289690
13082295549
13082301348
13082307146
13082313799
13082318682
13082326067
13082328020
13082336443
13082342790
13082348894
13082352861
13082359514
13082365251
13082371599
13082377641
13082384233
13082390031
13082397478
13082403825
13082411821
13082422502
13082430925
13082439226
13082448747
13082454362
13082467485
13082472856
13082483049
13082492265
13082501542
13082508317
13082516740
13082522844
13082526933
13082536515
13082542863
13082550370
13082560441
13082568681
13082574296
13082579789
13082587846
13082592851
13082601457
13082608720
13082615251
13082620866
13082627274
13082634782
13082639665
13082645219
13082651139
13082657365
13082662248
13082669145
13082673905
13082680802
13082688432
13082695512
13082701188
13082709977
13082714127
13082723527
13082728898
13082735917
13082740006
13082748429
13082752396
13082759720
13082767167
13082774796
13082779740
13082785355
13082790848
13082798478
13082801590
13082809769
13082818680
13082824723
13082830338
13082835587
13082842484
13082847916
13082852738
13082859330
13082866349
13082872574
13082877152
13082883621
13082890213
13082897049
13082901932
13082907974
13082916702
13082922440
13082929581
13082935257
13082940201
13082946732
13082954056
13082959915
13082965591
13082973160
13082978287
13082984940
13082989761
13082994400
13083000442
13083007095
13083013321
13083021561
13083027115
13083034256
13083039688
13083047439
13083053238
13083057754
13083068558
13083073929
13083084305
13083091995
13083097976
13083107681
13083117752
13083128128
13083137832
13083147110
13083158157
13083165298
13083177139
13083185745
13083193984
13083202285
13083210220
13083216018
13083230361
13083237136
13083244888
13083254287
13083259719
13083267593
13083272292
13083283889
13083292739
13083301162
13083309035
13083321365
13083326614
13083337539
13083348342
13083354812
13083364272
13083373366
13083378188
13083390883
13083395827
13083405410
13083412856
13083420607
13083427565
13083435744
13083442397
13083449538
13083458083
13083465529
13083472548
13083479994
13083492995
13083499404
13083515395
13083522048
13083534621
13083542494
13083549635
13083556166
13083560561
13083568190
13083573683
13083580153
13083585402
13083590956
13083595595
13083601698
13083606276
13083612624
13083617262
13083622206
13083625197
13083631727
13083635939
13083640639
13083646132
13083651930
13083658522
13083664503
13083669752
13083674452
13083679701
13083685255
13083690138
13083695753
13083701552
13083706862
13083711866
13083718092
13083722609
13083729383
13083733412
13083738356
13083745314
13083751051
13083755384
13083760878
13083765638
13083771620
13083776808
13083781385
13083786024
13083792677
13083798780
13083804273
13083809400
13083814161
13083818495
13083824842
13083829908
13083839308
13083845838
13083858045
13083863660
13083870313
13083877454
13083883436
13083889356
13083896192
13083900526
13083907239
13083912550
13083917554
13083923841
13083929944
13083934827
13083940076
13083944166
13083949842
13083952894
13083960523
13083966016
13083971876
13083977308
13083981519
13083987745
13083992994
13083998548
13084003064
13084009473
13084015332
13084020215
13084025586
13084030408
13084035901
13084041516
13084048108
13084053357
13084059217
13084065320
13084069287
13084074658
13084080091
13084087415
13084094739
13084100904
13084104444
13084111585
13084117993
13084123670
13084130506
13084136609
13084143506
13084147900
13084153943
13084158948
13084166455
13084173169
13084179883
13084185620
13084190564
13084195020
13084202710
13084207776
13084214123
13084219556
13084226819
13084232129
13084237683
13084242749
13084247998
13084253064
13084257397
13084262524
13084268933
13084275464
13084279858
13084286206
13084290173
13084297009
13084301342
13084308423
13084314465
13084322827
13084326733
13084339123
13084343518
13084348706
13084354382
13084359631
13084366101
13084371960
13084378430
13084383801
13084389904
13084397778
13084403210
13084412121
13084417370
13084427624
13084434399
13084443249
13084447643
13084453259
13084459057
13084467602
13084472057
13084478222
13084482616
13084487926
13084493481
13084497997
13084504162
13084510021
13084514965
13084521557
13084525463
13084530590
13084536449
13084542126
13084548046
13084554882
13084560375
13084565258
13084570324
13084577770
13084581127
13084586925
13084593151
13084598705
13084604870
13084609691
13084612865
13084621410
13084624645
13084631054
13084638378
13084643566
13084649486
13084655101
13084659740
13084665294
13084671459
13084676158
13084681224
13084688365
13084691722
13084698985
13084704479
13084708751
13084714549
13084721813
13084727184
13084734142
13084739330
13084744945
13084750072
13084754527
13084759776
13084766551
13084770946
13084776805
13084783885
13084790599
13084795238
13084802318
13084807994
13084813426
13084817821
13084822703
13084830943
13084836497
13084842357
13084848033
13084855479
13084862681
13084867015
13084874949
13084877452
13084885142
13084888194
13084899730
13084904551
13084911265
13084917186
13084924022
13084929393
13084935496
13084942088
13084948436
13084953685
13084958995
13084964732
13084968760
13084978343
13084982859
13084990855
13084996653
13085002452
13085008006
13085014292
13085022898
13085031260
13085036082
13085041148
13085047434
13085052927
13085059153
13085063364
13085068674
13085075510
13085080698
13085087412
13085092051
13085098521
13085103648
13085110361
13085115855
13085122385
13085127573
13085134287
13085139048
13085144480
13085150278
13085156077
13085161448
13085166880
13085173044
13085177927
13085184824
13085190195
13085196238
13085202341
13085206980
13085215097
13085222055
13085227854
13085233042
13085238352
13085244455
13085250681
13085253916
13085260813
13085266062
13085272959
13085277658
13085284311
13085289377
13085295297
13085302011
13085304270
13085313364
13085318552
13085324411
13085328378
13085335520
13085340585
13085346750
13085352426
13085358225
13085365060
13085371713
13085376413
13085382089
13085387338
13085393076
13085399545
13085404550
13085411203
13085420419
13085427316
13085434396
13085439157
13085444650
13085449777
13085456430
13085461679
13085469003
13085474008
13085477304
13085484811
13085487741
13085496530
13085499398
13085506662
13085514657
13085521737
13085526620
13085531991
13085537240
13085544442
13085548837
13085555673
13085563302
13085569772
13085575936
13085580697
13085590341
13085595162
13085604074
13085609506
13085618356
13085622445
13085632272
13085638924
13085643807
13085649056
13085655770
13085661324
13085668038
13085671883
13085678109
13085682687
13085688424
13085694466
13085698922
13085705575
13085710152
13085717232
13085720772
13085728707
13085732247
13085738473
13085743722
13085749398
13085754586
13085761117
13085765938
13085773812
13085778084
13085782784
13085789193
13085794808
13085800606
13085808052
13085814888
13085819954
13085824654
13085831002
13085835396
13085838204
13085846077
13085852547
13085860421
13085863228
13085870613
13085875923
13085880623
13085886971
13085892098
13085899605
13085906075
13085911446
13085916451
13085922127
13085928169
13085932808
13085936287
13085943977
13085950142
13085955025
13085961800
13085967049
13085970039
13085979439
13085982857
13085991219
13085999031
13086005196
13086010933
13086015571
13086023506
13086030220
13086036140
13086041939
13086048591
13086053047
13086060310
13086066108
13086072151
13086078254
13086085273
13086090400
13086095771
13086102729
13086108284
13086113411
13086119880
13086125190
13086129219
13086136482
13086140449
13086147041
13086152351
13086158699
13086161994
13086170295
13086174934
13086181037
13086186164
13086193366
13086202583
13086211372
13086220039
13086224922
13086229377
13086238838
13086245124
13086252448
13086258674
13086265815
13086270698
13086277656
13086283332
13086288764
13086296088
13086301032
13086304999
13086313361
13086317817
13086323127
13086329780
13086335212
13086338874
13086346930
13086351325
13086357978
13086363715
13086369025
13086375251
13086383002
13086396308
13086414862
13086424262
13086433966
13086440619
13086447943
13086455085
13086462714
13086471076
13086477240
13086481696
13086487067
13086491583
13086496344
13086500678
13086505438
13086510809
13086516058
13086519843
13086525763
13086529425
13086534918
13086540167
13086545294
13086550787
13086557440
13086561469
13086567206
13086570502
13086576239
13086580634
13086587530
13086593329
13086598334
13086603216
13086610174
13086615240
13086620245
13086626898
13086634833
13086642645
13086647711
13086653692
13086658453
13086662970
13086667791
13086671820
13086678167
13086683783
13086689703
13086695868
13086700933
13086706610
13086711370
13086717474
13086722601
13086726995
13086734076
13086740240
13086746405
13086751593
13086757818
13086762091
13086768072
13086774725
13086781744
13086786444
13086793218
13086797918
13086806036
13086815191
13086819708
13086826116
