13153241229
13153245746
13153250080
13153253497
13153256610
13153260211
13153263629
13153268146
13153272357
13153277118
13153282123
13153286334
13153290363
13153295429
13153300739
13153305560
13153310199
13153314288
13153319904
13153325275
13153330829
13153336505
13153341937
13153346637
13153355304
13153361713
13153368915
13153375812
13153381549
13153386615
13153395709
13153402240
13153409991
13153417193
13153425311
13153430255
13153439593
13153446368
13153452472
13153462603
13153470233
13153477435
13153486529
13153494647
13153502093
13153508502
13153515094
13153522357
13153529193
13153535174
13153541949
13153547259
13153555194
13153559039
13153568072
13153576006
13153583331
13153591143
13153597857
13153604510
13153610735
13153620257
13153626665
13153633990
13153640581
13153646258
13153653460
13153659991
13153664812
13153672564
13153676592
13153682207
13153687945
13153692522
13153696245
13153700152
13153707720
13153712420
13153718645
13153726885
13153730486
13153736467
13153740374
13153745928
13153751543
13153754900
13153759661
13153765276
13153769548
13153773577
13153779619
13153785295
13153788958
13153794451
13153798906
13153802263
13153806475
13153811113
13153816301
13153820635
13153825518
13153829851
13153834368
13153838640
13153842729
13153847185
13153852556
13153855974
13153860124
13153864458
13153868425
13153871843
13153877092
13153882951
13153888628
13153895647
13153902177
13153909502
13153916154
13153923845
13153929948
13153936540
13153943925
13153949663
13153955949
13153959917
13153973222
13153979692
13153986040
13153993364
13153999956
13154007158
13154012651
13154022538
13154029252
13154036454
13154042070
13154049638
13154057695
13154064958
13154069535
13154077958
13154082048
13154091020
13154097612
13154103166
13154108049
13154113786
13154118486
13154122453
13154127214
13154130998
13154136613
13154139543
13154146012
13154151689
13154157487
13154162797
13154166520
13154172379
13154177201
13154183244
13154187638
13154194901
13154202287
13154207658
13154212846
13154219315
13154224870
13154229447
13154237626
13154241959
13154246659
13154252396
13154256913
13154262894
13154267777
13154272111
13154279557
13154283768
13154290482
13154295243
13154301224
13154305924
13154311234
13154316300
13154325821
13154330887
13154340531
13154348038
13154355240
13154362809
13154371354
13154378617
13154386734
13154393570
13154399857
13154408585
13154416031
13154422684
13154431351
13154437760
13154446976
13154453201
13154461502
13154467728
13154476944
13154485794
13154491837
13154500198
13154511124
13154517349
13154523697
13154530472
13154536819
13154542313
13154547806
13154552994
13154558670
13154562210
13154570083
13154573807
13154583450
13154585220
13154593765
13154600113
13154605667
13154611953
13154616836
13154623489
13154628311
13154635147
13154640274
13154648819
13154654800
13154663101
13154668655
13154674453
13154681167
13154687393
13154692825
13154703079
13154706192
13154714920
13154720474
13154724929
13154728408
13154735977
13154743301
13154748855
13154753494
13154759109
13154764053
13154769851
13154774795
13154780654
13154785720
13154791579
13154796890
13154801772
13154808669
13154816970
13154823989
13154830825
13154838821
13154846023
13154851821
13154858718
13154866958
13154874221
13154882522
13154889113
13154898330
13154904677
13154914931
13154921889
13154928725
13154935317
13154945449
13154951918
13154960158
13154968398
13154976149
13154985183
13154992263
13155000624
13155005812
13155011244
13155017897
13155024489
13155028517
13155034011
13155040907
13155046462
13155053359
13155057204
13155064589
13155070082
13155074721
13155080641
13155087111
13155091444
13155096877
13155106825
13155111830
13155118666
13155123976
13155131178
13155134779
13155141737
13155147963
13155154066
13155159437
13155165114
13155169142
13155175978
13155181532
13155187269
13155191115
13155199415
13155205397
13155211805
13155215101
13155223768
13155229261
13155234816
13155236830
13155245375
13155249647
13155258009
13155265516
13155269728
13155278517
13155283400
13155293470
13155302503
13155309400
13155319654
13155327223
13155335829
13155343397
13155352491
13155357374
13155367262
13155372144
13155381605
13155389417
13155397657
13155406324
13155413160
13155420362
13155428541
13155436292
13155445203
13155452222
13155460340
13155467298
13155474561
13155483533
13155489210
13155493848
13155500867
13155504346
13155511487
13155518750
13155525098
13155530286
13155534742
13155541517
13155546460
13155552747
13155558545
13155566419
13155570935
13155579297
13155586072
13155592542
13155594739
13155604016
13155610120
13155614942
13155622022
13155627088
13155632092
13155639661
13155645154
13155651807
13155657605
13155663831
13155669873
13155675183
13155681287
13155686536
13155691907
13155697400
13155704541
13155708813
13155716382
13155722668
13155727917
13155735669
13155741040
13155745251
13155755139
13155761426
13155767163
13155774914
13155785290
13155792920
13155801709
13155810071
13155817029
13155822339
13155834912
13155840344
13155850903
13155856396
13155867688
13155873608
13155885632
13155894543
13155900769
13155907971
13155917492
13155923474
13155933544
13155941723
13155948376
13155957714
13155965405
13155972851
13155980236
13155987072
13155996105
13156004162
13156010693
13156017162
13156023022
13156030041
13156035534
13156043041
13156048046
13156052746
13156060314
13156066295
13156072643
13156077343
13156084240
13156088756
13156094921
13156099682
13156105541
13156112499
13156118419
13156123729
13156131054
13156137096
13156142406
13156148693
13156156383
13156161205
13156167430
13156172741
13156179576
13156184581
13156190441
13156194896
13156203014
13156208202
13156213878
13156218639
13156224864
13156229381
13156236583
13156241710
13156249095
13156255748
13156261363
13156266490
13156272533
13156277355
13156283580
13156288280
13156297557
13156307445
13156313548
13156322337
13156330821
13156337230
13156346385
13156354930
13156358287
13156370677
13156377330
13156386485
13156391429
13156402354
13156410533
13156419078
13156424022
13156435069
13156442332
13156451854
13156459300
13156466258
13156472850
13156480784
13156487681
13156496287
13156502513
13156509165
13156515330
13156521006
13156525340
13156530894
13156537791
13156543894
13156548777
13156554637
13156560923
13156566966
13156574717
13156578623
13156585825
13156593211
13156600596
13156606944
13156611826
13156618479
13156625437
13156633738
13156639109
13156646921
13156652231
13156656626
13156664561
13156670725
13156675791
13156682749
13156688425
13156693857
13156699717
13156705271
13156710642
13156714609
13156719919
13156726023
13156731577
13156736643
13156741953
13156746347
13156751596
13156754648
13156762400
13156767466
13156773691
13156780405
13156785227
13156793466
13156801462
13156808115
13156815988
13156821054
13156832163
13156840341
13156848764
13156857919
13156864694
13156872690
13156879831
13156889291
13156897287
13156906931
13156914255
13156922250
13156929758
13156937997
13156946237
13156952646
13156962655
13156968698
13156976938
13156983957
13156988778
13156995981
13157003976
13157007943
13157015146
13157021310
13157025949
13157033029
13157037545
13157045358
13157050180
13157057260
13157062570
13157069284
13157074288
13157080819
13157086068
13157092233
13157097604
13157103829
13157108590
13157115243
13157120370
13157126046
13157131600
13157137521
13157142709
13157148568
13157154427
13157162301
13157166329
13157175546
13157179513
13157187997
13157191659
13157199715
13157205514
13157211739
13157217416
13157222543
13157230904
13157236947
13157243355
13157250374
13157256539
13157262154
13157269784
13157276253
13157285286
13157293587
13157301217
13157309517
13157316658
13157322945
13157332161
13157338936
13157348458
13157355416
13157363533
13157370491
13157378121
13157385811
13157393318
13157399605
13157409737
13157416512
13157423348
13157431343
13157437142
13157445137
13157452278
13157459358
13157467110
13157472481
13157479683
13157483040
13157491280
13157497139
13157502205
13157508553
13157514717
13157519478
13157524239
13157529915
13157534859
13157542061
13157546150
13157553535
13157559273
13157565864
13157571724
13157577461
13157583015
13157588508
13157594307
13157598640
13157605110
13157610298
13157617256
13157622932
13157627449
13157633064
13157641121
13157645942
13157652229
13157658516
13157663337
13157669807
13157674568
13157682136
13157686836
13157692512
13157698677
13157703559
13157710700
13157718086
13157723396
13157731452
13157737007
13157743415
13157748359
13157757514
13157764350
13157773505
13157780952
13157792304
13157798835
13157807502
13157813666
13157822089
13157830512
13157837226
13157845161
13157852912
13157861152
13157868110
13157876838
13157883979
13157893073
13157900824
13157910163
13157916938
13157925483
13157931769
13157941901
13157948249
13157956855
13157964545
13157970343
13157978522
13157982672
13157988776
13157993109
13157998786
13158004889
13158009955
13158015875
13158022345
13158027350
13158032843
13158037726
13158044501
13158049872
13158054205
13158061041
13158067694
13158073126
13158078741
13158083624
13158090155
13158096014
13158100775
13158107001
13158113104
13158117316
13158123236
13158128668
13158133551
13158138922
13158144476
13158154120
13158159430
13158165472
13158169501
13158177679
13158183783
13158190680
13158198553
13158206061
13158212530
13158219366
13158225103
13158231878
13158238409
13158244452
13158251287
13158265570
13158272955
13158287298
13158296148
13158307440
13158318670
13158323065
13158338384
13158350774
13158359625
13158370672
13158383245
13158394109
13158402471
13158415777
13158427251
13158438360
13158449834
13158454717
13158471502
13158483159
13158492193
13158503484
13158511907
13158528081
13158537114
13158546086
13158554204
13158562749
13158569219
13158572454
13158583623
13158589482
13158600591
13158606206
13158616033
13158623479
13158630254
13158637334
13158645146
13158654241
13158662724
13158669988
13158676946
13158688542
13158696233
13158705144
13158714299
13158724187
13158732976
13158736943
13158755925
13158765385
13158772954
13158779667
13158791997
13158797368
13158808964
13158817326
13158825688
13158833744
13158839054
13158846135
13158852787
13158860844
13158866520
13158873967
13158878971
13158885746
13158892582
13158897831
13158904362
13158909733
13158916569
13158921452
13158929203
13158933903
13158940251
13158946171
13158953556
13158957523
13158967838
13158977604
13158985783
13158993412
13159000126
13159006535
13159015751
13159022465
13159031681
13159040165
13159047306
13159056095
13159064701
13159070865
13159076114
13159088199
13159093448
13159103885
13159109623
13159118839
13159125187
13159134891
13159141971
13159151615
13159157901
13159168888
13159175540
13159181888
13159187870
13159193729
13159198306
13159204837
13159211368
13159218143
13159223453
13159230655
13159237735
13159243228
13159248233
13159255191
13159259525
13159266544
13159270999
13159277225
13159281619
13159287784
13159294376
13159299625
13159306522
13159311954
13159317569
13159324466
13159329410
13159337222
13159343509
13159348636
13159351993
13159360354
13159365664
13159372195
13159374942
13159383487
13159389163
13159394473
13159401065
13159405703
13159412173
13159419009
13159425357
13159431704
13159437075
13159443728
13159450137
13159455874
13159460269
13159469241
13159478457
13159486331
13159492922
13159500552
13159508608
13159516726
13159523379
13159531252
13159538210
13159546389
13159552859
13159560000
13159567141
13159574404
13159582583
13159588442
13159596499
13159602358
13159611208
13159617129
13159623293
13159633547
13159639284
13159646548
13159652712
13159661257
13159667360
13159675356
13159680422
13159685915
13159691713
13159697268
13159703554
13159707949
13159714235
13159719912
13159725222
13159732851
13159736330
13159742556
13159747438
13159752626
13159757021
13159763735
13159768984
13159775942
13159779604
13159786440
13159792055
13159796449
13159800844
13159807497
13159812746
13159818483
13159823732
13159829469
13159835207
13159840273
13159844728
13159850893
13159855470
13159862184
13159868532
13159873354
13159879152
13159884279
13159890565
13159893922
13159900758
13159904237
13159912172
13159918519
13159922792
13159927675
13159933778
13159938722
13159945985
13159951967
13159961122
13159968873
13159975282
13159981813
13159989198
13159997560
13160002992
13160010926
13160020814
13160027345
13160034120
13160041871
13160047731
13160056764
13160064820
13160070924
13160079957
13160089234
13160094728
13160103211
13160110536
13160118592
13160128663
13160136720
13160144166
13160151490
13160158204
13160166993
13160174561
13160182130
13160189149
13160194093
13160199342
13160206544
13160210389
13160217042
13160223023
13160228638
13160231751
13160238892
13160243043
13160249879
13160253907
13160260193
13160265320
13160270997
13160277100
13160281189
13160287659
13160293213
13160298890
13160305237
13160310669
13160315979
13160320679
13160326050
13160330689
13160338196
13160343384
13160350281
13160354859
13160360901
13160366089
13160372986
13160377625
13160383728
13160388916
13160394470
13160399719
13160405762
13160411499
13160418213
13160423218
13160428284
13160436340
13160441528
13160447937
13160452515
13160458740
13160464783
13160469849
13160479675
13160484863
13160494019
13160500977
13160509766
13160514892
13160524536
13160531799
13160538879
13160545349
13160554565
13160560669
13160569458
13160576599
13160585083
13160591247
13160599731
13160607605
13160616516
13160623352
13160631591
13160639465
13160646545
13160656494
13160663818
13160670898
13160676940
13160684143
13160690673
13160696166
13160701782
13160708679
13160714294
13160722167
13160726318
13160734069
13160740051
13160745849
13160750549
13160756164
13160761840
13160768188
13160776977
13160783630
13160789977
13160797607
13160802367
13160809508
13160814574
13160822387
13160827575
13160834899
13160840758
13160845702
13160851623
13160857970
13160861999
13160867980
13160872069
13160880492
13160885070
13160889159
13160896788
13160902953
13160908934
13160910888
13160919005
13160922484
13160930236
13160936400
13160942748
13160946105
13160952574
13160957823
13160964537
13160970336
13160978820
13160983946
13160992980
13160999571
13161007323
13161013548
13161022643
13161028868
13161038878
13161045348
13161053587
13161059447
13161067992
13161074278
13161078673
13161089903
13161094786
13161105467
13161110716
13161118956
13161124998
13161133055
13161139342
13161146544
13161152891
13161161741
13161168577
13161175596
13161180601
13161185972
13161191832
13161198301
13161202086
13161210569
13161214354
13161221495
13161226255
13161230162
13161235838
13161240110
13161247068
13161251768
13161258238
13161262998
13161268309
13161274290
13161280393
13161284788
13161292417
13161298460
13161303587
13161309385
13161314085
13161320127
13161325681
13161330991
13161336668
13161342344
13161351560
13161357725
13161362974
13161367979
13161372312
13161378782
13161384092
13161390073
13161397031
13161401670
13161408384
13161413023
13161421445
13161425718
13161433652
13161440305
13161447507
13161453611
13161459165
13161464414
13161470151
13161476377
13161483640
13161491941
13161499204
13161507444
13161514402
13161521909
13161528440
13161534604
13161542966
13161548703
13161557492
13161564633
13161570188
13161578244
13161584043
13161593808
13161599362
13161606870
13161615476
13161621945
13161626767
13161638364
13161644040
13161653745
13161660642
13161668332
13161673703
13161681699
13161686764
13161692990
13161697812
13161703122
13161706601
13161713620
13161716916
13161723874
13161727353
13161733822
13161739499
13161744443
13161750241
13161755246
13161760983
13161767697
13161773373
13161778439
13161783688
13161788998
13161794369
13161798703
13161803769
13161809018
13161813778
13161819394
13161824582
13161831478
13161835324
13161841671
13161847042
13161854000
13161858395
13161865719
13161869503
13161876583
13161880306
13161886532
13161890438
13161897457
13161902767
13161907162
13161912777
13161917111
13161922299
13161927853
13161931515
13161939083
13161946835
13161956051
13161964291
13161972530
13161979794
13161986935
13161993771
13162004269
13162011043
13162020504
13162026974
13162036312
13162042476
13162050228
13162059505
13162067623
13162074154
13162079342
13162089046
13162094051
13162105343
13162113460
13162121334
13162128902
13162136348
13162143611
13162152645
13162159969
13162165767
13162171077
13162177486
13162182979
13162188411
13162193599
13162199947
13162205257
13162211177
13162216792
13162222408
13162228206
13162233760
13162238887
13162245845
13162251765
13162257747
13162261470
13162269527
13162273982
13162283504
13162288814
13162295650
13162303584
13162309016
13162314754
13162319636
13162327022
13162333491
13162338862
13162345515
13162349483
13162357539
13162361567
13162368953
13162375911
13162383479
13162389644
13162395625
13162401057
13162408198
13162413691
13162419612
13162425532
13162434626
13162440181
13162447200
13162453608
13162459529
13162464778
13162475032
13162482478
13162489375
13162500056
13162505671
13162517146
13162522700
13162533625
13162542231
13162550227
13162557307
13162566645
13162573481
13162583796
13162592158
13162595026
13162606806
13162615351
13162621638
13162630305
13162640619
13162645868
13162656489
13162661616
13162671198
13162677790
13162687555
13162693781
13162700373
13162705500
13162712091
13162717279
13162722345
13162728693
13162733637
13162740412
13162762445
13162768854
13162776056
13162782953
13162788873
13162795160
13162804071
13162808405
13162818292
13162825617
13162830316
13162836664
13162841180
13162845148
13162854547
13162860590
13162865778
13162867609
13162876215
13162880487
13162887567
13162891168
13162900445
13162906366
13162912408
13162915887
13162922357
13162925653
13162933038
13162936578
13162944391
13162950799
13162955804
13162960565
13162965692
13162970758
13162976739
13162981622
13162987176
13162993158
13163000482
13163009149
13163014581
13163022638
13163028070
13163035882
13163042596
13163050897
13163059442
13163065423
13163073113
13163078729
13163085809
13163093255
13163100640
13163107842
13163115472
13163123528
13163131036
13163137627
13163142327
13163152825
13163157708
13163165276
13163171685
13163179253
13163186333
13163193230
13163198174
13163204827
13163208977
13163216302
13163222283
13163227776
13163233574
13163239617
13163244927
13163250847
13163258660
13163263176
13163269280
13163273919
13163281182
13163285820
13163292595
13163296990
13163303215
13163307732
13163314202
13163318718
13163326287
13163333428
13163338799
13163343437
13163349846
13163357231
13163361870
13163369927
13163375176
13163380303
13163387627
13163393486
13163400261
13163407585
13163413811
13163419853
13163427422
13163433464
13163437920
13163445732
13163449760
13163457024
13163462028
13163468132
13163473686
13163479729
13163486565
13163492302
13163497246
13163503227
13163508171
13163513725
13163519584
13163525200
13163530998
13163536430
13163542900
13163549736
13163554802
13163561332
13163565788
13163572624
13163577079
13163583305
13163588859
13163594291
13163600883
13163604972
13163610283
13163615837
13163620658
13163627616
13163632438
13163637809
13163646049
13163649772
13163655937
13163661186
13163667594
13163672355
13163679862
13163685539
13163692497
13163698539
13163703422
13163710075
13163715873
13163722831
13163724967
13163733207
13163737479
13163745780
13163749747
13163756950
13163762138
13163767631
13163773551
13163781364
13163786979
13163792594
13163798881
13163804069
13163808707
13163814689
13163820426
13163827079
13163831656
13163837760
13163843986
13163849296
13163854545
13163858024
13163866874
13163872977
13163878409
13163882254
13163890250
13163894156
13163901480
13163907035
13163911917
13163917289
13163922110
13163926444
13163934622
13163941336
13163949088
13163955069
13163960440
13163965811
13163972830
13163978812
13163983328
13163994681
13164002005
13164008658
13164013602
13164024893
13164029715
13164036795
13164043387
13164049673
13164057547
13164063773
13164070608
13164075369
13164078787
13164085989
13164089773
13164097220
13164101004
13164108633
13164116324
13164122549
13164128775
13164133108
13164137930
13164144400
13164149405
13164155264
13164159964
13164164785
13164169729
13164175772
13164180410
13164188345
13164193167
13164197989
13164202261
13164207998
13164212637
13164219839
13164224600
13164232229
13164236868
13164242361
13164248098
13164252188
13164260305
13164264211
13164270925
13164277639
13164283499
13164287832
13164294424
13164299551
13164306020
13164311269
13164316518
13164322805
13164330007
13164335256
13164341604
13164347768
13164350027
13164358694
13164362112
13164369314
13164376821
13164383108
13164386831
13164393728
13164398855
13164404287
13164409231
13164415883
13164420522
13164427480
13164432668
13164439321
13164445974
13164451955
13164456655
13164463186
13164469716
13164472036
13164481069
13164487600
13164493764
13164499929
13164504628
13164511464
13164517507
13164524221
13164530019
13164535085
13164541494
13164546437
13164553762
13164557607
13164566823
13164570485
13164580556
13164586965
13164592336
13164598805
13164604909
13164612782
13164620412
13164627309
13164642690
13164646901
13164655568
13164660512
13164668080
13164671498
13164678090
13164680897
13164687794
13164693715
13164698414
13164704091
13164708119
13164713734
13164717457
13164723256
13164726918
13164732350
13164737538
13164743092
13164748890
13164754017
13164758107
13164764027
13164769764
13164774159
13164779957
13164786976
13164792225
13164797718
13164803761
13164809010
13164813160
13164818653
13164824330
13164830799
13164835438
13164840931
13164845448
13164850575
13164854908
13164861195
13164865650
13164873219
13164877918
13164883961
13164888172
13164893482
13164899708
13164905811
13164910084
13164916126
13164923756
13164928394
13164934193
13164940235
13164944447
13164950977
13164955250
13164963245
13164967884
13164974354
13164978748
13164985096
13164990528
13164995655
13165001697
13165005604
13165013538
13165019764
13165024524
13165028492
13165036487
13165042469
13165047657
13165052845
13165063709
13165069935
13165075916
13165079273
13165085926
13165090747
13165097705
13165103077
13165110889
13165115955
13165121814
13165126575
13165132190
13165138660
13165143726
13165148609
13165154956
13165161182
13165166675
13165172779
13165180225
13165184802
13165191272
13165197742
13165203113
13165209705
13165216174
13165222095
13165227771
13165233325
13165237109
13165243274
13165249133
13165254993
13165260913
13165267688
13165273303
13165277759
13165280810
13165288074
13165294665
13165300098
13165303638
13165310229
13165315417
13165320849
13165326282
13165330249
13165335010
13165342883
13165344836
13165352343
13165358386
13165362536
13165366992
13165372790
13165380114
13165386279
13165391894
13165397815
13165402880
13165408923
13165413867
13165420031
13165424975
13165431811
13165437182
13165443652
13165449145
13165455187
13165459521
13165465930
13165470385
13165478198
13165483447
13165488879
13165493762
13165499255
13165505419
13165511279
13165518054
13165524584
13165530871
13165535693
13165540087
13165546557
13165551440
13165556994
13165562426
13165567492
13165574084
13165579577
13165585619
13165591112
13165597460
13165602343
13165607104
13165614123
13165620287
13165627306
13165631884
13165636828
13165642931
13165649035
13165654223
13165659227
13165666430
13165672472
13165678392
13165680101
13165689196
13165692186
13165699083
13165706285
13165711657
13165717516
13165721971
13165732286
13165738268
13165744371
13165750780
13165758776
13165766405
13165772020
13165780260
13165788378
13165795519
13165801378
13165807543
13165814623
13165820116
13165826097
13165830858
13165837389
13165842210
13165847887
13165852464
13165857957
13165864366
13165869676
13165873888
13165880235
13165885850
13165890611
13165894884
13165901842
13165907823
13165912950
13165917955
13165923753
13165929063
13165936082
13165940111
13165948350
13165953233
13165958482
13165964708
13165969835
13165974412
13165980088
13165985337
13165990953
13165997056
13166003343
13166007737
13166013169
13166019456
13166025071
13166029039
13166036912
13166041123
13166047471
13166051499
13166056199
13166061631
13166067979
13166072007
13166077989
13166083848
13166089036
13166094224
13166099839
13166104844
13166111131
13166115708
13166122910
13166129502
13166135423
13166140366
13166146226
13166151292
13166156174
13166161973
13166166428
13166173569
13166180344
13166186326
13166191453
13166195847
13166201707
13166207017
13166213303
13166219224
13166225327
13166230881
13166235154
13166238450
13166247178
13166252732
13166257920
13166263596
13166270676
13166274826
13166280564
13166285752
13166291428
13166297104
13166302842
13166308396
13166314377
13166323532
13166328354
13166335434
13166341660
13166348740
13166354721
13166363327
13166370224
13166376206
13166382431
13166389328
13166394272
13166401352
13166406967
13166413071
13166417709
13166422958
13166428818
13166432968
13166438644
13166444138
13166451279
13166456100
13166462631
13166467514
13166473007
13166477463
13166483993
13166491073
13166497177
13166501266
13166508835
13166515365
13166519699
13166525192
13166530746
13166534652
13166542160
13166547043
13166553146
13166557541
13166564560
13166570358
13166576950
13166583053
13166589157
13166594528
13166599166
13166604843
13166611251
13166616378
13166622543
13166630233
13166634811
13166641159
13166645797
13166652938
13166657760
13166664840
13166669601
13166677291
13166681625
13166687545
13166692184
13166700179
13166705489
13166711410
13166717391
13166722396
13166728927
13166735458
13166740585
13166745650
13166753646
13166755843
13166764938
13166769149
13166778182
13166783004
13166789168
13166794662
13166800887
13166808028
13166814437
13166818892
13166825728
13166832076
13166837203
13166843490
13166849471
13166854110
13166860885
13166868697
13166874617
13166877059
13166885604
13166892684
13166899520
13166905440
13166913436
13166920150
13166927046
13166933699
13166939498
13166945723
13166951522
13166958113
13166964522
13166970198
13166975936
13166982588
13166986128
13166993086
13166999617
13167003951
13167009383
13167019331
13167025496
13167031599
13167037642
13167041975
13167045699
13167054121
13167057600
13167065413
13167069075
13167075850
13167080794
13167087996
13167093916
13167098982
13167103865
13167111616
13167116621
13167122420
13167127241
13167134504
13167140120
13167146162
13167150984
13167156477
13167163191
13167168867
13167175215
13167181013
13167187422
13167193159
13167199629
13167206098
13167210920
13167214888
13167224165
13167227827
13167235762
13167241560
13167246870
13167253950
13167260481
13167265913
13167271589
13167276472
13167283857
13167289228
13167293623
13167301374
13167305341
13167313520
13167317304
13167325117
13167330549
13167337263
13167343183
13167349775
13167355268
13167360822
13167366193
13167372968
13167379499
13167385480
13167390119
13167396894
13167402448
13167409589
13167414350
13167419721
13167426923
13167432782
13167437543
13167444562
13167449628
13167457074
13167461591
13167467633
13167472455
13167477277
13167482343
13167487287
13167493024
13167498090
13167505353
13167509381
13167516950
13167523847
13167529828
13167534711
13167542157
13167548871
13167557294
13167563153
13167568891
13167576032
13167583783
13167588910
13167597211
13167604291
13167609662
13167614362
13167618817
13167624493
13167629865
13167633710
13167640668
13167644757
13167653302
13167659222
13167664471
13167669354
13167674786
13167679669
13167685284
13167690777
13167697980
13167703290
13167709027
13167715375
13167721051
13167725995
13167730816
13167736920
13167742413
13167746808
13167754864
13167759808
13167765545
13167771222
13167776471
13167782757
13167789776
13167794720
13167801983
13167806683
13167810406
13167818157
13167823651
13167830670
13167836651
13167843304
13167848858
13167853924
13167861553
13167866985
13167871929
13167876446
13167884869
13167892193
13167897076
13167903240
13167909527
13167913372
13167922649
13167926434
13167933819
13167939312
13167944988
13167950909
13167957561
13167962383
13167970623
13167975933
13167981487
13167986004
13167993267
13167997600
13168005169
13168009624
13168016643
13168021526
13168028545
13168033550
13168039898
13168044841
13168051311
13168056316
13168063335
13168068950
13168073955
13168078289
13168085491
13168090435
13168095745
13168102153
13168106731
13168113140
13168119976
13168125835
13168132183
13168137737
13168145915
13168151897
13168160015
13168167217
13168172527
13168178630
13168183513
13168191387
13168198283
13168203044
13168206401
13168213969
13168219463
13168225139
13168230815
13168238017
13168243205
13168249309
13168254192
13168259685
13168264506
13168271464
13168275798
13168282756
13168289714
13168295451
13168299846
13168306071
13168310466
13168316874
13168323893
13168329142
13168335612
13168339579
13168347392
13168353556
13168358989
13168364299
13168371440
13168377238
13168384562
13168389689
13168394816
13168399211
13168405741
13168410258
13168416606
13168423686
13168428324
13168434123
13168438456
13168446025
13168451884
13168457133
13168461955
13168469157
13168476359
13168481425
13168488322
13168495158
13168500285
13168505167
13168510539
13168517252
13168522868
13168529765
13168534403
13168541361
13168546183
13168552958
13168558024
13168561686
13168568949
13168573099
13168582804
13168588175
13168593485
13168599161
13168604227
13168610880
13168615336
13168622294
13168628275
13168635172
13168641581
13168646586
13168652445
13168657328
13168663736
13168669474
13168674845
13168682901
13168688395
13168694193
13168699625
13168706461
13168711038
13168718302
13168723856
13168728556
13168735330
13168739786
13168746378
13168752847
13168758035
13168765116
13168771768
13168778665
13168785013
13168790628
13168797159
13168804117
13168810098
13168813944
13168822244
13168826212
13168832559
13168837381
13168843179
13168847879
13168854043
13168858438
13168863748
13168869302
13168875772
13168882364
13168888162
13168894266
13168898843
13168905069
13168910379
13168915201
13168923379
13168928689
13168934121
13168939248
13168945169
13168951028
13168955606
13168959634
13168967447
13168972390
13168978433
13168984353
13168989236
13168995645
13168999002
13169005349
13169011026
13169019448
13169023538
13169031716
13169035073
13169041238
13169047341
13169053445
13169058755
13169064797
13169070291
13169075723
13169080544
13169086831
13169091226
13169097634
13169102578
13169106606
13169115945
13169121133
13169126870
13169130471
13169138406
13169141885
13169148232
13169153542
13169161233
13169165200
13169171364
13169176430
13169182290
13169188637
13169193581
13169198098
13169204812
13169211342
13169216225
13169220925
13169227700
13169233498
13169238869
13169243264
13169249672
13169256447
13169261086
13169268654
13169272866
13169279580
13169285439
13169291176
13169297646
13169304238
13169309792
13169316078
13169319680
13169328041
13169334267
13169340615
13169349465
13169356484
13169362038
13169368385
13169375649
13169379860
13169388466
13169394630
13169401405
13169408424
13169413795
13169419655
13169424477
13169429726
13169434730
13169441688
13169446449
13169451881
13169457619
13169464271
13169469032
13169471107
13169480507
13169487099
13169492897
13169497963
13169502235
13169505592
13169513466
13169518043
13169523536
13169528175
13169534340
13169538002
13169545814
13169550758
13169555885
13169560585
13169566383
13169572792
13169579139
13169584327
13169590309
13169596046
13169602516
13169607337
13169609474
13169617652
13169621803
13169630470
13169634681
13169641456
13169646644
13169652931
13169659278
13169665260
13169670509
13169675880
13169681434
13169687354
13169693580
13169699012
13169705177
13169710670
13169723914
13169731727
13169738502
13169743629
13169750404
13169755836
13169760230
13169766761
13169771705
13169778235
13169784034
13169788733
13169794288
13169800208
13169806617
13169811194
13169816077
13169822120
13169828650
13169835303
13169840308
13169844581
13169852088
13169855811
13169862159
13169869178
13169875037
13169880286
13169886878
13169890723
13169898352
13169904517
13169909339
13169914221
13169924475
13169930335
13169936499
13169947241
13169952185
13169960974
13169966101
13169973425
13169980139
13169985877
13169992346
13169999060
13170004004
13170009253
13170015662
13170020972
13170026831
13170031592
13170037207
13170041724
13170046973
13170051550
13170058142
13170063330
13170069678
13170074988
13170080054
13170084875
13170091040
13170095984
13170102636
13170107580
13170112158
13170118017
13170122656
13170127600
13170133154
13170140173
13170146887
13170151587
13170159216
13170163916
13170170752
13170176184
13170181616
13170185949
13170192236
13170196813
13170203161
13170207861
13170214392
13170219274
13170223242
13170229406
13170233312
13170241491
13170243688
13170251745
13170255285
13170263830
13170268347
13170274084
13170279272
13170285192
13170290868
13170295324
13170300573
13170306249
13170310461
13170316076
13170322729
13170327306
13170332372
13170338048
13170343236
13170347692
13170353124
13170358739
13170364843
13170371129
13170376501
13170383214
13170388708
13170393834
13170400426
13170405675
13170412877
13170418065
13170423436
13170430150
13170434423
13170442785
13170448156
13170452977
13170461889
13170466954
13170471715
13170477147
13170483495
13170488866
13170494786
13170501256
13170510839
13170514318
13170522374
13170528722
13170534398
13170540746
13170547643
13170553319
13170559972
13170565038
13170570531
13170575780
13170581517
13170586278
13170591771
13170598912
13170605382
13170610570
13170616307
13170621861
13170627110
13170631383
13170637852
13170642552
13170648595
13170653538
13170659215
13170665135
13170670567
13170675572
13170681309
13170686070
13170692113
13170696568
13170703465
13170709080
13170715184
13170719883
13170725193
13170731236
13170737462
13170744603
13170749913
13170756077
13170762913
13170768834
13170774693
13170780979
13170785923
13170792820
13170798069
13170801792
13170811436
13170816441
13170822727
13170826512
13170834141
13170840306
13170848118
13170853550
13170860203
13170865452
13170873448
13170878147
13170884434
13170889805
13170897373
13170902073
13170908665
13170914951
13170919895
13170926731
13170931126
13170937962
13170943516
13170949131
13170954136
13170960483
13170965488
13170971042
13170976230
13170983372
13170989048
13170995334
13171001682
13171008335
13171012790
13171020603
13171026523
13171033420
13171040195
13171049350
13171062900
13171069370
13171077365
13171085544
13171092929
13171102207
13171111545
13171120029
13171127475
13171133518
13171143222
13171152316
13171163181
13171169040
13171182590
13171191928
13171198764
13171211398
13171220248
13171228183
13171237094
13171247348
13171257052
13171264987
13171271762
13171276767
13171287204
13171294589
13171300204
13171306125
13171314059
13171317721
13171324984
13171330050
13171337619
13171343112
13171349521
13171354464
13171360568
13171365512
13171371676
13171376559
13171386325
13171392611
13171398287
13171403781
13171409091
13171413607
13171419161
13171423861
13171429843
13171435580
13171441256
13171446932
13171452792
13171458285
13171464022
13171467806
13171476473
13171481783
13171487765
13171492770
13171498995
13171503878
13171511019
13171516329
13171522311
13171527743
13171534579
13171540133
13171546236
13171549654
13171558382
13171562350
13171572542
13171576388
13171584017
13171589632
13171595125
13171600008
13171606539
13171611788
13171618380
13171624300
13171629854
13171635531
13171642061
13171648226
13171652315
13171659761
13171665987
13171672396
13171677828
13171683138
13171688448
13171693636
13171697786
13171706880
13171711763
13171718416
13171721651
13171728304
13171733553
13171739107
13171747835
13171753206
13171759371
13171763460
13171769380
13171775423
13171781465
13171785799
13171796236
13171801546
13171809480
13171813936
13171822298
13171825899
13171834932
13171838960
13171847200
13171851594
13171859651
13171865327
13171870759
13171874544
13171881135
13171887544
13171893281
13171899568
13171905610
13171911043
13171915559
13171922090
13171926667
13171930330
13171939851
13171945100
13171951143
13171953035
13171962678
13171966035
13171973786
13171977571
13171987947
13171993135
13171999177
13172003511
13172010713
13172014253
13172021882
13172025849
13172033967
13172040864
13172045503
13172051911
13172057832
13172062043
13172068391
13172072114
13172080232
13172086945
13172092744
13172097016
13172103181
13172108979
13172114838
13172118562
13172127351
13172133149
13172139313
13172145539
13172150178
13172155183
13172162385
13172168122
13172173615
13172179780
13172185395
13172190400
13172196747
13172201508
13172208039
13172213471
13172220856
13172226349
13172232087
13172237519
13172243317
13172248444
13172254609
13172262177
13172267426
13172273102
13172278107
13172285126
13172290131
13172296662
13172301789
13172309113
13172314423
13172320587
13172325470
13172331574
13172337067
13172344147
13172349579
13172358795
13172365631
13172372833
13172378876
13172387909
13172395355
13172401093
13172411896
13172417694
13172429901
13172437897
13172449249
13172456512
13172460052
13172473785
13172478912
13172490448
13172497528
13172504425
13172512787
13172520660
13172527191
13172533355
13172539093
13172545196
13172551849
13172559967
13172564666
13172571624
13172576934
13172583709
13172588897
13172596588
13172603973
13172610198
13172615875
13172621124
13172626312
13172633453
13172638458
13172644805
13172652129
13172659637
13172664703
13172672942
13172678741
13172685149
13172690582
13172696990
13172706878
13172714324
13172719390
13172726592
13172733672
13172738677
13172745757
13172752593
13172757354
13172764861
13172769500
13172775420
13172781096
13172787017
13172792144
13172795440
13172802886
13172806853
13172815886
13172819732
13172828765
13172832305
13172838775
13172843718
13172850005
13172855315
13172862090
13172867339
13172872893
13172877776
13172885588
13172892790
13172899077
13172904265
13172911345
13172917998
13172923247
13172927764
13172933867
13172939910
13172945159
13172949675
13172956023
13172961821
13172968535
13172972685
13172976775
13172983305
13172988249
13172993559
13173001616
13173008208
13173013090
13173019743
13173025908
13173031584
13173038969
13173044585
13173054899
13173060637
13173066618
13173070891
13173079863
13173085905
13173093046
13173100065
13173106962
13173114103
13173118376
13173123503
13173130339
13173134367
13173140471
13173144072
13173152616
13173156523
13173164335
13173169950
13173174528
13173179655
13173186125
13173191130
13173197599
13173203092
13173208952
13173213346
13173218900
13173223356
13173228788
13173235990
13173242704
13173248136
13173254850
13173259794
13173264799
13173270475
13173275541
13173279813
13173287748
13173292326
13173297880
13173303556
13173309598
13173315824
13173318082
13173329008
13173335050
13173339933
13173346586
13173351407
13173358365
13173363248
13173369535
13173375760
13173381498
13173388090
13173394498
13173399503
13173405484
13173411893
13173418119
13173422879
13173428983
13173435270
13173437772
13173445584
13173447843
13173456266
13173462430
13173467862
13173471463
13173481107
13173484586
13173494107
13173499295
13173504178
13173507779
13173516263
13173520841
13173528104
13173534451
13173540067
13173543668
13173552152
13173556485
13173562955
13173568875
13173574612
13173582791
13173588834
13173594327
13173599698
13173605191
13173610989
13173618802
13173623746
13173630643
13173636563
13173644925
13173649624
13173656338
13173663479
13173672391
13173678677
13173684048
13173690762
13173695645
13173701321
13173706204
13173711453
13173717923
13173721951
13173728543
13173733792
13173739163
13173745205
13173749234
13173757290
13173761868
13173767788
13173772244
13173777432
13173782131
13173786282
13173792813
13173797085
13173804287
13173809536
13173815212
13173820706
13173826016
13173830410
13173837795
13173841335
13173849514
13173853359
13173859829
13173864407
13173873745
13173880398
13173885342
13173892422
13173898464
13173904751
13173910488
13173915493
13173921719
13173929409
13173933681
13173941067
13173945217
13173953701
13173959987
13173964321
13173969875
13173976650
13173981960
13173988308
13173993618
13173998562
13174003994
13174009243
13174013149
13174021999
13174024379
13174033229
13174039028
13174045803
13174052272
13174058254
13174065456
13174072841
13174078578
13174083034
13174090541
13174094448
13174100246
13174105373
13174113307
13174117763
13174126674
13174133937
13174140163
13174145473
13174152797
13174157253
13174161830
13174168361
13174173793
13174180507
13174187404
13174191615
13174196864
13174208095
13174211940
13174221034
13174225429
13174233180
13174240321
13174245326
13174252101
13174259913
13174269252
13174273463
13174279567
13174283595
13174287990
13174293300
13174299281
13174305079
13174308986
13174314479
13174318690
13174324305
13174329737
13174334315
13174341822
13174346400
13174352931
13174358180
13174362635
13174367579
13174373805
13174381068
13174387171
13174393519
13174399012
13174403285
13174409449
13174414759
13174420374
13174424586
13174428065
13174434596
13174439784
13174444849
13174446681
13174454188
13174458216
13174464259
13174465907
13174475672
13174479639
13174487391
13174490809
13174497462
13174501429
13174507532
13174514185
13174520472
13174524378
13174530115
13174535120
13174540613
13174545008
13174551356
13174557581
13174562647
13174567957
13174574366
13174578577
13174584009
13174590479
13174596644
13174601587
13174609217
13174615015
13174620386
13174624598
13174627954
13174636011
13174639368
13174645105
13174650110
13174657740
13174661829
13174667932
13174672693
13174677942
13174684595
13174689051
13174693323
13174699243
13174703821
13174709986
13174716577
13174721094
13174725183
13174728479
13174736047
13174741663
13174748682
13174752222
13174760217
13174765527
13174771997
13174776270
13174783228
13174789209
13174794702
13174798975
13174806787
13174813440
13174819055
13174822900
13174831750
13174835718
13174842554
13174847864
13174853174
13174858545
13174864282
13174866174
13174874292
13174878503
13174886316
13174888391
13174896386
13174901574
13174908105
13174913598
13174919580
13174921655
13174931237
13174935388
13174943078
13174946374
13174953393
13174956567
13174962304
13174967370
13174973596
13174977868
13174989831
13174992944
13175002099
13175008447
13175013268
13175020165
13175024926
13175031884
13175036950
13175043115
13175049096
13175053613
13175058678
13175065514
13175069665
13175076806
13175081322
13175088464
13175093835
13175101403
13175107262
13175114159
13175118066
13175124840
13175130273
13175136437
13175140160
13175146691
13175152611
13175158776
13175164513
13175171837
13175175866
13175184899
13175188866
13175196373
13175203270
13175208580
13175212487
13175219567
13175224022
13175230919
13175238182
13175248497
13175257775
13175267662
13175276268
13175286217
13175295189
13175302635
13175312157
13175320275
13175332787
13175341210
13175350060
13175358543
13175367027
13175374168
13175381920
13175391869
13175399986
13175409935
13175418419
13175428673
13175436790
13175446983
13175455711
13175464256
13175470299
13175477989
13175484276
13175491905
13175500145
13175508384
13175515770
13175524376
13175531639
13175539146
13175547691
13175554954
13175562889
13175569786
13175578453
13175585166
13175594627
13175601524
13175610618
13175619285
13175625572
13175634605
13175643028
13175650657
13175658592
13175665122
13175673057
13175682578
13175689109
13175700217
13175707908
13175716514
13175724387
13175732627
13175740500
13175749351
13175757163
13175768027
13175773459
13175784751
13175793357
13175800498
13175808127
13175817344
13175826255
13175834433
13175843894
13175850913
13175859824
13175869223
13175878440
13175887046
13175894248
13175903159
13175912253
13175919394
13175928000
13175937094
13175946799
13175953940
13175962668
13175969931
13175980734
13175987692
13175998495
13176006247
13176016623
13176022970
13176030478
13176038229
13176046957
13176055563
13176063742
13176070944
13176084494
13176092245
13176099936
13176106344
13176113668
13176122519
13176131002
13176139791
13176147116
13176155111
13176162802
13176171469
13176178732
13176187582
13176195944
13176204550
13176213339
13176221761
13176229391
13176237447
13176245626
13176254171
13176262106
13176268087
13176277120
13176285543
13176291769
13176300436
13176309408
13176316366
13176326314
13176333517
13176341573
13176348226
13176358297
13176365743
13176372274
13176379171
13176389058
13176396810
13176404744
13176413594
13176421285
13176429525
13176437276
13176444905
13176452962
13176461385
13176470174
13176477925
13176484151
13176493428
13176501790
13176508992
13176515950
13176525838
13176532857
13176542439
13176550252
13176558247
13176565999
13176574422
13176584431
13176589925
13176597920
13176606770
13176613423
13176626790
13176642720
13176656819
13176672017
13176685872
13176699604
13176713337
13176728718
13176740986
13176755757
13176768574
13176784321
13176793110
13176799336
13176807636
13176818257
13176830158
13176840473
13176850727
13176862080
13176872883
13176879597
13176884968
13176890156
13176895283
13176899799
13176904499
13176909077
13176913776
13176917683
13176923176
13176927814
13176932331
13176937275
13176942219
13176946125
13176951191
13176956440
13176962665
13176968525
13176974567
13176980060
13176984638
13176991047
13176997760
13177004596
13177009906
13177016071
13177021015
13177026325
13177030536
13177037311
13177042865
13177046649
13177050678
13177056415
13177059467
13177065082
13177068012
13177073688
13177080219
13177085285
13177090167
13177095233
13177099323
13177104511
13177109760
13177113849
13177119403
13177124530
13177128558
13177133991
13177138141
13177143573
13177153461
13177157489
13177164508
13177168964
13177172748
13177176593
13177182574
13177186969
13177191791
13177197711
13177202533
13177206317
13177213214
13177218219
13177223895
13177227923
13177235614
13177240375
13177247943
13177251361
13177258197
13177262774
13177269305
13177274493
13177279559
13177284869
13177291095
13177296344
13177301532
13177306048
13177311908
13177316302
13177322223
13177326617
13177333819
13177337970
13177343524
13177350238
13177355181
13177359149
13177364642
13177370013
13177376544
13177380755
13177387469
13177392047
13177397540
13177402911
13177408099
13177412249
13177418780
13177424822
13177429583
13177435259
13177440081
13177445147
13177451922
13177457598
13177464129
13177472369
13177476824
13177482806
13177487200
13177494219
13177499529
13177503802
13177512408
13177519243
13177524676
13177528216
13177537005
13177540301
13177548662
13177552691
13177560320
13177566485
13177571306
13177575457
13177579912
13177584063
13177589861
13177596270
13177601885
13177606646
13177612688
13177617388
13177623186
13177628923
13177633928
13177638811
13177644365
13177648394
13177656267
13177661394
13177666399
13177671160
13177677385
13177682695
13177688249
13177692339
13177698747
13177704302
13177709123
13177714494
13177718889
13177724809
13177731035
13177735185
13177738664
13177746904
13177750627
13177758806
13177764604
13177769121
13177773943
13177780778
13177786394
13177794878
13177801469
13177807207
13177811906
13177818071
13177823381
13177829057
13177833330
13177841691
13177846940
13177851945
13177856584
13177862871
13177868791
13177874101
13177879777
13177883622
13177892595
13177898088
13177903032
13177909074
13177914201
13177919084
13177925187
13177930619
13177939042
13177945146
13177950151
13177954911
13177960954
13177965287
13177972734
13177977250
13177984086
13177990800
13177996232
13178001969
13178007218
13178011491
13178018632
13178024125
13178028214
13178036759
13178041154
13178047990
13178053971
13178063493
13178070878
13178075883
13178081559
13178090104
13178096940
13178104996
13178108414
13178115922
13178122452
13178127396
13178133195
13178143204
13178150895
13178156571
13178162308
13178168168
13178173295
13178179520
13178183793
13178191910
13178197281
13178203446
13178207962
13178213089
13178219376
13178224442
13178228470
13178237809
13178244400
13178251969
13178258377
13178266007
13178272476
13178278092
13178282486
13178288407
13178293533
13178298538
13178303177
13178307816
13178312332
13178317032
13178322403
13178327103
13178332718
13178337723
13178342911
13178348099
13178352982
13178357681
13178362991
13178367447
13178371963
13178376175
13178381485
13178385757
13178391434
13178397049
13178402542
13178406875
13178412735
13178417007
13178422561
13178427200
13178431961
13178438675
13178443863
13178448562
13178453384
13178459549
13178465469
13178471145
13178476700
13178481094
13178487381
13178491592
13178496841
13178503006
13178508133
13178515091
13178521377
13178526199
13178533523
13178538162
13178542007
13178549026
13178554580
13178560379
13178565750
13178572586
13178578262
13178583206
13178589614
13178595352
13178600540
13178606643
13178613052
13178618606
13178623672
13178627639
13178635085
13178639053
13178646560
13178653579
13178658767
13178662612
13178672500
13178676589
13178685073
13178689712
13178699294
13178706374
13178711318
13178716872
13178723769
13178729140
13178737441
13178742080
13178749892
13178754348
13178760085
13178765395
13178770400
13178773696
13178780532
13178784011
13178790725
13178796767
13178800551
13178805434
13178811415
13178815017
13178821913
13178827346
13178836318
13178842787
13178846938
13178855788
13178859755
13178867324
13178871718
13178876906
13178882582
13178888075
13178893447
13178898696
13178904494
13178910292
13178915602
13178921828
13178927748
13178932631
13178936659
13178942824
13178946913
13178953871
13178958205
13178965651
13178972609
13178978285
13178984022
13178988173
13178994032
13179000380
13179005141
13179009779
13179015455
13179019850
13179025831
13179031141
13179036574
13179045790
13179051283
13179055922
13179062208
13179067579
13179073988
13179079542
13179085035
13179091627
13179096449
13179102980
13179107679
13179114027
13179118483
13179125380
13179129774
13179138868
13179143812
13179149855
13179156263
13179161390
13179167677
13179172010
13179178480
13179189710
13179196974
13179199293
13179209058
13179213270
13179220411
13179225172
13179232069
13179237501
13179242689
13179248792
13179255140
13179260206
13179267774
13179272413
13179277662
13179284009
13179292188
13179298109
13179307935
13179312330
13179320630
13179326185
13179331983
13179337110
13179342664
13179345899
13179353895
13179357129
13179366041
13179370374
13179376355
13179379956
13179388440
13179395032
13179399427
13179404370
13179410169
13179415662
13179426709
13179432569
13179440198
13179445508
13179451123
13179455945
13179461621
13179467786
13179473767
13179479138
13179485486
13179491773
13179497754
13179502698
13179509290
13179515698
13179520581
13179527661
13179533154
13179539014
13179545239
13179552747
13179556897
13179564221
13179569531
13179575391
13179582837
13179589490
13179594250
13179600476
13179607556
13179613415
13179618359
13179621899
13179629040
13179636731
13179643139
13179647595
13179655163
13179660656
13179666455
13179672314
13179680371
13179686169
13179693432
13179698681
13179707165
13179713086
13179719921
13179724621
13179728222
13179736523
13179742382
13179749645
13179756848
13179763134
13179766430
13179772656
13179777477
13179783581
13179790356
13179795788
13179801281
13179807446
13179812817
13179818615
13179825329
13179831127
13179836926
13179846569
13179851452
13179855663
13179862133
13179865612
13179875439
13179879589
13179889416
13179893749
13179903026
13179909496
13179915661
13179921886
13179927929
13179935131
13179940014
13179948803
13179955211
13179960277
13179964794
13179970165
13179974682
13179981456
13179986766
13179993480
13179997814
13180003673
13180009349
13180015392
13180020092
13180026134
13180030529
13180034069
13180042919
13180049388
13180054698
13180060008
13180066478
13180072154
13180076915
13180081737
13180088817
13180094371
13180101085
13180107860
13180112987
13180117442
13180123851
13180129344
13180137096
13180143871
13180149974
13180154674
13180159923
13180165843
13180171886
13180177379
13180184947
13180191173
13180196178
13180201976
13180205638
13180212901
13180216380
13180223460
13180229014
13180236155
13180242625
13180251109
13180255870
13180261668
13180266612
13180273021
13180277476
13180285045
13180292125
13180297374
13180301829
13180307017
13180313243
13180317820
13180323802
13180331309
13180337535
13180342662
13180348460
13180352732
13180358897
13180365122
13180370127
13180375193
13180383128
13180386912
13180395640
13180399607
13180405772
13180411509
13180416636
13180422495
13180429942
13180433909
13180440134
13180445261
13180451365
13180458689
13180464548
13180470408
13180477305
13180487742
13180494761
13180501292
13180508188
13180515574
13180521616
13180529490
13180537546
13180546030
13180551767
13180558420
13180562388
13180570688
13180574411
13180582285
13180586618
13180594248
13180598642
13180605295
13180610910
13180617197
13180622507
13180629648
13180635202
13180641367
13180646250
13180653391
13180656748
13180663584
13180667307
13180676828
13180680979
13180688059
13180694101
13180698801
13180703867
13180710519
13180714121
13180722421
13180728647
13180734811
13180740610
13180745187
13180750497
13180755624
13180759164
13180767648
13180771432
13180778635
13180784860
13180789804
13180795419
13180801950
13180808969
13180815195
13180822641
13180826486
13180834787
13180839059
13180847970
13180851632
13180860544
13180866891
13180874460
13180880441
13180886789
13180889413
13180898080
13180904489
13180909860
13180916207
13180923226
13180930184
13180935250
13180941232
13180946054
13180952706
13180959298
13180965524
13180969979
13180975778
13180982308
13180988168
13180993905
13181001779
13181008126
13181014413
13181018929
13181026315
13181031747
13181037789
13181043649
13181049508
13181055672
13181063241
13181068490
13181075021
13181079537
13181087838
13181094063
13181100716
13181106148
13181113534
13181118538
13181126168
13181132271
13181139657
13181146309
13181153756
13181159798
13181165902
13181170357
13181176217
13181182686
13181186104
13181192757
13181198799
13181204964
13181211373
13181216439
13181222054
13181228463
13181234200
13181239205
13181246651
13181251656
13181257271
13181263069
13181268074
13181273384
13181278084
13181284248
13181288338
13181298164
13181302681
13181307686
13181313423
13181317452
13181322823
13181328438
13181334541
13181342598
13181346504
13181353218
13181356880
13181364632
13181369759
13181376533
13181381782
13181388252
13181395943
13181400520
13181404793
13181411873
13181416267
13181422676
13181428718
13181436897
13181442329
13181447334
13181453132
13181458992
13181463569
13181469429
13181475288
13181477424
13181486763
13181490791
13181501960
13181506294
13181513008
13181517952
13181524726
13181530036
13181535224
13181540718
13181547370
13181552314
13181558174
13181562751
13181569343
13181573860
13181581428
13181587409
13181592414
13181598090
13181602851
13181609748
13181617011
13181623054
13181628181
13181635383
13181642341
13181646674
13181652473
13181659614
13181665717
13181671516
13181677741
13181683967
13181686164
13181697089
13181704230
13181708625
13181715156
13181722114
13181729438
13181735114
13181739997
13181746100
13181750251
13181756598
13181762214
13181766913
13181771369
13181777228
13181783271
13181789069
13181794684
13181799445
13181804877
13181810736
13181813910
13181823310
13181827277
13181835272
13181838385
13181845648
13181848883
13181856452
13181860663
13181868353
13181873847
13181879767
13181884589
13181891181
13181896185
13181902167
13181906683
13181915289
13181919806
13181926642
13181931403
13181937506
13181941962
13181948126
13181954474
13181960150
13181966193
13181970526
13181977423
13181981024
13181987372
13181992987
13181999029
13182006232
13182012884
13182016424
13182024603
13182028326
13182036566
13182040716
13182047552
13182053595
13182060247
13182065863
13182072210
13182076971
13182082708
13182088446
13182094671
13182101080
13182106817
13182112371
13182120001
13182125006
13182130743
13182135870
13182141912
13182146551
13182151983
13182159612
13182164251
13182170294
13182175726
13182182867
13182187566
13182191168
13182199346
13182203314
13182211553
13182217474
13182222173
13182227483
13182234075
13182239935
13182245550
13182250799
13182257940
13182264043
13182268926
13182274175
13182280645
13182286687
13182292669
13182299261
13182303472
13182315984
13182321355
13182326909
13182333867
13182338201
13182344610
13182351140
13182360051
13182364812
13182370549
13182376531
13182382512
13182387761
13182389653
13182398931
13182406682
13182412725
13182417668
13182422063
13182427678
13182433965
13182439519
13182445378
13182447576
13182456304
13182460149
13182467839
13182473515
13182478520
13182484258
13182488530
13182494084
13182501286
13182507451
13182511845
13182516850
13182523137
13182529912
13182535283
13182540349
13182545415
13182552068
13182557805
13182562627
13182568669
13182573125
13182579411
13182585515
13182593327
13182598271
13182605229
13182609746
13182613957
13182621342
13182627385
13182631718
13182635136
13182643376
13182649968
13182656071
13182659977
13182667851
13182671330
13182678349
13182683476
13182691655
13182697575
13182702824
13182708012
13182713627
13182717778
13182725041
13182728276
13182737431
13182742497
13182748234
13182753178
13182759831
13182764897
13182771366
13182777287
13182782292
13182787541
13182793644
13182800053
13182805546
13182809757
13182819279
13182823551
13182832340
13182837101
13182846317
13182850834
13182858829
13182866337
13182872074
13182879276
13182886295
13182892032
13182897465
13182903812
13182909427
13182918949
13182921573
13182932132
13182936588
13182947696
13182953617
13182959842
13182964786
13182974247
13182979862
13182985050
13182992130
13182999027
13183003482
13183009708
13183013370
13183020999
13183025272
13183032108
13183037601
13183044559
13183049747
13183057865
13183063419
13183068668
13183074344
13183079593
13183085269
13183093753
13183098819
13183110172
13183115970
13183121585
13183127383
13183133670
13183138126
13183148868
13183155276
13183160403
13183165286
13183171512
13183175174
13183182742
13183188052
13183197330
13183204226
13183210025
13183215030
13183221438
13183226321
13183233462
13183239322
13183245364
13183250979
13183255984
13183262149
13183267703
13183272647
13183278750
13183285403
13183287722
13183297854
13183302432
13183310305
13183314517
13183320681
13183324221
13183330569
13183336367
13183343936
13183350039
13183355044
13183359744
13183366274
13183371401
13183376467
13183382815
13183389346
13183395876
13183401309
13183405947
13183412478
13183416811
13183420290
13183428042
13183432497
13183439822
13183445864
13183451479
13183455569
13183462160
13183467043
13183472780
13183478762
13183484438
13183490725
13183497561
13183503664
13183509157
13183513735
13183519716
13183526369
13183535463
13183540224
13183547121
13183554018
13183559145
13183566591
13183570986
13183578066
13183581728
13183591982
13183595949
13183603151
13183608705
13183613954
13183619875
13183626467
13183631716
13183636965
13183643617
13183649050
13183654177
13183659670
13183666567
13183671510
13183677431
13183683534
13183689150
13183692751
13183700929
13183704713
13183711427
13183716982
13183726259
13183733400
13183738649
13183745424
13183751955
13183758058
13183762941
13183769289
13183775148
13183781984
13183786867
13183793153
13183798585
13183804933
13183810914
13183814882
13183823610
13183827760
13183834779
13183839906
13183846864
13183853029
13183858888
13183864991
13183871156
13183875245
13183883180
13183887696
13183894776
13183899232
13183905763
13183911500
13183918397
13183925233
13183930604
13183936280
13183943055
13183948609
13183954713
13183961244
13183966065
13183970948
13183978883
13183984742
13183990235
13183994996
13184002137
13184007142
13184013795
13184020264
13184025697
13184032227
13184038209
13184042969
13184048524
13184055482
13184061402
13184066773
13184073853
13184080262
13184085450
13184092042
13184097169
13184102784
13184108399
13184113526
13184119813
13184126038
13184130982
13184137330
13184145691
13184151185
13184157898
13184162598
13184171997
13184177979
13184183655
13184191712
13184197754
13184203308
13184210572
13184216309
13184224243
13184229248
13184235718
13184242005
13184247803
13184253723
13184258240
13184265198
13184269287
13184276245
13184281555
13184287659
13184293030
13184299744
13184305664
13184311279
13184316589
