13346586132
13346591626
13346599804
13346604687
13346610363
13346616528
13346622692
13346628674
13346634106
13346640515
13346646984
13346654492
13346663586
13346672314
13346679699
13346686413
13346694653
13346702831
13346710278
13346717907
13346726757
13346736095
13346744091
13346751720
13346758861
13346768078
13346776195
13346783947
13346792431
13346800793
13346808727
13346816845
13346825512
13346835399
13346842907
13346853039
13346863414
13346873851
13346882274
13346893566
13346902782
13346912365
13346922191
13346931957
13346943614
13346954357
13346964916
13346973644
13346983409
13346992809
13346999461
13347010021
13347021129
13347029674
13347038036
13347047740
13347059398
13347069530
13347078746
13347087230
13347094432
13347103953
13347114512
13347123363
13347132335
13347141551
13347151622
13347158763
13347168345
13347177378
13347187999
13347195933
13347203196
13347211192
13347218943
13347227122
13347235728
13347245310
13347254161
13347259348
13347268931
13347278452
13347284617
13347294383
13347303172
13347311839
13347319285
13347328806
13347337351
13347343272
13347352732
13347364451
13347373789
13347387400
13347395884
13347405039
13347413462
13347424997
13347433664
13347444651
13347453257
13347460093
13347468149
13347474741
13347486643
13347493845
13347500376
13347507456
13347515390
13347523691
13347531626
13347539560
13347549143
13347560678
13347571054
13347581369
13347591135
13347601328
13347610544
13347620493
13347630075
13347635995
13347649606
13347655222
13347669809
13347678354
13347688241
13347697214
13347707223
13347717050
13347724618
13347735483
13347746530
13347755380
13347765146
13347774911
13347788034
13347797494
13347806710
13347817269
13347822457
13347832833
13347838204
13347847055
13347852914
13347861825
13347869088
13347877023
13347884835
13347891366
13347898751
13347905953
13347914315
13347919930
13347928963
13347936593
13347943551
13347951241
13347958382
13347966195
13347974618
13347981637
13347987618
13347996590
13348003182
13348012459
13348018441
13348025765
13348034005
13348040535
13348051705
13348056893
13348066781
13348070748
13348075997
13348080330
13348085213
13348089730
13348094490
13348098214
13348104744
13348111824
13348115364
13348123055
13348130806
13348138191
13348144905
13348152107
13348160164
13348166512
13348173714
13348180855
13348187691
13348192818
13348201363
13348208687
13348215523
13348221382
13348227913
13348235603
13348241096
13348249458
13348254707
13348262337
13348267280
13348275581
13348281074
13348287483
13348294441
13348300361
13348304756
13348310310
13348314461
13348320503
13348325752
13348329841
13348334053
13348340217
13348344734
13348349678
13348352791
13348358772
13348364021
13348369087
13348371894
13348379036
13348384163
13348389778
13348394355
13348399482
13348404365
13348408393
13348413764
13348419380
13348425178
13348430061
13348435005
13348438728
13348443733
13348449165
13348454658
13348458991
13348464790
13348471809
13348476875
13348482551
13348488105
13348492561
13348497932
13348503425
13348508674
13348513862
13348518623
13348524421
13348529365
13348533820
13348539436
13348545173
13348550178
13348557441
13348565375
13348573066
13348575751
13348586616
13348595466
13348603522
13348610663
13348618476
13348623847
13348632575
13348637153
13348646491
13348653449
13348662116
13348668525
13348678229
13348683112
13348693183
13348698615
13348708564
13348716376
13348726752
13348733710
13348740912
13348750678
13348757575
13348762457
13348768195
13348772650
13348776984
13348782965
13348787299
13348793707
13348799262
13348804388
13348809454
13348814337
13348819708
13348824591
13348830206
13348837164
13348842718
13348847845
13348853522
13348858527
13348864081
13348869330
13348876227
13348880926
13348886847
13348891730
13348897467
13348902533
13348908026
13348912359
13348919134
13348924383
13348929754
13348935431
13348941412
13348948004
13348953192
13348958929
13348964850
13348970526
13348977240
13348983648
13348988775
13348993963
13349001409
13349006170
13349009832
13349018011
13349022039
13349030035
13349034429
13349042669
13349049993
13349058172
13349065130
13349074224
13349081426
13349088751
13349097967
13349105230
13349113714
13349119756
13349129278
13349137945
13349144292
13349151495
13349160467
13349168096
13349176885
13349183904
13349192815
13349199102
13349208135
13349214910
13349224859
13349231511
13349237554
13349247075
13349255864
13349261846
13349268010
13349275029
13349278997
13349287175
13349290898
13349298040
13349302190
13349308843
13349314275
13349319707
13349327703
13349332219
13349337468
13349344914
13349349980
13349356938
13349364873
13349374822
13349380254
13349392033
13349401860
13349411565
13349419621
13349427983
13349436894
13349444890
13349452275
13349460515
13349469243
13349476872
13349483403
13349487736
13349494633
13349500371
13349504826
13349508915
13349513371
13349517888
13349522648
13349527958
13349532841
13349536931
13349541630
13349546757
13349550419
13349555485
13349560246
13349568180
13349574040
13349579045
13349586003
13349591008
13349598454
13349604069
13349610722
13349617253
13349623722
13349628117
13349635136
13349638615
13349647404
13349654484
13349661381
13349667973
13349674931
13349679997
13349686161
13349692387
13349699101
13349704960
13349712040
13349718449
13349723454
13349730717
13349733829
13349740360
13349743229
13349749882
13349754826
13349760746
13349763309
13349768375
13349770878
13349776615
13349781986
13349787296
13349793033
13349799320
13349803837
13349807621
13349812565
13349818363
13349821964
13349829105
13349835453
13349840702
13349843876
13349849918
13349854252
13349859745
13349864750
13349870853
13349876590
13349883731
13349888248
13349894046
13349903568
13349909305
13349914005
13349921329
13349927799
13349934329
13349943424
13349950321
13349957706
13349963260
13349969852
13349975223
13349981876
13349987369
13349993167
13349998904
13350004276
13350009769
13350019534
13350027042
13350034183
13350040652
13350047732
13350053775
13350060733
13350066836
13350074161
13350082522
13350088016
13350095645
13350099673
13350110599
13350115054
13350126529
13350133181
13350139102
13350147708
13350152957
13350161563
13350166568
13350176883
13350181094
13350189639
13350194094
13350199404
13350204592
13350208377
13350211367
13350219119
13350224673
13350229800
13350231448
13350239443
13350243594
13350248049
13350254458
13350259158
13350265994
13350271182
13350274172
13350281252
13350284304
13350289797
13350294863
13350302615
13350306887
13350314333
13350319338
13350325320
13350330080
13350335146
13350339602
13350346560
13350353091
13350358767
13350363161
13350368410
13350373110
13350379763
13350384218
13350387514
13350395388
13350401552
13350407046
13350410158
13350417360
13350421023
13350428164
13350431582
13350436953
13350443483
13350449465
13350454042
13350460024
13350465944
13350473574
13350480043
13350487551
13350497805
13350506044
13350513063
13350518923
13350527284
13350536745
13350544924
13350555605
13350566164
13350575807
13350583254
13350590578
13350603029
13350611330
13350619752
13350627199
13350635133
13350642152
13350649721
13350656373
13350664064
13350669862
13350676820
13350681581
13350687807
13350691774
13350700624
13350705873
13350711671
13350713563
13350723756
13350729615
13350734193
13350739442
13350746034
13350752076
13350756715
13350760194
13350767518
13350772767
13350778627
13350780946
13350789003
13350791078
13350799195
13350802980
13350809938
13350813294
13350821107
13350825990
13350831483
13350833680
13350841676
13350845582
13350853333
13350857423
13350864869
13350869996
13350876588
13350881837
13350887391
13350893678
13350899842
13350905213
13350912049
13350916749
13350921693
13350928773
13350935181
13350940369
13350946290
13350954529
13350962403
13350969727
13350977112
13350982850
13350991273
13351000916
13351008118
13351017701
13351024598
13351030823
13351039795
13351046265
13351055115
13351061585
13351070557
13351080201
13351088074
13351095032
13351103943
13351110718
13351117981
13351124634
13351134217
13351142395
13351150757
13351157959
13351164185
13351171265
13351177063
13351182983
13351189819
13351196228
13351201965
13351208618
13351213806
13351220398
13351226990
13351233276
13351241089
13351247314
13351253723
13351258972
13351266601
13351272095
13351277099
13351281372
13351286621
13351290771
13351295288
13351300659
13351305053
13351309387
13351314148
13351320190
13351326111
13351332031
13351336486
13351340332
13351346496
13351350586
13351355346
13351359802
13351366882
13351371948
13351377502
13351381897
13351387268
13351391906
13351397155
13351402587
13351409057
13351416137
13351420837
13351426940
13351432495
13351437621
13351444824
13351453369
13351461303
13351468871
13351478515
13351484985
13351490112
13351502197
13351507262
13351516540
13351523681
13351535339
13351542785
13351550841
13351558288
13351568053
13351575377
13351581786
13351591186
13351599486
13351606261
13351615661
13351622741
13351631530
13351639220
13351645324
13351653014
13351659362
13351664305
13351667846
13351676940
13351680480
13351687194
13351692015
13351697631
13351703246
13351709716
13351714110
13351721495
13351727355
13351734130
13351739440
13351746337
13351752135
13351758544
13351764037
13351770140
13351776793
13351782530
13351787840
13351793578
13351799315
13351805235
13351814085
13351818602
13351825499
13351830748
13351836058
13351842161
13351849669
13351852171
13351863829
13351869566
13351876829
13351881407
13351889464
13351893492
13351903502
13351907164
13351915953
13351919859
13351927916
13351931151
13351940245
13351943846
13351950865
13351954161
13351961058
13351966490
13351974424
13351980955
13351988584
13351995787
13352005003
13352011656
13352019590
13352026060
13352034544
13352041258
13352048460
13352056333
13352062437
13352068479
13352079710
13352086729
13352093992
13352099973
13352108457
13352117002
13352124387
13352130552
13352138853
13352147642
13352153501
13352161252
13352168699
13352174741
13352179746
13352186399
13352191709
13352198301
13352203672
13352208005
13352213682
13352218381
13352224607
13352229673
13352234983
13352242612
13352246335
13352253965
13352258542
13352266111
13352271299
13352276059
13352282224
13352289304
13352295163
13352302426
13352307981
13352313962
13352319455
13352325620
13352331174
13352337277
13352341977
13352348142
13352353635
13352357358
13352364865
13352368649
13352378049
13352382077
13352389951
13352393857
13352401974
13352406247
13352414426
13352420346
13352426022
13352431454
13352437314
13352443356
13352448910
13352454220
13352462216
13352467648
13352471615
13352479123
13352487668
13352496274
13352504330
13352515072
13352526486
13352539853
13352551815
13352558957
13352572934
13352583065
13352588803
13352599606
13352607357
13352614681
13352625179
13352632870
13352641049
13352647396
13352656429
13352662960
13352671505
13352676144
13352683895
13352690487
13352695919
13352699398
13352706478
13352710140
13352716793
13352721554
13352727840
13352733517
13352740108
13352745174
13352751095
13352756832
13352762081
13352767818
13352773189
13352779232
13352783870
13352788692
13352795711
13352800777
13352805904
13352811458
13352818233
13352822994
13352829647
13352835567
13352839046
13352847652
13352851253
13352859249
13352863338
13352870479
13352876644
13352884151
13352889461
13352894283
13352899654
13352905696
13352914913
13352920467
13352925044
13352930049
13352937374
13352943843
13352948543
13352952083
13352961849
13352966365
13352972224
13352978572
13352987727
13352992671
13353004085
13353009273
13353019893
13353025386
13353035335
13353042659
13353052302
13353059566
13353067805
13353074214
13353083613
13353090266
13353098140
13353106990
13353115840
13353122981
13353127925
13353138972
13353144038
13353154902
13353164363
13353170771
13353175959
13353185298
13353192378
13353198847
13353203242
13353212580
13353217158
13353225947
13353230647
13353238764
13353244685
13353252253
13353258967
13353266963
13353273432
13353279841
13353284541
13353290827
13353296442
13353302668
13353307612
13353312128
13353317377
13353323603
13353328547
13353334101
13353338862
13353343195
13353347285
13353353388
13353356318
13353363215
13353368769
13353373163
13353378657
13353384394
13353389399
13353393427
13353399714
13353406305
13353412165
13353418573
13353423578
13353427790
13353431086
13353438654
13353444208
13353450800
13353452631
13353463129
13353466669
13353473444
13353479853
13353487909
13353492548
13353502313
13353507074
13353516596
13353523187
13353530634
13353537470
13353549616
13353554315
13353563471
13353568048
13353578058
13353584589
13353593073
13353600275
13353608636
13353616083
13353626276
13353633417
13353641473
13353647943
13353656000
13353664606
13353672174
13353681695
13353689447
13353694085
13353697870
13353705377
13353709100
13353716974
13353722101
13353728875
13353734063
13353739801
13353745660
13353751702
13353757135
13353761468
13353767083
13353773065
13353778863
13353784600
13353790155
13353796441
13353803094
13353808038
13353813470
13353819390
13353825677
13353833550
13353839898
13353847711
13353854913
13353863763
13353868829
13353876702
13353884148
13353892083
13353901482
13353907159
13353916741
13353926690
13353933892
13353940362
13353945428
13353948784
13353954217
13353958489
13353965935
13353971367
13353974969
13353980584
13353987420
13353994256
13354000176
13354009697
13354013604
13354022332
13354030449
13354038689
13354048088
13354054802
13354063774
13354071343
13354078545
13354085320
13354094658
13354102959
13354108879
13354115349
13354124382
13354131889
13354140923
13354145439
13354155693
13354160576
13354171135
13354177849
13354184196
13354189384
13354195061
13354199089
13354205742
13354210930
13354216606
13354222282
13354228447
13354234245
13354239799
13354246086
13354250419
13354256645
13354262077
13354268486
13354271477
13354277641
13354280571
13354287346
13354291740
13354296806
13354301750
13354309562
13354315483
13354319755
13354322807
13354330131
13354335624
13354341240
13354346061
13354351615
13354356742
13354362602
13354368217
13354373893
13354378898
13354384208
13354388603
13354396293
13354401359
13354405387
13354410880
13354416496
13354422050
13354427970
13354434806
13354440849
13354455192
13354462394
13354472343
13354481193
13354490836
13354499870
13354508842
13354516776
13354523734
13354534965
13354542472
13354551078
13354561576
13354568107
13354575675
13354581717
13354589957
13354596976
13354607901
13354615714
13354623587
13354631400
13354639518
13354645560
13354650992
13354656180
13354659415
13354667472
13354671500
13354676444
13354680899
13354685599
13354690665
13354695975
13354700919
13354705191
13354712088
13354717154
13354721976
13354726431
13354733023
13354738822
13354744620
13354749503
13354755606
13354758658
13354764883
13354769522
13354775382
13354778860
13354786795
13354792776
13354798025
13354802725
13354809317
13354812857
13354820975
13354824576
13354831595
13354836539
13354843191
13354846548
13354860098
13354865774
13354870108
13354876028
13354882681
13354887625
13354893728
13354899160
13354903372
13354908560
13354916983
13354925406
13354932180
13354941030
13354949209
13354956106
13354964163
13354972097
13354978384
13354986379
13354995596
13355003103
13355011648
13355018484
13355027273
13355035757
13355042715
13355048086
13355060476
13355068411
13355075857
13355085867
13355094656
13355103445
13355110708
13355118459
13355125295
13355133901
13355139760
13355146779
13355152883
13355157644
13355162588
13355167776
13355173513
13355178762
13355184072
13355188955
13355194753
13355200246
13355206655
13355211904
13355218007
13355223195
13355228444
13355236318
13355242788
13355250600
13355257131
13355262563
13355269704
13355274404
13355278066
13355285756
13355291860
13355296742
13355303761
13355308461
13355311940
13355320241
13355323781
13355331105
13355337636
13355342580
13355348683
13355354360
13355361745
13355366567
13355372487
13355379140
13355386403
13355392201
13355399586
13355406544
13355415761
13355422719
13355431264
13355438222
13355446828
13355454274
13355462086
13355469655
13355478627
13355486134
13355493824
13355500660
13355509388
13355516591
13355525013
13355531910
13355538258
13355544728
13355554493
13355560902
13355569508
13355576893
13355585011
13355592884
13355598194
13355602406
13355607533
13355613087
13355617665
13355625294
13355630909
13355636646
13355641834
13355648121
13355654469
13355660938
13355668140
13355674549
13355679737
13355687672
13355693836
13355700672
13355710499
13355720081
13355730823
13355734791
13355743336
13355749866
13355756946
13355764393
13355769275
13355775684
13355780201
13355786854
13355793079
13355798328
13355804065
13355811206
13355817066
13355821705
13355827991
13355832691
13355838672
13355843433
13355850879
13355856250
13355861866
13355867725
13355872180
13355876026
13355887805
13355893299
13355905994
13355913806
13355919910
13355929004
13355934863
13355943713
13355949634
13355954150
13355967273
13355971973
13355983630
13355990832
13355999072
13356006885
13356018725
13356026294
13356035327
13356044116
13356050159
13356058032
13356066150
13356074756
13356080127
13356086963
13356093493
13356098437
13356103869
13356111560
13356114795
13356122973
13356128588
13356134875
13356141162
13356145678
13356152087
13356158007
13356164416
13356169421
13356176867
13356183337
13356188708
13356193591
13356200976
13356205615
13356212145
13356217089
13356223437
13356228381
13356235705
13356241442
13356246142
13356251086
13356257616
13356262499
13356268542
13356274462
13356281603
13356286730
13356291735
13356296130
13356302172
13356307177
13356312487
13356318224
13356323717
13356328783
13356336779
13356342638
13356349413
13356355639
13356364672
13356378039
13356382982
13356396105
13356406420
13356415453
13356423876
13356430468
13356439257
13356445787
13356453478
13356460619
13356469652
13356476976
13356486620
13356493944
13356503893
13356511034
13356520555
13356528063
13356537279
13356544481
13356552416
13356560167
13356569078
13356573473
13356577989
13356583788
13356588426
13356594469
13356599474
13356604173
13356610338
13356614793
13356620531
13356626207
13356630601
13356636400
13356640916
13356649400
13356655443
13356659837
13356665086
13356669481
13356675950
13356680711
13356686509
13356691270
13356697007
13356702928
13356708177
13356712571
13356718919
13356723497
13356728685
13356734239
13356740892
13356745469
13356750840
13356757066
13356762132
13356766648
13356771653
13356778367
13356784410
13356789292
13356795152
13356799424
13356806138
13356810716
13356817002
13356823594
13356830003
13356834458
13356841233
13356846909
13356852158
13356857896
13356863511
13356869248
13356875840
13356882493
13356888169
13356893479
13356898423
13356904587
13356909775
13356915024
13356923508
13356928513
13356934983
13356940720
13356945908
13356952073
13356957200
13356967270
13356976731
13356984665
13356992722
13356996323
13357006150
13357010788
13357018418
13357023972
13357030136
13357033554
13357040573
13357044846
13357052353
13357056259
13357063278
13357069809
13357076157
13357080185
13357087692
13357091355
13357098679
13357105087
13357110336
13357117172
13357122482
13357126389
13357135483
13357139572
13357145432
13357151657
13357156906
13357162277
13357168991
13357172897
13357178452
13357184006
13357190109
13357196274
13357204147
13357208969
13357217880
13357226181
13357234299
13357240524
13357248947
13357255539
13357263107
13357269333
13357273178
13357277755
13357283493
13357287277
13357292404
13357298690
13357303573
13357309127
13357314132
13357318405
13357322677
13357327865
13357332504
13357337387
13357343429
13357346908
13357352767
13357356063
13357363266
13357368270
13357373397
13357378524
13357383529
13357389144
13357393722
13357398483
13357403427
13357408065
13357412521
13357416122
13357422592
13357426681
13357432418
13357438400
13357442733
13357448837
13357453841
13357460067
13357466171
13357470138
13357476546
13357482345
13357487106
13357493941
13357501144
13357507369
13357513412
13357520614
13357527022
13357532638
13357537765
13357543624
13357548507
13357554183
13357559310
13357565169
13357571212
13357577071
13357581710
13357585982
13357592086
13357597213
13357601912
13357608809
13357614058
13357618209
13357623519
13357629805
13357634322
13357640364
13357647383
13357652022
13357657698
13357663314
13357670149
13357675887
13357680831
13357686934
13357691939
13357698287
13357703780
13357710433
13357715987
13357722518
13357726119
13357735030
13357739729
13357748763
13357755110
13357759749
13357764937
13357770796
13357775618
13357782515
13357788252
13357794112
13357799849
13357805464
13357811262
13357814741
13357822737
13357826094
13357833967
13357839033
13357844526
13357848616
13357854597
13357860029
13357865706
13357872297
13357876570
13357882612
13357886946
13357893538
13357897749
13357903730
13357908613
13357913435
13357919294
13357924421
13357929121
13357934919
13357939680
13357945723
13357952864
13357958113
13357963423
13357969709
13357974958
13357982282
13357988020
13357995283
13358000898
13358008589
13358010603
13358019880
13358025739
13358031660
13358036970
13358044538
13358050520
13358055952
13358062849
13358069624
13358075239
13358080549
13358086713
13358095747
13358100812
13358105451
13358111127
13358116254
13358120588
13358127912
13358132184
13358137189
13358142255
13358147199
13358151777
13358156782
13358161359
13358166364
13358171186
13358177778
13358182660
13358187482
13358193952
13358198163
13358203656
13358208112
13358214093
13358218305
13358224286
13358228620
13358234906
13358239301
13358245587
13358250653
13358256696
13358261396
13358266400
13358272443
13358277875
13358283612
13358288251
13358294782
13358300641
13358306012
13358311688
13358316571
13358323468
13358328534
13358334943
13358342511
13358348737
13358354413
13358358685
13358365521
13358370709
13358376874
13358383282
13358388898
13358394513
13358400372
13358406842
13358411969
13358416852
13358424786
13358431134
13358437420
13358442425
13358448712
13358454449
13358460187
13358467938
13358471478
13358478497
13358485638
13358492230
13358497540
13358504498
13358507122
13358516156
13358522015
13358526959
13358534771
13358541241
13358547711
13358553021
13358559002
13358564617
13358571270
13358579449
13358586651
13358597637
13358604778
13358612530
13358619915
13358628277
13358634136
13358639202
13358642925
13358651714
13358656231
13358661358
13358667644
13358671978
13358677837
13358682476
13358687969
13358694317
13358700359
13358705242
13358709148
13358715191
13358721050
13358725689
13358730511
13358736736
13358742595
13358746868
13358752117
13358756450
13358762127
13358768230
13358774212
13358779461
13358784099
13358789837
13358795696
13358798748
13358805034
13358812481
13358817424
13358823223
13358827312
13358834941
13358839580
13358846477
13358853191
13358858318
13358863567
13358868511
13358875347
13358882427
13358888286
13358893596
13358901409
13358907695
13358912944
13358919719
13358926006
13358930461
13358937114
13358942607
13358948894
13358954631
13358960246
13358966533
13358971477
13358976543
13358982402
13358988139
13358996074
13359000041
13359008098
13359013408
13359019572
13359026530
13359034282
13359040141
13359046000
13359051433
13359056315
13359061809
13359066691
13359073893
13359079936
13359085673
13359091716
13359096171
13359103007
13359107829
13359115275
13359123149
13359131510
13359138407
13359144694
13359152323
13359158122
13359164897
13359172343
13359178446
13359185099
13359190775
13359194987
13359200480
13359206645
13359210978
13359217082
13359223917
13359229228
13359235697
13359241557
13359247172
13359253031
13359257059
13359263346
13359272013
13359278178
13359282816
13359288493
13359293131
13359300455
13359304911
13359311442
13359316874
13359323954
13359328776
13359335184
13359341959
13359348063
13359353007
13359359354
13359366129
13359371134
13359376444
13359380289
13359388895
13359395670
13359400736
13359407328
13359412333
13359416178
13359424601
13359428446
13359436319
13359442789
13359448526
13359454569
13359461893
13359469034
13359474405
13359479715
13359485697
13359491190
13359498331
13359504434
13359512186
13359516397
13359523294
13359528482
13359535867
13359541483
13359547525
13359553629
13359558084
13359565775
13359571695
13359577005
13359582437
13359589212
13359595254
13359600564
13359606912
13359616739
13359623269
13359629312
13359634805
13359641458
13359646829
13359652932
13359658426
13359664163
13359671792
13359675454
13359683328
13359689065
13359694497
13359700662
13359705667
13359712869
13359717874
13359723123
13359728494
13359734170
13359740762
13359748086
13359753762
13359760232
13359765725
13359773110
13359780313
13359788430
13359797219
13359801919
13359809731
13359816323
13359820962
13359825967
13359833291
13359836648
13359844338
13359849648
13359857705
13359862038
13359869851
13359874795
13359882790
13359888344
13359894021
13359899270
13359904336
13359911294
13359917275
13359921486
13359926736
13359931069
13359936867
13359941750
13359949074
13359955117
13359962075
13359965065
13359971840
13359976296
13359981850
13359987038
13359992958
13359997841
13360003823
13360009682
13360014992
13360019631
13360025551
13360030922
13360037148
13360042214
13360048928
13360053749
13360059120
13360065407
13360070168
13360074867
13360080849
13360086830
13360091774
13360097084
13360102516
13360107887
13360112770
13360118691
13360124245
13360129860
13360136025
13360142067
13360145668
13360153969
13360157387
13360168251
13360171974
13360179970
13360185951
13360193031
13360197182
13360204079
13360209450
13360214699
13360221840
13360226234
13360233192
13360239540
13360245094
13360251625
13360256263
13360262123
13360267372
13360270851
13360280067
13360283790
13360290321
13360296119
13360301979
13360307167
13360314369
13360319068
13360324989
13360332801
13360338844
13360347633
13360354774
13360361610
13360367225
13360371192
13360379798
13360383705
13360391639
13360397132
13360401161
13360407508
13360411353
13360416602
13360421668
13360427528
13360433204
13360438697
13360443336
13360450538
13360455909
13360459693
13360469154
13360472572
13360479346
13360482703
13360490028
13360494117
13360501319
13360504676
13360512183
13360518897
13360523597
13360529029
13360535438
13360541907
13360547400
13360550940
13360560157
13360565955
13360570594
13360576636
13360584632
13360589515
13360597876
13360603675
13360608924
13360616065
13360621985
13360627112
13360631263
13360636389
13360644263
13360650672
13360656348
13360665198
13360673743
13360684058
13360691321
13360702551
13360709937
13360718848
13360726050
13360732031
13360736426
13360741553
13360746558
13360751868
13360756323
13360762183
13360769507
13360775427
13360779944
13360787085
13360791968
13360797461
13360802344
13360809057
13360815893
13360821875
13360826391
13360831579
13360835913
13360842444
13360847387
13360854468
13360861914
13360867285
13360872107
13360878637
13360883886
13360889868
13360896154
13360902807
13360908483
13360912329
13360919348
13360923315
13360929907
13360935766
13360943212
13360948828
13360958166
13360965612
13360971899
13360978491
13360985388
13360991979
13360999243
13361005102
13361010351
13361015722
13361019384
13361023962
13361029821
13361034094
13361039220
13361043981
13361050695
13361055883
13361060766
13361064611
13361069555
13361075170
13361081029
13361087072
13361093236
13361099035
13361103918
13361109044
13361113378
13361118017
13361121129
13361129308
13361134435
13361139806
13361144140
13361147985
13361153539
13361159032
13361162511
13361170141
13361176305
13361184423
13361190160
13361195714
13361200658
13361207128
13361214879
13361219823
13361225804
13361231603
13361238988
13361245153
13361251561
13361257299
13361264745
13361270238
13361275548
13361280370
13361287450
13361292455
13361298131
13361304295
13361306371
13361317845
13361322179
13361327916
13361333836
13361340672
13361344518
13361351903
13361357030
13361362706
13361369176
13361378941
13361384801
13361391148
13361396641
13361403050
13361407933
13361413731
13361420201
13361426915
13361432164
13361437901
13361444432
13361449620
13361455296
13361458775
13361468602
13361473362
13361481114
13361486241
13361491551
13361497654
13361502598
13361507298
13361513218
13361520970
13361527317
13361533665
13361539585
13361545384
13361553196
13361558995
13361562779
13361570469
13361577427
13361584507
13361591221
13361596226
13361603306
13361608372
13361613499
13361619175
13361623814
13361629368
13361635349
13361640720
13361646885
13361651279
13361654697
13361662815
13361667087
13361675510
13361679294
13361687351
13361691440
13361697178
13361702488
13361707798
13361713047
13361719150
13361723850
13361728672
13361735691
13361740513
13361744785
13361750705
13361755832
13361762180
13361768100
13361775058
13361779758
13361783481
13361792026
13361795810
13361803562
13361809482
13361814182
13361820102
13361825778
13361831211
13361837131
13361841953
13361848300
13361853488
13361860691
13361865634
13361871005
13361876438
13361883945
13361888767
13361892612
13361900852
13361907138
13361912387
13361917453
13361922885
13361927829
13361934909
13361939731
13361945834
13361950656
13361957065
13361962192
13361966220
13361973849
13361979343
13361983737
13361989535
13361996493
13362001498
13362008578
13362014255
13362018588
13362024142
13362028781
13362035556
13362041354
13362049106
13362053744
13362057834
13362064731
13362071261
13362077975
13362083773
13362090853
13362096591
13362104464
13362109408
13362117099
13362121615
13362129306
13362138583
13362149020
13362156527
13362162387
13362168002
13362172274
13362181979
13362188021
13362194369
13362199008
13362204501
13362208956
13362214632
13362219027
13362225130
13362228976
13362237460
13362244112
13362249178
13362256014
13362261080
13362264498
13362271639
13362277193
13362282198
13362287752
13362292269
13362297762
13362304598
13362308565
13362315401
13362320162
13362325838
13362331576
13362337618
13362343294
13362349642
13362354403
13362359896
13362365206
13362370882
13362377474
13362383821
13362388460
13362394503
13362399874
13362406710
13362412386
13362417757
13362423494
13362429964
13362436373
13362442232
13362447725
13362452608
13362458711
13362464876
13362469759
13362476106
13362481783
13362488435
13362490572
13362500520
13362504610
13362511018
13362516390
13362523653
13362530000
13362535555
13362540254
13362546419
13362551668
13362558321
13362564363
13362569368
13362576204
13362581819
13362586519
13362590425
13362598604
13362602327
13362609651
13362615510
13362621492
13362628023
13362634187
13362638826
13362644929
13362649812
13362653962
13362663789
13362668245
13362676851
13362685579
13362691377
13362698396
13362705781
13362713227
13362718843
13362730561
13362736299
13362744294
13362753755
13362764497
13362772675
13362778108
13362789582
13362795686
13362807099
13362815034
13362826325
13362835725
13362845673
13362852631
13362861054
13362868561
13362875764
13362882600
13362890961
13362895539
13362901215
13362906769
13362913300
13362917939
13362922883
13362929352
13362934723
13362939545
13362946930
13362951569
13362958161
13362964631
13362966889
13362976044
13362981293
13362988068
13362991852
13362998322
13363003205
13363009613
13363016022
13363022614
13363026459
13363033783
13363039948
13363045868
13363050934
13363056183
13363061310
13363067230
13363072357
13363078522
13363086212
13363091950
13363097321
13363102875
13363107147
13363112763
13363118744
13363123932
13363129059
13363135406
13363141876
13363146820
13363150909
13363154266
13363162567
13363165985
13363173370
13363176727
13363184051
13363187836
13363194061
13363198700
13363204742
13363210296
13363215545
13363222259
13363227325
13363237213
13363243744
13363249359
13363253814
13363259857
13363264740
13363270477
13363276031
13363280487
13363286468
13363292938
13363298553
13363303253
13363308136
13363314300
13363321441
13363326812
13363333221
13363338287
13363341949
13363349151
13363355010
13363361358
13363368255
13363374481
13363380279
13363386993
13363391692
13363399078
13363404632
13363411834
13363418670
13363428252
13363434417
13363441436
13363448333
13363453826
13363462310
13363468108
13363474212
13363479705
13363484771
13363489715
13363496001
13363499541
13363506072
13363511443
13363518157
13363521697
13363528716
13363532073
13363537810
13363542998
13363548552
13363554351
13363561126
13363566253
13363571318
13363575591
13363582305
13363587188
13363592986
13363597991
13363604033
13363608367
13363614775
13363619658
13363624602
13363630522
13363633940
13363640837
13363647185
13363653716
13363655608
13363663542
13363667021
13363674162
13363677641
13363684783
13363692839
13363700407
13363706938
13363712187
13363716093
13363725066
13363731047
13363737212
13363739287
13363749235
13363754973
13363761504
13363767058
13363771696
13363775725
13363784148
13363788176
13363795622
13363800749
13363806303
13363812285
13363818144
13363822783
13363829863
13363835905
13363842192
13363847258
13363851896
13363858793
13363864775
13363869047
13363870756
13363881437
13363886991
13363891447
13363896879
13363901945
13363908293
13363913481
13363916777
13363924406
13363930815
13363937528
13363941068
13363948576
13363951933
13363957304
13363963835
13363970182
13363976469
13363984037
13363989958
13363997648
13364002226
13364009794
13364014249
13364023710
13364030607
13364036100
13364042692
13364048795
13364053495
13364057889
13364063200
13364069242
13364074979
13364079496
13364084623
13364088407
13364093900
13364097745
13364102750
13364108426
13364114042
13364117826
13364123929
13364128385
13364135038
13364140104
13364145902
13364150419
13364156156
13364162076
13364167020
13364171781
13364178250
13364182584
13364186002
13364193998
13364200956
13364207425
13364211270
13364218045
13364221402
13364227994
13364233426
13364237760
13364243375
13364249600
13364254178
13364259610
13364264127
13364269803
13364275357
13364280911
13364289945
13364295255
13364300137
13364306180
13364310513
13364317105
13364321561
13364324857
13364333768
13364339993
13364344693
13364348355
13364356412
13364359891
13364365567
13364370755
13364376187
13364383572
13364389310
13364394803
13364400296
13364407132
13364412625
13364417996
13364423733
13364431607
13364439297
13364444546
13364449673
13364454556
13364458157
13364467190
13364470974
13364477810
13364483853
13364490811
13364496060
13364502041
13364508267
13364513150
13364517971
13364524807
13364531399
13364538357
13364545803
13364550198
13364557278
13364561123
13364569302
13364576443
13364584255
13364590054
13364596890
13364603237
13364608303
13364615078
13364620754
13364627224
13364636074
13364642055
13364647732
13364655117
13364659328
13364665859
13364672878
13364680385
13364685024
13364692592
13364696621
13364702846
13364708462
13364715420
13364721096
13364727688
13364733791
13364739040
13364743190
13364749050
13364753688
13364760219
13364765957
13364770351
13364776516
13364782497
13364787563
13364790981
13364798122
13364801906
13364808742
13364812221
13364819667
13364825527
13364830226
13364833644
13364841091
13364846523
13364851955
13364856471
13364862209
13364868068
13364873683
13364878871
13364884670
13364889064
13364895412
13364900661
13364906154
13364912563
13364918605
13364922816
13364928798
13364933681
13364939174
13364944728
13364948024
13364956142
13364960292
13364966701
13364969935
13364978419
13364981837
13364987941
13364993678
13365000026
13365005885
13365012172
13365017787
13365023768
13365028468
13365033900
13365040736
13365047511
13365053798
13365059230
13365065516
13365071559
13365076625
13365080226
13365086818
13365092372
13365099635
13365104945
13365110194
13365116847
13365122645
13365127284
13365134303
13365138880
13365144068
13365151148
13365155177
13365165309
13365170741
13365176966
13365184535
13365189600
13365197779
13365206934
13365214747
13365218043
13365228175
13365232691
13365239649
13365247156
13365253504
13365259424
13365266382
13365272120
13365278345
13365282984
13365290064
13365296351
13365302149
13365307215
13365313685
13365318812
13365323816
13365329065
13365334498
13365339991
13365347498
13365351099
13365358423
13365363794
13365369349
13365375818
13365380945
13365386072
13365390894
13365395655
13365402613
13365407617
13365413111
13365417505
13365420862
13365429041
13365434595
13365440943
13365444422
13365451257
13365457666
13365463037
13365466577
13365475671
13365480005
13365487390
13365492822
13365498560
13365504236
13365510400
13365515222
13365521020
13365527795
13365534204
13365538354
13365543603
13365549768
13365555322
13365559534
13365563013
13365571313
13365575281
13365583459
13365586572
13365593469
13365597192
13365603540
13365608178
13365614465
13365621301
13365627893
13365633081
13365639184
13365643945
13365648828
13365653711
13365659509
13365666955
13365672509
13365676843
13365682458
13365688256
13365693872
13365698693
13365702661
13365710900
13365717248
13365722131
13365725610
13365734704
13365738427
13365746057
13365752526
13365761254
13365768639
13365774560
13365778832
13365791589
13365799401
13365804589
13365812829
13365819299
13365823754
13365829491
13365834985
13365840356
13365844872
13365850182
13365856652
13365862206
13365868432
13365873681
13365879235
13365883813
13365887719
13365890709
13365898705
13365904870
13365909691
13365912926
13365921349
13365928185
13365934411
13365938439
13365946373
13365952355
13365958336
13365963402
13365967980
13365971215
13365979821
13365983239
13365989586
13365995140
13366001000
13366004784
13366011498
13366017052
13366024071
13366030358
13366036522
13366042259
13366049278
13366053368
13366059410
13366064415
13366070091
13366074242
13366081017
13366086266
13366091820
13366097740
13366102867
13366107567
13366113182
13366117393
13366123863
13366130760
13366136803
13366142296
13366147972
13366152122
13366157371
13366163719
13366167442
13366175926
13366181907
13366186546
13366190025
13366197166
13366200767
13366208641
13366211998
13366219322
13366224998
13366229576
13366234398
13366240379
13366245689
13366251243
13366255821
13366260215
13366266502
13366272117
13366276329
13366282554
13366288963
13366294212
13366298484
13366304771
13366309837
13366315940
13366323204
13366329429
13366335533
13366340843
13366347190
13366354575
13366363120
13366369346
13366376670
13366383750
13366389610
13366394431
13366400535
13366405845
13366413291
13366417564
13366423118
13366427940
13366433799
13366441123
13366446250
13366452476
13366457664
13366462302
13366467979
13366472495
13366475730
13366484214
13366488181
13366497031
13366501059
13366509238
13366513266
13366519797
13366524497
13366531333
13366535972
13366541343
13366547507
13366553916
13366559409
13366564231
13366568503
13366575461
13366580405
13366585471
13366593222
13366599082
13366605979
13366610007
13366616599
13366622580
13366628012
13366634665
13366639487
13366646811
13366651572
13366659445
13366665549
13366672202
13366679709
13366685935
13366693808
13366698874
13366703879
13366710959
13366716879
13366721396
13366731222
13366736044
13366742453
13366747824
13366753989
13366760092
13366765646
13366769369
13366777304
13366781088
13366788473
13366795431
13366803671
13366807516
13366813620
13366818686
13366826010
13366830893
13366837179
13366842917
13366848776
13366854147
13366857870
13366865622
13366871359
13366877035
13366882345
13366889181
13366894186
13366900900
13366907247
13366911947
13366916769
13366922750
13366931173
13366937460
13366943258
13366949972
13366956259
13366960348
13366968404
13366981344
13366986654
13366995687
13367001241
13367007345
13367011251
13367019247
13367023153
13367030843
13367036825
13367042501
13367046163
13367054830
13367061666
13367067281
13367074361
13367079122
13367082784
13367090658
13367096700
13367104085
13367106588
13367114400
13367118856
13367126241
13367131551
13367138082
13367143270
13367148885
13367154683
13367160360
13367164937
13367170674
13367176595
13367181478
13367185933
13367192647
13367197530
13367203939
13367209615
13367213338
13367221700
13367227071
13367233052
13367240254
13367245137
13367250813
13367255940
13367261006
13367268147
13367272908
13367280232
13367285054
13367291768
13367298055
13367303487
13367309163
13367315022
13367319783
13367323689
13367332539
13367336385
13367343953
13367350239
13367354817
13367359395
13367366414
13367371663
13367378377
13367385396
13367390645
13367397236
13367403645
13367409504
13367413533
13367420796
13367424885
13367433918
13367438740
13367447346
13367454731
13367462117
13367467793
13367473286
13367479023
13367486286
13367493550
13367498860
13367503498
13367509602
13367514851
13367520344
13367526386
13367528523
13367538349
13367542011
13367549397
13367556049
13367561848
13367568073
13367575398
13367581440
13367588581
13367596333
13367603352
13367609516
13367614399
13367618061
13367625996
13367629536
13367636921
13367640400
13367647846
13367651386
13367658466
13367664448
13367669880
13367674824
13367680317
13367685749
13367691913
13367696796
13367702106
13367706318
13367713154
13367718586
13367724628
13367730732
13367735920
13367740314
13367746662
13367751606
13367758258
13367763385
13367770038
13367775409
13367780902
13367787128
13367789203
13367799030
13367802692
13367813312
13367817768
13367825946
13367830097
13367836383
13367841937
13367848041
13367853046
13367859149
13367863971
13367871112
13367876544
13367883319
13367890033
13367894489
13367900897
13367906268
13367913226
13367917010
13367923846
13367931415
13367937518
13367941363
13367948566
13367954608
13367960040
13367965045
13367970782
13367976336
13367983233
13367987994
13367993792
13368000384
13368002520
13368011798
13368015582
13368022906
13368026690
13368035601
13368039386
13368046588
13368052142
13368057147
13368063250
13368069659
13368075885
13368083270
13368089129
13368095233
13368100360
13368104388
13368110308
13368116473
13368122637
13368130389
13368135577
13368139971
13368146868
13368151751
13368158770
13368164752
13368173480
13368180438
13368187334
13368192706
13368198504
13368203143
13368210528
13368216936
13368222613
13368229021
13368235125
13368240679
13368245928
13368249285
13368255511
13368261004
13368266436
13368274187
13368278948
13368283648
13368290117
13368295244
13368300676
13368304400
13368311480
13368316851
13368324236
13368327593
13368335100
13368338579
13368345232
13368349932
13368356829
13368363726
13368369829
13368372942
13368380449
13368383806
13368390764
13368395891
13368401262
13368406572
13368412187
13368417131
13368422991
13368429949
13368435198
13368439714
13368445451
13368452959
13368457903
13368464433
13368469133
13368475176
13368480852
13368487321
13368492021
13368498125
13368501909
13368509660
13368513261
13368520769
13368524248
13368530778
13368536333
13368541337
13368548356
13368553850
13368558916
13368566362
13368571123
13368576494
13368583024
13368587968
13368593644
13368599565
13368604387
13368611589
13368615617
13368623491
13368627580
13368635698
13368639482
13368646623
13368650468
13368658830
13368662980
13368669633
13368674943
13368681230
13368687944
13368694352
13368699418
13368706803
13368712846
13368717484
13368727677
13368732621
13368740678
13368749040
13368758378
13368765824
13368770341
13368782243
13368789384
13368800065
13368810502
13368821000
13368828995
13368836259
13368846390
13368852860
13368861100
13368869095
13368872391
13368883011
13368886063
13368894303
13368901261
13368908341
13368914261
13368919144
13368924332
13368931290
13368936478
13368943070
13368948380
13368955277
13368960282
13368966690
13368971512
13368978836
13368983231
13368990982
13368997147
13369002945
13369007828
13369014420
13369019547
13369025467
13369031449
13369036881
13369042313
13369049149
13369053726
13369058670
13369064102
13369065750
13369074966
13369078384
13369085220
13369092484
13369097183
13369100845
13369109085
13369112625
13369118790
13369123611
13369129227
13369134537
13369141434
13369146683
13369152420
13369157974
13369163833
13369168777
13369176040
13369181717
13369188125
13369192947
13369197891
13369202285
13369209305
13369214492
13369221389
13369226944
13369232925
13369237198
13369243362
13369249405
13369254959
13369259231
13369265396
13369269729
13369276626
13369281265
13369286270
13369292617
13369298233
13369303420
13369308975
13369314163
13369320754
13369325454
13369328811
13369336624
13369340164
13369347610
13369352310
13369357925
13369365371
13369372024
13369377944
13369384414
13369389907
13369395217
13369402236
13369408340
13369417434
13369424453
13369433547
13369439712
13369446731
13369454238
13369461013
13369466994
13369473464
13369478408
13369485183
13369491164
13369497512
13369502822
13369509047
13369510817
13369519057
13369522475
13369530776
13369535903
13369541518
13369546950
13369553420
13369558181
13369564345
13369569106
13369573928
13369580153
13369585890
13369591628
13369598769
13369604872
13369610854
13369617385
13369622572
13369629042
13369634291
13369638136
13369646986
13369652052
13369661330
13369665907
13369671950
13369677931
13369682448
13369685561
13369693312
13369698256
13369702589
13369708083
13369712233
13369715468
13369722426
13369728041
13369735609
13369739638
13369747572
13369751417
13369758497
13369761915
13369768812
13369774672
13369780348
13369786085
13369792189
13369797560
13369804579
13369809218
13369814283
13369819166
13369824781
13369832228
13369836500
13369841322
13369847914
13369852613
13369858351
13369862562
13369865858
13369874098
13369880079
13369886854
13369890272
13369896681
13369901808
13369907545
13369911024
13369918287
13369924574
13369929884
13369934583
13369940382
13369945265
13369950575
13369956007
13369961622
13369966749
13369973524
13369978162
13369985975
13369991529
13369998548
13370004102
13370013319
13370021802
13370026929
13370034132
13370041028
13370048047
13370050245
13370060254
13370066663
13370073560
13370075879
13370083692
13370087842
13370095044
13370100232
13370107068
13370112867
13370117017
13370121289
13370125989
13370130689
13370136792
13370141675
13370147596
13370152600
13370158460
13370163037
13370168653
13370175366
13370180066
13370184644
13370190625
13370196363
13370202039
13370206983
13370212476
13370217908
13370219983
13370228955
13370230847
13370238843
13370245068
13370251050
13370254773
13370261121
13370266126
13370272107
13370276929
13370281201
13370288159
13370292798
13370298596
13370304211
13370309827
13370314160
13370319958
13370324841
13370333081
13370338635
13370343518
13370348950
13370354870
13370360058
13370364636
13370367810
13370375073
13370380261
13370386242
13370392041
13370398449
13370404858
13370409070
13370413708
13370419323
13370424878
13370430554
13370435742
13370442639
13370447949
13370452710
13370457898
13370464245
13370471081
13370476635
13370481884
13370485302
13370493847
13370497692
13370503796
13370509594
13370516979
13370521191
13370529736
13370534496
13370542492
13370548779
13370557079
13370562206
13370571728
13370577038
13370588329
13370592846
13370599621
13370605846
13370612499
13370617992
13370625622
13370633556
13370639721
13370644665
13370649669
13370654552
13370661266
13370667125
13370672069
13370677074
13370682934
13370688060
13370694225
13370698803
13370705211
13370710460
13370716747
13370723888
13370728222
13370734447
13370736400
13370746593
13370750743
13370757885
13370762889
13370769603
13370775402
13370780040
13370785167
13370789989
13370795543
13370801036
13370805919
13370811351
13370816966
13370822643
13370827220
13370833812
13370838390
13370844188
13370848338
13370854869
13370859020
13370865794
13370871288
13370875682
13370881786
13370883861
13370893321
13370898692
13370905833
13370912791
13370917674
13370923839
13370928172
13370931468
13370938975
13370942576
13370949107
13370954234
13370961558
13370964915
13370971873
13370975291
13370981334
13370986644
13370991649
13370998973
13371005137
13371009898
13371016429
13371021861
13371026561
13371032664
13371037974
13371043284
13371047313
13371056224
13371059886
13371068248
13371072764
13371078746
13371085093
13371091197
13371097422
13371104746
13371109934
13371114939
13371121836
13371124339
13371132884
13371135203
13371144907
13371152110
13371157847
13371165171
13371171153
13371179575
13371184702
13371192210
13371198984
13371208140
13371215952
13371221689
13371229929
13371235117
13371239084
13371248972
13371254587
13371261362
13371267649
13371272898
13371276621
13371284983
13371288950
13371296213
13371302622
13371307993
13371311472
13371319834
13371323740
13371330820
13371335947
13371342112
13371349314
13371354929
13371359201
13371365183
13371370127
13371377024
13371381723
13371386911
13371393869
13371399301
13371403452
13371408701
13371415048
13371418466
13371424509
13371429575
13371436411
13371442392
13371449228
13371452890
13371459665
13371465219
13371470468
13371475107
13371481393
13371486826
13371492441
13371497446
13371503427
13371508249
13371513681
13371518198
13371524423
13371530588
13371536264
13371542612
13371547250
13371551462
13371556955
13371562387
13371566476
13371574655
13371578805
13371586191
13371591012
13371596566
13371601327
13371607614
13371613656
13371619943
13371625985
13371632516
13371637643
13371643747
13371649057
13371654306
13371661264
13371666635
13371673898
13371679940
13371685006
13371688912
13371696237
13371701303
13371708199
13371712289
13371719796
13371726083
13371731942
13371737679
13371744332
13371749398
13371754891
13371760018
13371768075
13371777169
13371783334
13371788338
13371799874
13371806466
13371812630
13371820138
13371827645
13371835091
13371839852
13371846200
13371850106
13371858529
13371862374
13371869759
13371877083
13371881539
13371885201
13371893685
13371901009
13371911507
13371915718
13371922371
13371929024
13371935799
13371941170
13371946053
13371950814
13371956246
13371962838
13371968941
13371974312
13371979988
13371984749
13371989327
13371994087
13372000801
13372005501
13372012825
13372017830
13372023201
13372029549
13372035835
13372041267
13372047066
13372053352
13372056892
13372065498
13372071663
13372076668
13372080147
13372087959
13372091072
13372097481
13372103401
13372111214
13372114876
13372122261
13372125618
13372132637
13372136055
13372142647
13372148140
13372153145
13372158638
13372165962
13372170662
13372174812
13372181343
13372185981
13372192390
13372196357
13372203987
13372208503
13372214119
13372219490
13372225715
13372230537
13372234687
13372240547
13372245796
13372252815
13372257576
13372263435
13372268318
13372271858
13372279670
13372283149
13372289314
13372295112
13372300971
13372306159
13372312568
13372317329
13372322822
13372327522
13372333320
13372340522
13372346076
13372350532
13372358772
13372363960
13372370734
13372378059
13372385261
13372391059
13372398811
13372405768
13372414558
13372420966
13372426154
13372433112
13372439521
13372445563
13372449958
13372456611
13372460517
13372466681
13372473884
13372482489
13372490607
13372500678
13372509589
13372518134
13372525580
13372533515
13372545539
13372555670
13372565863
13372575934
13372582221
13372589850
13372596564
13372604987
13372612799
13372620429
13372627936
13372636969
13372644843
13372650641
13372659247
13372668585
13372676276
13372683722
13372692877
13372701239
13372712164
13372721442
13372729803
13372737616
13372745367
13372753912
13372762762
13372771063
13372779913
13372786627
13372795782
13372802374
13372813543
13372818304
13372829840
13372838629
13372845159
13372855230
13372861517
13372870489
13372879461
13372887884
13372895269
13372904180
13372911260
13372920477
13372925665
13372936895
13372941961
13372953985
13372959112
13372970159
13372979436
13372987676
13372995245
13373003179
13373012395
13373018804
13373029363
13373036443
13373045598
13373052617
13373061040
13373067693
13373079961
13373086553
13373106755
13373115972
13373123357
13373133245
13373140691
13373151555
13373156316
13373166448
13373173650
13373180913
13373188542
13373196355
13373203435
13373210881
13373218327
13373226567
13373234136
13373242436
13373249455
13373256902
13373263554
13373269658
13373280400
13373289494
13373296513
13373307622
13373315373
13373322514
13373329655
13373336918
13373345280
13373353337
13373361393
13373368779
13373376713
13373384037
13373391362
13373400212
13373408146
13373415959
13373423344
13373431645
13373439274
13373446781
13373455448
13373462956
13373470097
13373478459
13373486454
13373494023
13373500370
13373511295
13373515690
13373527592
13373535282
13373542728
13373550663
13373558781
13373567814
13373574345
13373584232
13373592472
13373599857
13373607365
13373614933
13373622928
13373631962
13373640690
13373647159
13373655765
13373665653
13373673221
13373681583
13373687992
13373696903
13373705143
13373712345
13373718814
13373728214
13373738040
13373745243
13373754154
13373762393
13373769596
13373777652
13373787296
13373794437
13373802493
13373811893
13373817325
13373828006
13373837528
13373844302
13373849185
13373855838
13373859866
13373867252
13373870425
13373878604
13373884341
13373888003
13373893619
13373899844
13373904239
13373909610
13373914615
13373918521
13373923831
13373929385
13373934268
13373939395
13373944827
13373949771
13373954593
13373958743
13373963565
13373967166
13373974490
13373979678
13373982547
13373988833
13373991336
13373996585
13374001162
13374006839
13374011111
13374016177
13374021304
13374025027
13374029361
13374034243
13374051638
13374056338
13374062564
13374067080
13374071047
13374075503
13374081057
13374085452
13374089419
13374094607
13374099001
13374105837
13374109438
13374116335
13374121096
13374126833
13374132510
13374137270
13374143130
13374149966
13374154848
13374161562
13374166811
13374171938
13374177248
13374182375
13374187807
13374192324
13374198061
13374204470
13374209719
13374214785
13374220034
13374225039
13374232302
13374236757
13374242190
13374248354
13374254702
13374259951
13374266359
13374271120
13374275026
13374283999
13374287600
13374294008
13374300295
13374306948
13374312075
13374317873
13374323549
13374329653
13374334413
13374340334
13374348879
13374356142
13374363039
13374371950
13374378542
13374386049
13374393984
13374401735
13374407411
13374412538
13374417360
13374423769
13374427309
13374435732
13374439638
13374445375
13374449770
13374455019
13374459596
13374464662
13374469240
13374475160
13374480775
13374486269
13374491762
13374496522
13374502138
13374507753
13374511903
13374518251
13374524415
13374529298
13374535646
13374540162
13374543275
13374549806
13374552980
13374561036
13374565126
13374572633
13374575990
13374582216
13374587831
13374593690
13374596864
13374603700
13374606996
13374615174
13374618226
13374624940
13374630189
13374637086
13374640504
13374647096
13374652711
13374658204
13374662965
13374669740
13374675172
13374680360
13374684937
13374690064
13374697206
13374701905
13374706788
13374713380
13374718079
13374723695
13374729066
13374730958
13374738160
13374743592
13374749574
13374754823
13374759522
13374766236
13374772706
13374777955
13374784669
13374788148
13374796204
13374799683
13374806397
13374812073
13374816895
13374820130
13374828919
13374835145
13374840149
13374845521
13374852173
13374855958
13374862427
13374867066
13374874329
13374881043
13374886780
13374891541
13374899048
13374905518
13374913086
13374917664
13374926941
13374931763
13374941956
13374949585
13374953858
13374962647
13374966980
13374974610
13374978699
13374985474
13374990357
13374996948
13375000305
13375006104
13375011353
13375018066
13375022827
13375028565
13375033814
13375039307
13375044373
13375050232
13375055237
13375061035
13375067139
13375073242
13375077820
13375083740
13375088623
13375095337
13375102234
13375107483
13375112366
13375118896
13375123169
13375128174
13375134399
13375139892
13375144531
13375149963
13375157593
13375163879
13375168823
13375172790
13375181213
13375186767
13375193481
13375198120
13375204284
13375210144
13375216735
13375218811
13375227905
13375231689
13375239563
13375243408
13375250488
13375256347
13375261535
13375267211
13375273559
13375279235
13375285339
13375290954
13375297851
13375304748
13375310546
13375316589
13375318908
13375328124
13375332458
13375339721
13375344848
13375351562
13375357604
13375363341
13375367980
13375372375
13375378905
13375384154
13375388915
13375395263
13375403319
13375408752
13375415465
13375420348
13375426147
13375429870
13375436217
13375441588
13375446959
13375453002
13375458922
13375465697
13375470824
13375475341
13375481200
13375487731
13375493834
13375500548
13375508788
13375515929
13375523986
13375529296
13375536803
13375543456
13375551818
13375558470
13375565062
13375571593
13375577269
13375581297
13375589964
13375593932
13375601622
13375608519
13375612914
13375616454
13375624266
13375627623
13375633299
13375636595
13375643370
13375650023
13375658568
13375664976
13375670164
13375675352
13375681212
13375686278
13375691283
13375697874
13375702452
13375706785
13375713255
13375718260
13375722960
13375728392
13375733763
13375740782
13375748350
13375753111
13375758116
13375764341
13375769957
13375774168
13375780211
13375787535
13375795164
13375800108
13375803465
13375812254
13375817259
13375821775
13375827696
13375833067
13375839842
13375844847
13375848020
13375856077
13375859434
13375867735
13375873472
13375878355
13375883848
13375890440
13375895078
13375900816
13375906126
13375911497
13375917478
13375921751
13375928892
13375934141
13375938902
13375944456
13375950742
13375955747
13375959898
13375963255
13375972044
13375978696
13375983884
13375990781
13375995298
13375998838
13376005735
13376009275
13376015806
13376021726
13376029416
13376033994
13376040220
13376045774
13376052488
13376057248
13376063230
13376069822
13376076719
13376082700
13376086362
13376094175
13376098569
13376107053
13376114194
13376119687
13376127500
13376134946
13376141110
13376146970
13376155271
13376159299
13376167417
13376172421
13376178952
13376184018
13376190244
13376196042
13376202390
13376207211
13376213986
13376219540
13376225949
13376231259
13376238461
13376242856
13376249142
13376255734
13376260129
13376267148
13376274045
13376278866
13376284909
13376289914
13376295712
13376299985
13376305173
13376313168
13376319455
13376324826
13376328183
13376334897
13376340573
13376347226
13376351071
13376357968
13376363522
13376368588
13376374203
13376378720
13376384579
13376390133
13376394955
13376399533
13376406186
13376412167
13376417355
13376423153
13376427426
13376433590
13376438046
13376443905
13376450741
13376457455
13376463253
13376468197
13376473080
13376479489
13376483883
13376489132
13376494808
13376501949
13376506527
13376510067
13376518063
13376521664
13376528805
13376532162
13376538754
13376543941
13376550716
13376556698
13376562252
13376569332
13376574825
13376580257
13376585262
13376590877
13376597469
13376602779
13376609859
13376614498
13376620479
13376626095
13376629818
13376636471
13376642574
13376649654
13376656368
13376660762
13376665889
13376672237
13376677120
13376682979
13376693294
13376698665
13376705806
13376713680
13376720760
13376727352
13376733699
13376742610
13376749019
13376755733
13376761959
13376766231
13376772212
13376777156
13376781124
13376789546
13376793269
13376800227
13376808345
13376812557
13376817195
13376822810
13376827632
13376833369
13376840388
13376846492
13376851741
13376857112
13376861995
13376867427
13376871822
13376878108
13376884944
13376890376
13376894954
13376900508
13376906611
13376911250
13376915706
13376921931
13376927730
13376931758
13376940181
13376942866
13376951411
13376955012
13376962214
13376967463
13376972712
13376978877
13376984309
13376990229
13376996028
13376999568
13377005183
13377012019
13377016536
13377025630
13377031672
13377037165
13377041804
13377046076
13377052180
13377056513
13377062434
13377070246
13377076228
13377081172
13377084345
13377092463
13377097224
13377102595
13377106074
13377114069
13377119807
13377125788
13377131586
13377138483
13377143549
13377148554
13377155451
13377160822
13377167170
13377173640
13377180659
13377185480
13377190729
13377194636
13377202875
13377206843
13377214777
13377220514
13377227472
13377232721
13377238642
13377244257
13377248652
13377255243
13377261713
13377268488
13377272455
13377280634
13377284418
13377290583
13377296625
13377304621
13377308832
13377317743
13377322565
13377333368
13377340265
13377345026
13377355646
13377363458
13377370233
13377372553
13377382074
13377389459
13377395685
13377401910
13377407221
13377414789
13377421381
13377426996
13377430292
13377436578
13377439630
13377445489
13377450372
13377455682
13377461359
13377467340
13377471857
13377477472
13377482355
13377489068
