11721914388
11721920431
11721927755
11721932455
11721939535
11721945028
11721949544
11721955831
11721961751
11721965841
11721971761
11721978170
11721983541
11721990682
11721996786
11722002279
11722008687
11722015401
11722021688
11722029195
11722034017
11722041036
11722048482
11722051656
11722061422
11722069234
11722075277
11722080892
11722087117
11722093404
11722100423
11722105367
11722111898
11722116902
11722123006
11722130025
11722138326
11722147908
11722156514
11722162984
11722179280
11722187459
11722193990
11722200154
11722206319
11722213460
11722219624
11722224629
11722230672
11722238118
11722245076
11722250569
11722256428
11722264302
11722269734
11722276631
11722281819
11722288045
11722293904
11722300313
11722306355
11722312153
11722319294
11722325398
11722331257
11722336934
11722343098
11722347554
11722353962
11722360310
11722366291
11722372944
11722377705
11722383259
11722390217
11722395344
11722401692
11722407856
11722412495
11722420552
11722426716
11722433003
11722439289
11722443012
11722450154
11722457661
11722463947
11722469929
11722476338
11722481648
11722487690
11722494404
11722500629
11722506733
11722512531
11722519306
11722523701
11722532062
11722536579
11722545856
11722551533
11722556415
11722563801
11722570759
11722576740
11722582783
11722588825
11722595295
11722601642
11722607502
11722613666
11722620685
11722627216
11722633442
11722640217
11722645832
11722652668
11722660724
11722666462
11722674640
11722680317
11722689899
11722694721
11722703022
11722710956
11722718280
11722723590
11722729755
11722736225
11722741474
11722749469
11722755329
11722761920
11722768756
11722773395
11722780353
11722787006
11722793292
11722798541
11722804645
11722810077
11722816974
11722823505
11722829486
11722836261
11722842548
11722849933
11722856280
11722864947
11722872333
11722878558
11722886065
11722891742
11722900775
11722909015
11722915057
11722924273
11722928302
11722938006
11722945269
11722952350
11722961993
11722967547
11722974505
11722981036
11722989154
11722996661
11723002459
11723012225
11723017657
11723026812
11723033709
11723042132
11723046954
11723056109
11723060870
11723071185
11723076251
11723085711
11723093584
11723099627
11723108843
11723115923
11723124834
11723129229
11723139666
11723147784
11723155718
11723163225
11723169634
11723176592
11723184893
11723192827
11723202227
11723207720
11723216143
11723221941
11723231829
11723237261
11723245745
11723252703
11723262163
11723269487
11723275713
11723283220
11723289324
11723294146
11723299456
11723306230
11723311113
11723315996
11723324358
11723331682
11723337297
11723342851
11723347673
11723352190
11723356767
11723360430
11723366106
11723370500
11723375383
11723378923
11723383684
11723388323
11723392473
11723397112
11723402300
11723407060
11723413286
11723418596
11723423357
11723428361
11723432146
11723436845
11723441911
11723446916
11723451372
11723456377
11723459611
11723465166
11723469316
11723475358
11723481523
11723486955
11723490068
11723496110
11723502092
11723506242
11723509477
11723517351
11723520768
11723527665
11723533525
11723537919
11723542619
11723549272
11723553972
11723558244
11723564470
11723569169
11723573625
11723580888
11723585710
11723591142
11723595231
11723601579
11723606034
11723611589
11723617448
11723623612
11723627702
11723633500
11723637773
11723643876
11723648026
11723654069
11723659745
11723663346
11723670487
11723673966
11723680070
11723684586
11723690385
11723696488
11723702592
11723707658
11723713090
11723717667
11723724198
11723728287
11723734574
11723739152
11723746171
11723752213
11723758256
11723762833
11723767899
11723773270
11723776688
11723783463
11723787125
11723793351
11723798356
11723805497
11723810868
11723816971
11723822342
11723827836
11723832779
11723840531
11723847611
11723853226
11723858719
11723865921
11723870499
11723877640
11723882462
11723887711
11723893143
11723899124
11723903336
11723908768
11723912979
11723917435
11723923355
11723928299
11723932450
11723937149
11723943436
11723947891
11723951676
11723956619
11723962113
11723966690
11723970902
11723977127
11723981461
11723986588
11723991531
11723995499
11724003006
11724008255
11724012894
11724017288
11724023087
11724027908
11724033585
11724039017
11724043167
11724049576
11724054703
11724058548
11724064895
11724070816
11724075027
11724080826
11724085037
11724091873
11724097488
11724100906
11724106399
11724110916
11724117386
11724121902
11724127151
11724134964
11724139602
11724145889
11724150528
11724155227
11724160843
11724166824
11724172805
11724177505
11724183181
11724189712
11724192092
11724200943
11724206619
11724210769
11724216384
11724222244
11724228530
11724234512
11724239517
11724244949
11724250442
11724259414
11724263442
11724270706
11724274368
11724281570
11724287307
11724292068
11724298110
11724304031
11724308974
11724315017
11724319961
11724326919
11724331741
11724337295
11724342361
11724346877
11724352004
11724357986
11724363540
11724370498
11724375747
11724382644
11724386245
11724394423
11724398513
11724405959
11724411147
11724420669
11724426772
11724433486
11724438857
11724442946
11724449599
11724455947
11724459914
11724464370
11724470351
11724474562
11724479750
11724484023
11724489638
11724494460
11724499953
11724504653
11724510512
11724515578
11724521376
11724525771
11724531508
11724537123
11724542067
11724547682
11724552321
11724556471
11724563002
11724566969
11724571791
11724577467
11724582045
11724587843
11724593947
11724598280
11724603896
11724607619
11724612440
11724617689
11724623427
11724629103
11724634169
11724640089
11724644972
11724650526
11724653822
11724661513
11724665175
11724671156
11724675856
11724682020
11724687086
11724693434
11724698073
11724703444
11724707899
11724715956
11724720350
11724727064
11724731642
11724737135
11724742567
11724747572
11724753065
11724758375
11724764112
11724767652
11724773939
11724779249
11724784681
11724787916
11724794020
11724799147
11724805921
11724812147
11724817274
11724822462
11724828260
11724832594
11724838392
11724843031
11724850294
11724856642
11724861219
11724867506
11724872938
11724877027
11724882459
11724888075
11724893079
11724898634
11724903761
11724910291
11724912305
11724922071
11724926893
11724933607
11724940687
11724947278
11724955274
11724960584
11724966382
11724973462
11724980298
11724986158
11724991285
11724997266
11725002454
11725006482
11725012525
11725018140
11725023328
11725028821
11725035230
11725040296
11725045484
11725050428
11725055982
11725061475
11725066236
11725070508
11725074170
11725085950
11725090406
11725095288
11725099683
11725105176
11725110791
11725114881
11725123364
11725126721
11725131848
11725137464
11725143262
11725147534
11725152417
11725157910
11725164197
11725170117
11725173291
11725181104
11725185620
11725191602
11725194775
11725201184
11725206311
11725212781
11725218457
11725224377
11725227917
11725236401
11725240735
11725247937
11725253613
11725259839
11725265637
11725271985
11725276806
11725283093
11725289502
11725295300
11725300427
11725304516
11725313550
11725316967
11725323315
11725328076
11725333325
11725337902
11725343823
11725348828
11725355236
11725359997
11725365979
11725371472
11725377392
11725382153
11725389294
11725393994
11725400830
11725404919
11725409802
11725415600
11725421215
11725425732
11725430859
11725436413
11725442028
11725449535
11725452831
11725458935
11725463879
11725470165
11725475048
11725479931
11725486889
11725492870
11725498608
11725506664
11725512096
11725516796
11725523266
11725528149
11725534679
11725539196
11725544567
11725549450
11725554211
11725558483
11725564464
11725570507
11725575146
11725579601
11725585033
11725588146
11725593517
11725597545
11725602184
11725606334
11725612377
11725617260
11725622387
11725625621
11725634288
11725640514
11725645397
11725651378
11725655346
11725661754
11725666149
11725672252
11725677135
11725682750
11725686229
11725691844
11725696910
11725702770
11725707469
11725713695
11725716747
11725722972
11725726879
11725732921
11725738475
11725743114
11725748729
11725752696
11725758251
11725761791
11725768199
11725775279
11725779124
11725784557
11725788341
11725792796
11725799876
11725804332
11725808604
11725813548
11725818065
11725822642
11725828441
11725834239
11725838634
11725843272
11725847117
11725852733
11725858104
11725861827
11725868724
11725875194
11725879527
11725883555
11725889049
11725894481
11725899913
11725907603
11725913585
11725917064
11725920909
11725927195
11725931712
11725935435
11725943492
11725948924
11725952464
11725958079
11725963084
11725968455
11725972666
11725980113
11725986216
11725993846
11725999644
11726004527
11726010874
11726015086
11726020640
11726025950
11726030100
11726035288
11726041026
11726044993
11726050181
11726053721
11726061350
11726066050
11726072459
11726077342
11726082529
11726086619
11726091441
11726097727
11726103587
11726107798
11726112742
11726115977
11726122996
11726128062
11726134226
11726140757
11726145212
11726150950
11726155955
11726162668
11726168528
11726173350
11726179270
11726183848
11726189097
11726193857
11726200083
11726203074
11726208689
11726216074
11726221506
11726227427
11726231943
11726237436
11726242868
11726248728
11726256357
11726261789
11726266184
11726271494
11726277048
11726281076
11726286997
11726292124
11726297434
11726303110
11726309336
11726314890
11726318491
11726325510
11726331857
11726336923
11726343393
11726348520
11726355722
11726360422
11726371408
11726377023
11726382639
11726388376
11726392526
11726398752
11726401559
11726408517
11726416818
11726422189
11726427682
11726430673
11726437997
11726442941
11726447397
11726455026
11726460885
11726466379
11726473215
11726479379
11726485360
11726489755
11726497323
11726504892
11726510080
11726515634
11726521615
11726525644
11726532357
11726539865
11726543710
11726548959
11726554147
11726559396
11726563974
11726569284
11726574960
11726580148
11726583322
11726589364
11726594857
11726599801
11726604440
11726608163
11726616036
11726622811
11726627084
11726631478
11726636422
11726640511
11726644845
11726651132
11726656197
11726661507
11726666390
11726670358
11726676766
11726680245
11726686227
11726693246
11726696969
11726701302
11726706551
11726711373
11726716134
11726721261
11726726510
11726731148
11726737252
11726740670
11726745980
11726754342
11726758736
11726764107
11726767647
11726772713
11726778023
11726781502
11726786690
11726792183
11726797493
11726801766
11726807137
11726812325
11726816597
11726821907
11726827401
11726832955
11726837532
11726841866
11726845467
11726850350
11726854988
11726860787
11726865547
11726870064
11726875679
11726880684
11726885872
11726890816
11726895455
11726899788
11726905770
11726910958
11726914925
11726921211
11726927254
11726933540
11726939156
11726943855
11726951668
11726957893
11726964729
11726970894
11726975594
11726981270
11726985664
11726991219
11726996712
11727000374
11727007454
11727011726
11727017891
11727023018
11727028206
11727032967
11727038826
11727043342
11727049751
11727052620
11727058967
11727064705
11727070015
11727074348
11727079719
11727086555
11727090889
11727097664
11727100837
11727107551
11727113228
11727117866
11727125129
11727129585
11727136116
11727139045
11727145881
11727151313
11727155952
11727161872
11727166328
11727172493
11727177375
11727182014
11727185432
11727194282
11727200263
11727206306
11727211189
11727215949
11727223274
11727228828
11727235847
11727241279
11727246833
11727252204
11727257575
11727263068
11727266181
11727273994
11727279975
11727286994
11727291999
11727297736
11727302436
11727307136
11727312995
11727319953
11727325629
11727330695
11727335761
11727340278
11727347175
11727351142
11727358710
11727364142
11727369636
11727375251
11727380988
11727385199
11727390510
11727395392
11727402411
11727410224
11727417853
11727427008
11727435859
11727445624
11727454718
11727459357
11727472846
11727481391
11727489569
11727498053
11727504584
11727512763
11727518134
11727527167
11727534552
11727541937
11727548834
11727554633
11727560919
11727567084
11727572455
11727582282
11727588019
11727595465
11727602545
11727609869
11727616461
11727622931
11727629217
11727633917
11727642706
11727648077
11727656500
11727663458
11727670477
11727676581
11727679266
11727690436
11727695074
11727701361
11727708136
11727715399
11727722418
11727729925
11727735907
11727742926
11727748297
11727754583
11727761358
11727770574
11727778387
11727787237
11727794561
11727801153
11727809271
11727814642
11727821050
11727827581
11727834173
11727842718
11727847540
11727857916
11727863165
11727872015
11727878728
11727886602
11727892828
11727901128
11727910955
11727914190
11727923955
11727931951
11727938482
11727945745
11727952276
11727958074
11727967473
11727973943
11727982183
11727991155
11727998052
11728005132
11728010259
11728018682
11728026311
11728029607
11728043340
11728046331
11728057439
11728065251
11728071660
11728078435
11728085637
11728092107
11728103337
11728109868
11728114446
11728122991
11728129643
11728137151
11728144292
11728152287
11728159123
11728168462
11728175114
11728179509
11728192082
11728197453
11728207829
11728213444
11728222722
11728230595
11728238469
11728252507
11728256779
11728266911
11728273869
11728280766
11728287236
11728294621
11728300969
11728307377
11728317265
11728321782
11728329350
11728334843
11728339909
11728344365
11728349614
11728356694
11728363407
11728369267
11728373356
11728378117
11728384342
11728388127
11728393131
11728399723
11728405400
11728409611
11728415409
11728419804
11728425419
11728430546
11728435063
11728438908
11728445866
11728450321
11728456303
11728461613
11728465580
11728470829
11728476200
11728480045
11728487370
11728492741
11728497745
11728502201
11728505375
11728512943
11728516178
11728523075
11728530094
11728534916
11728538090
11728544620
11728549198
11728554935
11728559513
11728565128
11728570255
11728577335
11728582157
11728586796
11728591434
11728598026
11728602176
11728607975
11728613651
11728618961
11728624942
11728630863
11728635685
11728640567
11728646183
11728649540
11728656436
11728664188
11728669010
11728672245
11728685184
11728690372
11728696170
11728701297
11728707340
11728713077
11728718631
11728724368
11728728885
11728735538
11728739810
11728745181
11728750980
11728757632
11728762393
11728768192
11728774295
11728779300
11728784854
11728789798
11728796207
11728803348
11728810916
11728815799
11728823245
11728829410
11728833987
11728839541
11728843997
11728853030
11728860354
11728866763
11728872134
11728877994
11728882449
11728887698
11728892398
11728898440
11728902774
11728907595
11728913455
11728918032
11728922061
11728927798
11728931765
11728938174
11728942263
11728947512
11728951785
11728957827
11728963015
11728964724
11728971804
11728978579
11728984500
11728989749
11728994082
11728997378
11729004641
11729007937
11729014834
11729018130
11729025637
11729029604
11729035769
11729040286
11729046023
11729050662
11729054812
11729061770
11729067751
11729071841
11729077090
11729083437
11729088869
11729093874
11729100222
11729105898
11729112063
11729117251
11729123110
11729128054
11729134402
11729138979
11729144655
11729150759
11729158571
11729163271
11729168642
11729175295
11729179934
11729186220
11729189882
11729196352
11729202944
11729210146
11729215273
11729220705
11729225649
11729231081
11729235292
11729240297
11729246035
11729251955
11729257936
11729264589
11729270388
11729273989
11729279543
11729285097
11729289308
11729294802
11729300661
11729305971
11729312258
11729315859
11729322145
11729325624
11729331850
11729336733
11729343446
11729349367
11729353456
11729359560
11729364320
11729371950
11729377321
11729381715
11729391542
11729398256
11729404420
11729411317
11729416322
11729423280
11729427980
11729435121
11729441224
11729446657
11729452516
11729458558
11729462892
11729468568
11729472719
11729480287
11729486024
11729491090
11729495485
11729502076
11729506044
11729510682
11729516603
11729523195
11729529481
11729534669
11729540406
11729544984
11729550416
11729554811
11729561158
11729565431
11729571473
11729576051
11729581422
11729587892
11729593141
11729599183
11729602723
11729609498
11729616212
11729623109
11729628724
11729635804
11729642152
11729649110
11729654115
11729659303
11729663697
11729670106
11729674928
11729682069
11729687135
11729693665
11729698365
11729701966
11729710206
11729717896
11729722108
11729726929
11729732728
11729738221
11729746644
11729750794
11729758912
11729763428
11729771790
11729778199
11729784485
11729790345
11729798279
11729804566
11729809571
11729820252
11729825379
11729835389
11729843140
11729851075
11729857971
11729863220
11729870850
11729879578
11729882752
11729892273
11729901673
11729909302
11729916687
11729919495
11729929871
11729937317
11729944885
11729951416
11729959778
11729966919
11729973511
11729982361
11729990662
11729997681
11730004578
11730009888
11730018249
11730024963
11730032959
11730039795
11730047912
11730058838
11730068908
11730075378
11730080871
11730092102
11730100647
11730105774
11730112915
11730123108
11730130432
11730138122
11730147460
11730153137
11730162109
11730168395
11730174499
11730180541
11730188781
11730195129
11730203124
11730209167
11730216430
11730223144
11730229430
11730234924
11730241027
11730246154
11730256896
11730261474
11730268127
11730274108
11730281799
11730287658
11730293151
11730298888
11730306640
11730316650
11730323974
11730330627
11730337340
11730344726
11730350646
11730355590
11730363769
11730367736
11730377013
11730383971
11730390502
11730399657
11730405150
11730413207
11730420104
11730423156
11730435179
11730442382
11730451659
11730459105
11730466735
11730473754
11730478942
11730487486
11730494017
11730502806
11730510008
11730518981
11730526366
11730533141
11730540465
11730546874
11730552794
11730559264
11730566222
11730573119
11730579893
11730587035
11730593993
11730598814
11730608397
11730615965
11730622435
11730628721
11730633787
11730643492
11730649901
11730661924
11730667051
11730676146
11730683043
11730686705
11730697752
11730705748
11730722349
11730730101
11730737547
11730744871
11730752317
11730762266
11730768919
11730774473
11730779661
11730788633
11730796751
11730807127
11730811826
11730821226
11730828428
11730835142
11730841428
11730848325
11730854002
11730860532
11730865965
11730875547
11730882505
11730889402
11730895811
11730902219
11730912046
11730917783
11730925901
11730930540
11730944517
11730954648
11730960630
11730968198
11730976072
11730983091
11730990903
11730997922
11731005307
11731014096
11731020505
11731026914
11731034055
11731041013
11731046262
11731049985
11731057309
11731062863
11731068601
11731073422
11731090451
11731094663
11731100766
11731107053
11731113034
11731117185
11731122434
11731126767
11731131955
11731136105
11731141415
11731146237
11731152402
11731155454
11731162900
11731166562
11731174496
11731178220
11731186520
11731190304
11731197507
11731203061
11731208981
11731214352
11731220273
11731223813
11731231015
11731234860
11731242611
11731246457
11731252926
11731257565
11731262814
11731267575
11731273251
11731278073
11731285641
11731290707
11731297055
11731303402
11731308163
11731313656
11731317135
11731323727
11731330441
11731336361
11731341427
11731345761
11731350338
11731356198
11731360958
11731366146
11731370358
11731378109
11731382809
11731389279
11731394100
11731400143
11731405392
11731409969
11731415707
11731422054
11731427914
11731432674
11731439022
11731444820
11731448544
11731453121
11731458920
11731464108
11731471798
11731476070
11731483150
11731488338
11731493343
11731498836
11731507870
11731512142
11731520321
11731526546
11731534542
11731539486
11731546810
11731552608
11731558346
11731564083
11731572445
11731578060
11731585079
11731591365
11731596920
11731602108
11731606014
11731612850
11731618160
11731622982
11731628475
11731633785
11731637691
11731642818
11731648738
11731654537
11731660396
11731665523
11731671199
11731676204
11731681697
11731686763
11731691097
11731698543
11731704585
11731707820
11731713741
11731718318
11731723872
11731728511
11731734309
11731739864
11731745967
11731750911
11731756770
11731761409
11731767024
11731771297
11731777522
11731781856
11731789546
11731794063
11731799434
11731804317
11731810115
11731816646
11731820308
11731826472
11731832820
11731840571
11731845820
11731850825
11731855586
11731861934
11731866389
11731872554
11731876887
11731882808
11731891047
11731899287
11731906672
11731911921
11731919368
11731926265
11731932246
11731937495
11731942317
11731946711
11731951350
11731955744
11731961116
11731965571
11731970637
11731976008
11731981684
11731986140
11731991023
11731995356
11732000178
11732006587
11732012080
11732016718
11732020808
11732025691
11732028986
11732034663
11732039301
11732045039
11732051203
11732055231
11732060847
11732064875
11732072321
11732076411
11732084101
11732091059
11732095454
11732101252
11732106440
11732109797
11732116755
11732121454
11732128412
11732132441
11732137263
11732141718
11732146235
11732149775
11732155878
11732161005
11732166132
11732171442
11732176630
11732180048
11732186640
11732189692
11732196100
11732201899
11732207209
11732210505
11732217951
11732222528
11732228327
11732234919
11732240290
11732242365
11732249872
11732254511
11732260187
11732265619
11732270929
11732275324
11732281244
11732286676
11732290705
11732296503
11732302912
11732308283
11732312677
11732319025
11732323419
11732330133
11732334894
11732341180
11732345392
11732351373
11732355707
11732360345
11732366083
11732372675
11732378473
11732383600
11732389703
11732393182
11732399042
11732403558
11732409173
11732414911
11732422235
11732427911
11732433954
11732439081
11732445306
11732449945
11732455438
11732461786
11732468377
11732474908
11732481073
11732485162
11732491143
11732496759
11732500238
11732506463
11732513116
11732520318
11732525384
11732530755
11732537286
11732542657
11732547296
11732552117
11732556878
11732563775
11732570550
11732576653
11732583673
11732589349
11732595635
11732600213
11732605096
11732611871
11732617608
11732625237
11732630975
11732637017
11732641900
11732647576
11732652093
11732659356
11732666802
11732672601
11732678338
11732684930
11732689446
11732694939
11732698907
11732706170
11732712151
11732716546
11732722039
11732727227
11732731377
11732737114
11732741387
11732747551
11732751458
11732757134
11732762566
11732767815
11732773308
11732778191
11732784905
11732793389
11732799248
11732804131
11732808586
11732813897
11732819512
11732822808
11732828362
11732834343
11732841118
11732846123
11732851250
11732855889
11732861565
11732865715
11732871575
11732875664
11732882073
11732887993
11732893608
11732901970
11732907097
11732912712
11732917229
11732923088
11732929131
11732935661
11732941399
11732946037
11732952263
11732958244
11732961601
11732969475
11732973198
11732980156
11732985405
11732992851
11732998039
11733003960
11733009025
11733019096
11733023918
11733030144
11733037040
11733042534
11733047722
11733054130
11733058647
11733063896
11733070366
11733073967
11733080131
11733085075
11733092521
11733097648
11733101921
11733105888
11733111991
11733115959
11733124198
11733130424
11733135307
11733139762
11733145133
11733150260
11733155326
11733159049
11733166557
11733171012
11733176811
11733182304
11733187003
11733191276
11733198661
11733203605
11733212211
11733219169
11733223991
11733228690
11733236015
11733239982
11733248466
11733254752
11733262504
11733268485
11733273429
11733278190
11733281913
11733287589
11733292289
11733299308
11733303397
11733309440
11733315116
11733321342
11733327811
11733332328
11733336356
11733343619
11733347342
11733354728
11733359977
11733364982
11733370231
11733374320
11733380607
11733385245
11733390860
11733397269
11733402457
11733407096
11733412467
11733418998
11733424674
11733430411
11733436820
11733443350
11733447989
11733454520
11733457999
11733465140
11733469962
11733473502
11733478751
11733483695
11733490531
11733497855
11733503043
11733507742
11733513175
11733518485
11733522513
11733528738
11733536002
11733541983
11733546988
11733551199
11733556754
11733561514
11733566580
11733572989
11733578116
11733584036
11733588370
11733594351
11733599539
11733604056
11733612417
11733619192
11733623648
11733627920
11733634329
11733640310
11733645437
11733649710
11733654898
11733659048
11733664724
11733668448
11733672354
11733679129
11733685415
11733693411
11733701101
11733707937
11733714224
11733720266
11733731192
11733736380
11733749197
11733756887
11733765676
11733771841
11733777700
11733786611
11733795156
11733801992
11733808584
11733819570
11733826345
11733831106
11733842641
11733846975
11733855093
11733861929
11733867483
11733873952
11733883413
11733889333
11733894826
11733902761
11733909292
11733915822
11733921682
11733928396
11733934377
11733940847
11733951589
11733958791
11733966848
11733974538
11733981557
11733988088
11733996328
11734002797
11734009206
11734018605
11734026174
11734035146
11734041738
11734044606
11734055837
11734061025
11734067922
11734074452
11734085500
11734092824
11734099111
11734106069
11734113271
11734119984
11734126698
11734131581
11734141164
11734145985
11734155690
11734164052
11734171742
11734181264
11734184498
11734195607
11734202077
11734209828
11734214650
11734225758
11734232716
11734240223
11734246876
11734252919
11734261403
11734268666
11734275929
11734283070
11734293507
11734302113
11734308644
11734316090
11734320912
11734329701
11734337574
11734342701
11734352162
11734360829
11734367787
11734371266
11734384022
11734390247
11734400257
11734406910
11734415394
11734423512
11734428883
11734439686
11734445423
11734455372
11734461048
11734467823
11734475086
11734482654
11734488819
11734496998
11734506519
11734512256
11734521290
11734528736
11734535755
11734542774
11734547901
11734557239
11734565174
11734576831
11734585132
11734594776
11734601062
11734609363
11734616016
11734623401
11734629810
11734641651
11734649463
11734658924
11734664295
11734672656
11734680225
11734682910
11734691638
11734698352
11734704273
11734711170
11734719287
11734725635
11734728137
11734739551
11734744800
11734752734
11734759082
11734766223
11734772266
11734781787
11734788379
11734791186
11734800220
11734807300
11734815051
11734820849
11734823596
11734834582
11734839831
11734847461
11734854113
11734862170
11734868945
11734872119
11734886584
11734890185
11734903674
11734908496
11734921923
11734927111
11734937182
11734944567
11734947863
11734958972
11734966967
11734973132
11734983264
11734988452
11734999255
11735006640
11735012682
11735019640
11735024706
11735033556
11735041369
11735048571
11735055895
11735060229
11735071825
11735079211
11735085680
11735092760
11735099779
11735106737
11735114489
11735120653
11735127611
11735136400
11735143908
11735149157
11735158495
11735165209
11735173388
11735180590
11735185839
11735193834
11735201464
11735210375
11735218065
11735220995
11735230577
11735237902
11735246263
11735253099
11735258837
11735267320
11735272081
11735281481
11735288439
11735293199
11735302721
11735310228
11735316332
11735323106
11735328416
11735338426
11735346422
11735354234
11735361558
11735364366
11735376695
11735382005
11735389390
11735396104
11735403917
11735412645
11735420762
11735436387
11735448167
11735459764
11735474046
11735488939
11735497789
11735510545
11735521775
11735533799
11735546433
11735562242
11735571824
11735583665
11735594773
11735603013
11735617051
11735629014
11735639939
11735649888
11735660935
11735670945
11735679063
11735690903
11735700974
11735705491
11735720749
11735733201
11735746994
11735757004
11735765854
11735779221
11735787094
11735798813
11735803025
11735818772
11735826706
11735838364
11735847275
11735858261
11735866867
11735878342
11735890122
11735898117
11735906540
11735918198
11735929367
11735933090
11735948776
11735955429
11735967758
11735976364
11735985214
11735992843
11736003219
11736015732
11736025619
11736034469
11736044723
11736053207
11736063339
11736073715
11736081283
11736090927
11736103256
11736113143
11736123519
11736132247
11736142135
11736151596
11736161849
11736174911
11736182296
11736189315
11736201461
11736207687
11736218978
11736228378
11736240646
11736249984
11736262618
11736269027
11736281661
11736290267
11736299788
11736310348
11736322860
11736334701
11736344283
11736352340
11736364364
11736373580
11736384810
11736396041
11736408126
11736418502
11736430892
11736437544
11736450301
11736456404
11736468611
11736477889
11736489485
11736502852
11736510359
11736516890
11736531050
11736538008
11736548506
11736557783
11736570479
11736578779
11736590193
11736601973
11736610762
11736623152
11736632246
11736642805
11736654097
11736662153
11736673811
11736679914
11736685591
11736696394
11736701155
11736709761
11736718489
11736725386
11736732832
11736737043
11736747846
11736756086
11736762861
11736770796
11736777448
11736786054
11736795820
11736803327
11736810651
11736815778
11736824506
11736830488
11736839826
11736847272
11736854108
11736861799
11736867719
11736879072
11736886213
11736894880
11736901166
11736908063
11736914899
11736923261
11736931135
11736937421
11736945539
11736953534
11736960675
11736966352
11736974897
11736984235
11736990583
11737000165
11737005658
11737010236
11737016767
11737021344
11737027814
11737034711
11737040814
11737045453
11737049787
11737054181
11737061505
11737067853
11737073773
11737079572
11737084271
11737090375
11737096845
11737101300
11737106671
11737112470
11737117413
11737124615
11737129742
11737135663
11737140546
11737145673
11737149640
11737157147
11737161725
11737167462
11737170636
11737177655
11737181561
11737187909
11737192731
11737199627
11737206463
11737210248
11737218243
11737224469
11737228558
11737236371
11737241925
11737247845
11737253521
11737259259
11737265301
11737269207
11737275433
11737280804
11737285565
11737290570
11737295941
11737299908
11737305767
11737310284
11737316143
11737319927
11737326702
11737331524
11737337994
11737340618
11737347454
11737351483
11737358257
11737363079
11737367901
11737371197
11737378033
11737382732
11737388226
11737394146
11737400250
11737406353
11737411846
11737416912
11737419964
11737425091
11737431194
11737437359
11737443035
11737447552
11737454204
11737457256
11737463726
11737469829
11737475323
11737480388
11737485088
11737491070
11737496563
11737501690
11737505779
11737513286
11737535503
11737542278
11737549236
11737555462
11737566265
11737572307
11737578777
11737582927
11737589153
11737596843
11737601543
11737609661
11737614421
11737621807
11737628520
11737633159
11737637676
11737646526
11737653240
11737658794
11737664226
11737669658
11737673869
11737680278
11737684490
11737688274
11737695293
11737700786
11737707744
11737712810
11737718120
11737723247
11737729411
11737733806
11737740092
11737746440
11737754069
11737758952
11737764873
11737769939
11737775432
11737780314
11737787334
11737793559
11737799968
11737804790
11737808635
11737812785
11737818034
11737822551
11737828959
11737833598
11737839152
11737843547
11737849894
11737854472
11737859355
11737866313
11737872721
11737877726
11737882182
11737887858
11737892863
11737898417
11737903056
11737907267
11737913371
11737919169
11737924967
11737929301
11737934977
11737939128
11737943888
11737949320
11737953776
11737961588
11737968058
11737972880
11737977152
11737982768
11737988261
11737993082
11737997233
11738004008
11738009745
11738011759
11738020182
11738023844
11738031107
11738034769
11738041056
11738046122
11738053568
11738058939
11738064005
11738069193
11738076578
11738081278
11738087870
11738092447
11738096415
11738105021
11738106974
11738116068
11738120218
11738126932
11738135111
11738142862
11738147379
11738153910
11738159220
11738166666
11738170755
11738179789
11738184183
11738192789
11738197916
11738205606
11738208841
11738215677
11738222757
11738227579
11738231058
11738238809
11738244852
11738251016
11738254984
11738263468
11738266702
11738275919
11738283914
11738290018
11738296182
11738301553
11738308511
11738313455
11738320901
11738325967
11738332864
11738337503
11738346109
11738353982
11738358621
11738365213
11738371316
11738377054
11738382303
11738387979
11738395181
11738401651
11738406717
11738412332
11738416238
11738422342
11738426248
11738432962
11738437234
11738442910
11738448648
11738453408
11738458841
11738463052
11738468972
11738474649
11738479287
11738483743
11738489419
11738494790
11738499002
11738504434
11738508584
11738515969
11738520791
11738526284
11738532205
11738534158
11738541665
11738544900
11738551553
11738556436
11738562539
11738567422
11738572244
11738577065
11738583413
11738587991
11738593240
11738597695
11738604470
11738609414
11738614968
11738620583
11738625100
11738631081
11738634927
11738641152
11738646645
11738654031
11738659341
11738665932
11738671548
11738677041
11738681801
11738687478
11738691750
11738696267
11738704690
11738709816
11738714455
11738720681
11738725564
11738729043
11738735878
11738741921
11738748085
11738753273
11738758400
11738763344
11738769692
11738773964
11738780129
11738786232
11738791664
11738797768
11738803139
11738807961
11738811440
11738819069
11738822548
11738828652
11738834023
11738841042
11738846718
11738852883
11738858498
11738864296
11738868935
11738874306
11738882057
11738889259
11738897255
11738903847
11738908974
11738914955
11738920570
11738925270
11738929665
11738936623
11738946083
11738951576
11738955116
11738961037
11738965370
11738971168
11738976173
11738981788
11738986915
11738993080
11738998085
11739002907
11739007179
11739013710
11739017982
11739026344
11739030677
11739035682
11739041237
11739045692
11739051124
11739056862
11739061073
11739066383
11739072303
11739077308
11739083290
11739087989
11739093299
11739097450
11739103492
11739107704
11739115150
11739119117
11739124671
11739130104
11739134803
11739141090
11739146339
11739152564
11739160011
11739164344
11739169593
11739175880
11739182960
11739187843
11739195655
11739200843
11739208106
11739213538
11739219703
11739226173
11739230323
11739237037
11739242042
11739248389
11739254371
11739259620
11739264503
11739270728
11739277259
11739282142
11739288245
11739293433
11739298011
11739303870
11739311194
11739315162
11739322120
11739325965
11739335242
11739339393
11739349158
11739355262
11739363196
11739370581
11739375647
11739379431
11739387244
11739392859
11739398596
11739403540
11739409644
11739414221
11739421057
11739425818
11739432166
11739437110
11739441016
11739448706
11739456152
11739465003
11739472266
11739478491
11739486365
11739493201
11739501257
11739509497
11739516150
11739523047
11739534460
11739543127
11739551428
11739558569
11739564795
11739573034
11739579870
11739588598
11739594519
11739604956
11739615088
11739623633
11739629492
11739636145
11739642736
11739648779
11739655615
11739661474
11739670446
11739677771
11739682592
11739690283
11739696875
11739704809
11739711157
11739716101
11739724340
11739728735
11739737280
11739744238
11739749120
11739759130
11739763525
11739771825
11739779699
11739785436
11739795690
11739801550
11739812597
11739817663
11739826391
11739833471
11739838720
11739847936
11739855871
11739860937
11739870031
11739873754
11739884496
11739892248
11739899816
11739907689
11739917638
11739924657
11739931066
11739941747
11739951390
11739960424
11739968663
11739975194
11739981847
11739987096
11739995214
11740003697
11740006749
11740017125
11740022923
11740033422
11740041295
11740048253
11740054967
11740058202
11740067235
11740073949
11740082738
11740089330
11740101170
11740108311
11740113805
11740121129
11740128026
11740136082
11740142735
11740150426
11740156895
11740164220
11740173558
11740181248
11740186497
11740195591
11740202488
11740209874
11740217442
11740222813
11740232518
11740239964
11740248143
11740255955
11740261143
11740269810
11740276646
11740284092
11740291355
11740296849
11740306675
11740315769
11740324803
11740332005
11740340000
11740346958
11740352451
11740361424
11740368382
11740371555
11740381992
11740392124
11740400181
11740407810
11740419407
11740428074
11740434666
11740445347
11740451877
11740463596
11740473423
11740482456
11740493259
11740500522
11740507175
11740514988
11740521274
11740526584
11740534397
11740542087
11740548923
11740556125
11740562412
11740569431
11740576755
11740582981
11740590671
11740598056
11740604709
11740610324
11740620639
11740628086
11740634555
11740640964
11740648898
11740654514
11740659091
11740667392
11740674106
11740683688
11740691867
11740697482
11740707126
11740714938
11740722324
11740729282
11740732577
11740742404
11740751681
11740761081
11740769198
11740772250
11740781955
11740789889
11740796054
11740802890
11740810946
11740818026
11740828036
11740835849
11740843234
11740849520
11740856234
11740861666
11740871005
11740878207
11740885165
11740891879
11740901339
11740907748
11740913363
11740922396
11740929476
11740935153
11740942050
11740946810
11740957736
11740962618
11740974032
11740981783
11740990145
11740997164
11741002901
11741010653
11741017428
11741020541
11741031222
11741039767
11741048800
11741057467
11741064059
11741071017
11741076510
11741085787
11741093599
11741099276
11741106173
11741113070
11741125155
11741130404
11741138826
11741145723
11741153475
11741160311
11741168184
11741175692
11741182344
11741190706
11741197298
11741202608
11741211519
11741215914
11741224520
11741231294
11741236971
11741246553
11741251497
11741263704
11741270906
11741273653
11741284456
11741291475
11741301607
11741309480
11741318025
11741325410
11741333345
11741343660
11741351472
11741363008
11741367952
11741375276
11741379487
11741387117
11741393403
11741400239
11741405610
11741411165
11741415437
11741421602
11741424592
11741431245
11741436982
11741442414
11741447297
11741452363
11741458711
11741462617
11741468904
11741474214
11741478669
11741485566
11741490083
11741496003
11741500337
11741506257
11741510530
11741516389
11741520722
11741525666
11741532868
11741538545
11741543000
11741547761
11741553315
11741558015
11741563508
11741567719
11741574921
11741579377
11741585664
11741590424
11741596284
11741600434
11741606171
11741610627
11741618500
11741623383
11741626557
11741634247
11741638215
11741647553
11741651826
11741661530
11741666169
11741672638
11741675873
11741684357
11741687836
11741694306
11741699189
11741705353
11741710724
11741718598
11741724152
11741730072
11741734955
11741741364
11741745942
11741749482
11741757843
11741766388
11741770722
11741774201
11741781525
11741784699
11741791779
11741795319
11741801239
11741806183
11741813568
11741818695
11741823639
11741830597
11741835663
11741839874
11741845856
11741850861
11741859772
11741866669
11741873200
11741878693
11741883759
11741889496
11741893097
11741900970
11741905609
11741913788
11741922577
11741927887
11741933197
11741938141
11741943512
11741949921
11741955841
11741961761
11741970794
11741975128
11741979461
11741984527
11741989044
11741994354
11742000152
11742004486
11742009674
11742014740
11742019500
11742024505
11742027740
11742034942
11742038848
11742047088
11742049957
11742056915
11742061126
11742066131
11742072174
11742076385
11742082977
11742088409
11742092498
11742097930
11742102996
11742108550
11742113861
11742119476
11742125274
11742131561
11742134796
11742141326
11742144805
11742152374
11742157195
11742161773
11742166045
11742174285
11742179351
11742185455
11742190276
11742195098
11742199248
11742205535
11742209869
11742216704
11742221465
11742227691
11742232146
11742235625
11742243499
11742247222
11742255218
11742259978
11742267669
11742273467
11742279387
11742286834
11742293364
11742298369
11742304412
11742312285
11742317412
11742322783
11742330352
11742337798
11742340483
11742350188
11742355986
11742361113
11742367705
11742375945
11742380217
11742387847
11742393828
11742401274
11742408721
11742413176
11742417449
11742426299
11742430449
11742438384
11742441679
11742448760
11742452422
11742460906
11742464995
11742472502
11742478667
11742483122
11742488188
11742497221
11742501555
11742509856
11742515959
11742523100
11742531340
11742539030
11742546110
11742553618
11742560026
11742565275
11742569304
11742576750
11742582731
11742588347
11742594816
11742598784
11742604765
11742608671
11742615995
11742622770
11742626799
11742632658
11742637419
11742643034
11742645109
11742652739
11742659391
11742665129
11742670927
11742674955
11742680509
11742686064
11742689298
11742695402
11742700712
11742708280
11742713224
11742718351
11742722929
11742729154
11742733244
11742739835
11742744413
11742752348
11742756986
11742763151
11742767423
11742772672
11742778104
11742782682
11742788297
11742792326
11742800626
11742804594
11742812406
11742816312
11742826017
11742830656
11742839506
11742846036
11742852567
11742858365
11742866300
11742874296
11742884610
11742891874
11742897611
11742907560
11742912320
11742923795
11742931180
11742939054
11742946073
11742953336
11742960477
11742967618
11742970548
11742980741
11742990262
11742997586
11743005033
11743011991
11743019071
11743024320
11743032193
11743039517
11743047330
11743054837
11743061063
11743072537
11743080838
11743086392
11743095853
11743098904
11743107632
11743114651
11743124295
11743131009
11743135342
11743147427
11743154935
11743160977
11743167325
11743172452
11743182766
11743191556
11743199978
11743207180
11743218045
11743228848
11743236233
11743244839
11743248379
11743259793
11743267422
11743275357
11743282925
11743291409
11743298550
11743308071
11743315579
11743322720
11743328701
11743333462
11743341641
11743349026
11743356350
11743363308
11743370388
11743377041
11743385281
11743391384
11743396450
11743403408
11743409573
11743419704
11743425991
11743430569
11743440578
11743445583
11743453579
11743460110
11743466762
11743472683
11743476040
11743488552
11743493129
11743500454
11743506374
11743514003
11743519924
11743524746
11743532436
11743540065
11743548976
11743556667
11743562953
11743570034
11743575771
11743584865
11743592433
11743600063
11743606532
11743615260
11743622646
11743629543
11743636501
11743643153
11743650600
11743657130
11743662074
11743671718
11743676357
11743685878
11743692897
11743700587
11743707362
11743718104
11743725062
11743730983
11743741847
11743750392
11743757472
11743766139
11743773463
11743780177
11743785487
11743795314
11743800258
11743808680
11743815577
11743821803
11743832057
11743839381
11743847255
11743855250
11743863978
11743874171
11743877833
11743888941
11743895289
11743906703
11743914759
11743919947
11743927882
11743933802
11743943690
11743951075
11743956751
11743964014
11743969874
11743981104
11743986475
11743994349
11744000697
11744009913
11744016566
11744021937
11744029932
11744037134
11744047510
11744054224
11744061976
11744068567
11744076929
11744083765
11744090601
11744101160
11744109705
11744116724
11744128077
11744135645
11744143763
11744152552
11744159876
11744167566
11744175928
11744183496
11744189295
11744201074
11744206384
11744214929
11744221521
11744227564
11744233789
11744238794
11744246851
11744255212
11744264246
11744268579
11744277063
11744284082
11744290491
11744297754
11744302759
11744310937
11744315027
11744323389
11744331750
11744334375
11744343286
11744350366
11744357141
11744362939
11744369958
11744376245
11744381921
11744389856
11744396508
11744403283
11744409936
11744418298
11744424463
11744429467
11744438134
11744445092
11744453271
11744459375
11744466271
11744472985
11744480004
11744486230
11744493005
11744500817
11744507775
11744514184
11744521630
11744528893
11744535058
11744541467
11744546471
11744555810
11744562585
11744574059
11744580834
11744590356
11744597314
11744605431
11744611901
11744617089
11744624901
11744631188
11744639733
11744646508
11744656884
11744664269
11744671837
11744677697
11744684655
11744689965
11744700097
11744707604
11744714745
11744721886
11744732811
11744740319
11744745690
11744753868
11744760643
11744769676
11744776573
11744781945
11744789696
11744796898
11744805443
11744813072
11744821739
11744828880
11744834313
11744842796
11744849937
11744858055
11744864952
11744872765
11744884788
11744889732
11744899559
11744906273
11744913292
11744920616
11744928123
11744933311
11744940636
11744946312
11744959312
11744964927
11744974632
11744979332
11744990257
11744997642
11745007164
11745014732
11745027183
11745034996
11745041954
11745051658
11745060142
11745065940
11745073142
11745079856
11745085655
11745092063
11745095909
11745103721
11745107566
11745116050
11745122154
11745128440
11745134727
11745143882
11745148948
11745155174
11745161155
11745165672
11745170737
11745176170
11745181907
11745186057
11745191306
11745196250
11745201865
11745206443
11745211936
11745215842
11745224387
11745227866
11745234641
11745237937
11745244834
11745249595
11745255820
11745261252
11745267234
11745271872
11745277610
11745283225
11745287864
11745293357
11745298850
11745303061
11745312033
11745319358
11745324790
11745328940
11745334616
11745338767
11745343405
11745349021
11745354392
11745360984
11745366172
11745372031
11745376731
11745382163
11745388816
11745393942
11745398703
11745406455
11745411643
11745417746
11745422812
11745426657
11745433981
11745439352
11745445151
11745450156
11745458517
11745464255
11745469626
11745474326
11745481589
11745486533
11745492880
11745497702
11745501669
11745509421
11745513449
11745521384
11745526938
11745533896
11745541220
11745546896
11745552633
11745559286
11745564840
11745571005
11745576071
11745585531
11745592001
11745597372
11745604330
11745611105
11745619284
11745624228
11745630758
11745635153
11745641867
11745646383
11745655111
11745659872
11745664205
11745669577
11745674764
11745678793
11745684347
11745689474
11745696676
11745702719
11745708212
11745712606
11745717428
11745721456
11745727743
11745731466
11745737753
11745741903
11745748312
11745752767
11745758321
11745762594
11745765951
11745772726
11745779501
11745784444
11745790731
11745795126
11745799947
11745805624
11745810262
11745816122
11745821126
11745827596
11745832784
11745838033
11745842183
11745848104
11745852254
11745857808
11745863363
11745868795
11745874593
11745878804
11745886007
11745889303
11745895101
11745899739
11745905172
11745911580
11745918477
11745922383
11745928731
11745933553
11745941426
11745948140
11745955892
11745962422
11745969014
11745980245
11745985188
11745989827
11745996785
11746001119
11746007955
11746012898
11746022054
11746027059
11746034505
11746039266
11746044942
11746050801
11746057759
11746063130
11746069600
11746075276
11746081929
11746088399
11746094624
11746100117
11746105855
11746111043
11746118489
11746123616
11746129414
11746136250
11746141743
11746148091
11746153035
11746159077
11746163716
11746172017
11746180500
11746184895
11746192036
11746196248
11746204243
11746210164
11746216572
11746222309
11746230976
11746235981
11746240010
11746245808
11746251484
11746256428
11746261494
11746266682
11746271809
11746278584
11746283406
11746288655
11746292011
11746300495
11746305988
11746310139
11746313374
11746320393
11746325764
11746329975
11746335224
11746342243
11746347431
11746352741
11746357319
11746362263
11746368488
11746372456
11746378010
11746384602
11746389179
11746395588
11746399982
11746405353
11746409748
11746413044
11746420551
11746428364
11746434284
11746437824
11746444599
11746449360
11746455219
11746460346
11746466266
11746470966
11746477985
11746482868
11746488300
11746493427
11746503681
11746508319
11746511921
11746519916
11746524311
11746531513
11746536884
11746542621
11746547626
11746554279
11746559223
11746564838
11746570087
11746577045
11746583637
11746590412
11746595783
11746601764
11746606220
11746611835
11746617938
11746624591
11746629657
11746635944
11746642780
11746647662
11746651386
11746654620
11746662067
11746665301
11746673358
11746677692
11746684283
11746688617
11746694965
11746699176
11746705218
11746709308
11746718158
11746724383
11746726459
11746734881
11746737018
11746747210
11746751178
11746757892
11746764361
11746770099
11746775592
11746782611
11746786517
11746792743
11746797259
11746804156
11746809893
11746817340
11746820697
11746826190
11746828997
11746835406
11746838153
11746845172
11746852435
11746857623
11746863299
11746867083
11746873248
11746876971
11746882281
11746887530
11746893572
11746898028
11746904620
11746908831
11746913592
11746918536
11746922991
11746926714
11746930071
11746937518
11746943255
11746948626
11746953692
11746959246
11746964434
11746970476
11746975787
11746980608
11746985552
11746991778
11746997332
11747001421
11747006792
11747012408
11747014788
11747022845
11747028399
11747032854
11747036394
11747043047
11747047625
11747053057
11747057512
11747070574
11747077471
11747082781
11747087297
11747093584
11747097734
11747102983
11747108843
11747116899
11747121965
11747128069
11747134050
11747138994
11747144548
11747147844
11747154131
11747161150
11747167131
11747172197
11747177019
11747181658
11747188249
11747192522
11747197649
11747203447
11747210344
11747214861
11747218401
11747226701
11747230486
11747236711
11747240007
11747246355
11747251848
11747258989
11747264726
11747270769
11747275285
11747281145
11747285478
11747290788
11747294939
11747298601
11747307939
11747312150
11747321001
11747325578
11747335222
11747342058
11747349016
11747354265
11747364152
11747368730
11747377458
11747381547
11747388261
11747391496
11747397355
11747402177
11747407609
11747412736
11747419145
11747422319
11747427323
11747431413
11747438188
11747442338
11747450090
11747456864
11747461259
11747465104
11747470719
11747474565
11747479630
11747484696
11747491410
11747497270
11747501542
11747507096
11747510209
11747516374
11747521134
11747525895
11747530900
11747539628
11747544877
11747550492
11747555375
11747560807
11747566361
11747568131
11747577286
11747584428
11747590958
11747593095
11747601456
11747604996
11747611771
11747616288
11747621415
11747626542
11747632767
11747638321
11747644425
11747648942
11747655106
11747659440
11747664383
11747668656
11747676163
11747682267
11747687455
11747692093
11747696183
11747703141
11747706375
11747713089
11747718033
11747722977
11747727616
11747734696
11747739151
11747743668
11747748673
11747753067
11747758621
11747762650
11747770767
11747775345
11747784439
11747788345
11747794998
11747799942
11747804703
11747811966
11747819046
11747824661
11747830948
11747838821
11747843155
11747850601
11747857010
11747863907
11747870132
11747876114
11747886490
11747893326
11747901260
11747908340
11747914139
11747925125
11747928848
11747943680
11747947891
11747961014
11747969619
11747977981
11747986648
11747996109
11748003372
11748011856
11748018936
11748025772
11748035415
11748043411
11748052444
11748058853
11748067642
11748074172
11748077773
11748087966
11748096572
11748104019
11748111587
11748119216
11748125625
11748130325
11748138137
11748144607
11748150832
11748157180
11748165054
11748171828
11748177566
11748186782
11748190932
11748198562
11748204543
11748209304
11748218459
11748222426
11748231032
11748237868
11748246352
11748252273
11748257033
11748264724
11748270705
11748279067
11748284987
11748290480
11748298537
11748306105
11748313552
11748319655
11748322646
11748332228
11748339369
11748345351
11748351271
11748362868
11748370986
11748376723
11748386794
11748394423
11748402236
11748409255
11748417555
11748424330
11748434157
11748441603
11748446425
11748456129
11748464430
11748472121
11748479018
11748484633
11748492934
11748497206
11748508009
11748516188
11748522902
11748529799
11748537367
11748544142
11748550673
11748557325
11748564039
11748574965
11748582777
11748588087
11748594679
11748603041
11748609693
11748614820
11748623487
11748628920
11748637831
11748644422
11748652296
11748659132
11748662184
11748674330
11748679273
11748687025
11748694166
11748705763
11748712599
11748715467
11748726148
11748731641
11748742017
11748746595
11748754896
11748761671
11748767469
11748778394
11748788709
11748799085
11748805616
11748813611
11748821485
11748829175
11748837720
11748850477
11748856763
11748866285
11748873914
11748882825
11748888929
11748896558
11748902539
11748910413
11748917249
11748923719
11748932325
11748938733
11748945569
11748951428
11748956372
11748965222
11748972608
11748981214
11748987500
11748990247
11749002026
11749006909
11749014172
11749020093
11749028455
11749034375
11749044629
11749051526
11749056103
11749065320
11749071789
11749076977
11749083264
11749088269
11749097119
11749105115
11749113293
11749120068
11749129223
11749136242
11749144177
11749151562
11749157849
11749168469
11749177197
11749185681
11749192700
11749195996
11749206494
11749211865
11749219921
11749226635
11749234875
11749242016
11749247753
11749256481
11749263867
11749271923
11749278637
11749283947
11749291943
11749298657
11749307568
11749314404
11749320995
11749332043
11749340466
11749349438
11749357677
11749366589
11749374462
11749378063
11749389171
11749395885
11749406933
11749411938
11749423473
11749431286
11749435131
11749448559
11749454906
11749463512
11749470836
11749481212
11749488597
11749496105
11749503612
11749510997
11749516613
11749523754
11749529003
11749538036
11749547557
11749555248
11749562694
11749570140
11749577403
11749582591
11749591380
11749598705
11749606944
11749613902
11749620006
11749629161
11749637462
11749643260
11749650340
11749655650
11749664561
11749672862
11749681590
11749688853
11749699962
11749707591
11749713145
11749723155
11749727977
11749737803
11749745433
11749748301
11749760569
11749766246
11749776561
11749780833
11749788951
11749795115
11749801524
11749807750
11749814219
11749821788
11749825816
11749836070
11749841990
11749848399
11749854258
11749860728
11749868052
11749874034
11749881480
11749887339
11749892710
11749901194
11749906504
11749915842
11749922617
11749927622
11749935374
11749941721
11749947642
11749955149
11749962962
11749969370
11749977000
11749983042
11749987986
11749996042
11750003428
11750008799
11750016916
11750024607
11750030893
11750035532
11750044077
11750050547
11750056650
11750063059
11750069895
11750076242
11750084482
11750093637
11750101572
11750106516
11750115427
11750118601
11750129221
11750133493
11750142038
11750148508
11750156259
11750166940
11750172006
11750181040
11750185556
11750192575
11750201120
11750206247
11750214426
11750218881
11750229562
11750236276
11750239084
11750248727
11750256357
11750263742
11750270944
11750278573
11750286203
11750292978
11750302682
11750309579
11750318673
11750325509
11750332467
11750339731
11750347970
11750354684
11750360544
11750368966
11750376718
11750384713
11750391732
11750397226
11750406381
11750411019
11750419747
11750426522
11750433175
11750444406
11750452584
11750458871
11750466073
11750471322
11750480416
11750488351
11750495797
11750502755
11750506661
11750521554
11750532235
11750539376
11750542733
11750553597
11750562081
11750568429
11750575814
11750583504
11750596139
11750601937
11750611580
11750618844
11750624825
11750632821
11750635689
11750643990
11750652108
11750660164
11750667305
11750674874
11750681221
11750688240
11750693978
11750701180
11750707650
11750713570
11750723336
11750729500
11750736092
11750742073
11750746712
11750755379
11750762154
11750767647
11750775520
11750779854
11750790962
11750795906
11750803352
11750809456
11750814888
11750819893
11750825752
11750831673
11750836678
11750842293
11750845650
11750853035
11750856392
11750862984
11750867622
11750873054
11750878059
11750883980
11750888862
11750895881
11750900520
11750907051
11750911445
11750917854
11750922798
11750929268
11750933906
11750937141
11750946113
11750956123
11750968391
11750978035
11750988838
11751000373
11751014411
11751025032
11751032173
11751039680
11751047676
11751057929
11751063056
11751073432
11751077705
11751089607
11751098518
11751104682
11751114936
11751120551
11751130439
11751136787
11751146064
11751152167
11751159186
11751166816
11751173225
11751181830
11751190192
11751195930
11751207282
11751214789
11751222114
11751229560
11751235419
11751242865
11751247504
11751256904
11751261420
11751270697
11751274726
11751287970
11751296454
11751303290
11751312690
11751319098
11751328131
11751337714
11751344184
11751353888
11751362799
11751370490
11751378302
11751384223
11751391791
11751396185
11751405890
11751413702
11751419318
11751428961
11751434576
11751442267
11751449896
11751454230
11751463690
11751468146
11751477301
11751483710
11751491400
11751497809
11751504156
11751509527
11751516485
11751524115
11751530707
11751538336
11751547857
11751553778
11751561712
11751567389
11751575140
11751580877
11751587286
11751595343
11751602728
11751612188
11751616949
11751624884
11751631109
11751639654
11751646002
11751653936
11751659612
11751668463
11751674810
11751682867
11751690435
11751696722
11751704351
11751709722
11751717229
11751722723
11751733038
11751739996
11751748601
11751754949
11751761358
11751767278
11751775457
11751781194
11751790044
11751796270
11751805242
11751811284
11751818426
11751825384
11751831304
11751843084
11751860051
11751873174
11751882573
11751890813
11751900701
11751910466
11751919805
11751929204
11751938054
11751946111
11751955022
11751965093
11751973882
11751981328
11751988835
11751997929
11752005132
11752012151
11752019109
11752026982
11752034184
11752040349
11752046574
11752056279
11752062993
11752072575
11752079350
11752088444
11752095341
11752104680
11752111027
11752116704
11752132634
11752139836
11752146794
11752154789
11752159916
11752167790
11752176945
11752183476
11752191471
11752199223
11752205815
11752212406
11752218083
11752227665
11752233891
11752242253
11752250309
11752258305
11752264408
11752269230
11752280338
11752285099
11752293949
11752301090
11752310490
11752316776
11752324833
11752331791
11752340031
11752346134
11752354557
11752360477
11752367374
11752373295
11752378483
11752385013
11752390446
11752394962
11752400028
11752406376
11752411625
11752416813
11752422916
11752427250
11752432132
11752438114
11752446170
11752452823
11752459354
11752463993
11752467960
11752474796
11752479435
11752484500
11752490665
11752495121
11752502323
11752508243
11752513126
11752517276
11752523014
11752527835
11752533328
11752539005
11752543582
11752548953
11752556522
11752559818
11752566837
11752570255
11752577640
11752582889
11752589114
11752593753
11752601016
11752605045
11752612003
11752617068
11752622806
11752627322
11752633426
11752637698
11752645206
11752650699
11752654422
11752662173
11752666446
11752673526
11752676883
11752684085
11752690066
11752695254
11752698611
11752705447
11752710391
11752713992
11752722659
11752727969
11752734988
11752737246
11752744326
11752750186
11752755496
11752760073
11752764895
11752770816
11752775271
11752780337
11752785159
11752789431
11752793215
11752798098
11752802676
11752808718
11752813479
11752818484
11752821475
11752826785
11752830569
11752836123
11752839480
11752846316
11752849551
11752856265
11752861147
11752865298
11752868472
11752875124
11752882082
11752887942
11752892764
11752897524
11752903567
11752907351
11752912844
11752917117
11752923830
11752928469
11752934145
11752939455
11752943972
11752949587
11752954165
11752959109
11752964968
11752970766
11752975588
11752980349
11752986635
11752989870
11752995974
11753003420
11753009096
11753013064
11753017458
11753023256
11753026247
11753032045
11753038454
11753043276
11753049257
11753054140
11753058718
11753061831
11753068727
11753072695
11753080629
11753085268
11753090761
11753095827
11753100222
11753107424
11753112795
11753119203
11753125795
11753131410
11753136232
11753141298
11753147341
11753153383
11753160097
11753165712
11753169679
11753175234
11753178529
11753185671
11753192629
11753197511
11753206911
11753210390
11753221193
11753229066
11753236513
11753242250
11753253114
11753260377
11753267396
11753274049
11753279359
11753284974
11753291017
11753295656
11753300660
11753305482
11753311036
11753316774
11753322572
11753327394
11753333009
11753339113
11753344056
11753348268
11753353761
11753359620
11753364137
11753369752
11753375550
11753380128
11753385560
11753390138
11753397462
11753400697
11753407899
11753411500
11753418946
11753422608
11753429505
11753434205
11753438783
11753443360
11753450196
11753454652
11753462220
11753468507
11753474427
11753479493
11753485902
11753490174
11753495301
11753501588
11753507142
11753513367
11753518861
11753528748
11753534791
11753541444
11753546448
11753553040
11753558839
11753565980
11753570923
11753576234
11753581727
11753588807
11753594239
11753600831
11753607361
11753613953
11753621216
11753626160
11753631409
11753637146
11753641968
11753648194
11753653687
11753662110
11753666504
11753673462
11753678345
11753686035
11753689453
11753696900
11753701783
11753709656
11753716736
11753721680
11753727417
11753731568
11753738037
11753742432
11753746338
11753754395
11753759583
11753765442
